PE IR       SUBTECH     SPECTRUM    ASCII       PEDS        4.00        
   -1
TE110A_099_80K_AFTER_160K_SB.ASC
20/05/14
17:21:22.00
20/05/14
17:21:22.00
Administrator
TE110A.Thursday, May 14 2020, 009.
1000.000000
#HDR
-1
-1
#GR
cm-1
EGY
1.0
0.0
6000.000000
-2.000000
2501
8
8.010676
0.818650
#DATA
6000.000000	1.302000
5998.000000	1.303135
5996.000000	1.305565
5994.000000	1.309270
5992.000000	1.312301
5990.000000	1.314361
5988.000000	1.316343
5986.000000	1.319310
5984.000000	1.323177
5982.000000	1.327020
5980.000000	1.329702
5978.000000	1.331742
5976.000000	1.333866
5974.000000	1.336127
5972.000000	1.338550
5970.000000	1.340972
5968.000000	1.344075
5966.000000	1.347692
5964.000000	1.351457
5962.000000	1.354164
5960.000000	1.356396
5958.000000	1.359019
5956.000000	1.361335
5954.000000	1.363322
5952.000000	1.366007
5950.000000	1.368652
5948.000000	1.371547
5946.000000	1.374101
5944.000000	1.376650
5942.000000	1.380080
5940.000000	1.382900
5938.000000	1.385134
5936.000000	1.387236
5934.000000	1.389874
5932.000000	1.393335
5930.000000	1.397182
5928.000000	1.400102
5926.000000	1.402100
5924.000000	1.404119
5922.000000	1.407144
5920.000000	1.410899
5918.000000	1.413789
5916.000000	1.416010
5914.000000	1.417881
5912.000000	1.420453
5910.000000	1.423614
5908.000000	1.426976
5906.000000	1.429696
5904.000000	1.431920
5902.000000	1.434553
5900.000000	1.437670
5898.000000	1.440873
5896.000000	1.443720
5894.000000	1.447248
5892.000000	1.451455
5890.000000	1.454305
5888.000000	1.456171
5886.000000	1.457873
5884.000000	1.460105
5882.000000	1.463229
5880.000000	1.467182
5878.000000	1.471870
5876.000000	1.475803
5874.000000	1.478203
5872.000000	1.480750
5870.000000	1.483472
5868.000000	1.486169
5866.000000	1.489176
5864.000000	1.492177
5862.000000	1.496055
5860.000000	1.499512
5858.000000	1.502362
5856.000000	1.504586
5854.000000	1.506712
5852.000000	1.509418
5850.000000	1.512596
5848.000000	1.516194
5846.000000	1.519307
5844.000000	1.522230
5842.000000	1.524987
5840.000000	1.528521
5838.000000	1.532399
5836.000000	1.535773
5834.000000	1.538832
5832.000000	1.542069
5830.000000	1.545054
5828.000000	1.547450
5826.000000	1.550167
5824.000000	1.553647
5822.000000	1.556949
5820.000000	1.559651
5818.000000	1.561578
5816.000000	1.564456
5814.000000	1.568264
5812.000000	1.572307
5810.000000	1.575924
5808.000000	1.579429
5806.000000	1.582630
5804.000000	1.585627
5802.000000	1.588323
5800.000000	1.591087
5798.000000	1.594801
5796.000000	1.597883
5794.000000	1.601481
5792.000000	1.605046
5790.000000	1.608864
5788.000000	1.612084
5786.000000	1.614762
5784.000000	1.617886
5782.000000	1.621227
5780.000000	1.625012
5778.000000	1.628361
5776.000000	1.631656
5774.000000	1.635172
5772.000000	1.638567
5770.000000	1.641446
5768.000000	1.644164
5766.000000	1.647791
5764.000000	1.651845
5762.000000	1.655651
5760.000000	1.658216
5758.000000	1.660812
5756.000000	1.664570
5754.000000	1.669047
5752.000000	1.673294
5750.000000	1.676614
5748.000000	1.679498
5746.000000	1.683522
5744.000000	1.687469
5742.000000	1.690247
5740.000000	1.692527
5738.000000	1.694869
5736.000000	1.697583
5734.000000	1.700269
5732.000000	1.703179
5730.000000	1.707219
5728.000000	1.711074
5726.000000	1.714075
5724.000000	1.717067
5722.000000	1.720643
5720.000000	1.724723
5718.000000	1.728361
5716.000000	1.731255
5714.000000	1.733882
5712.000000	1.736919
5710.000000	1.740784
5708.000000	1.744771
5706.000000	1.748437
5704.000000	1.751386
5702.000000	1.753978
5700.000000	1.757064
5698.000000	1.760650
5696.000000	1.764616
5694.000000	1.768481
5692.000000	1.771875
5690.000000	1.775914
5688.000000	1.779936
5686.000000	1.783544
5684.000000	1.786962
5682.000000	1.790105
5680.000000	1.793835
5678.000000	1.797720
5676.000000	1.801645
5674.000000	1.805802
5672.000000	1.808959
5670.000000	1.812252
5668.000000	1.815305
5666.000000	1.818801
5664.000000	1.822220
5662.000000	1.825676
5660.000000	1.829686
5658.000000	1.834205
5656.000000	1.838203
5654.000000	1.841578
5652.000000	1.845529
5650.000000	1.849143
5648.000000	1.851673
5646.000000	1.854170
5644.000000	1.857805
5642.000000	1.863126
5640.000000	1.867554
5638.000000	1.870779
5636.000000	1.873262
5634.000000	1.876118
5632.000000	1.879571
5630.000000	1.883782
5628.000000	1.887904
5626.000000	1.891241
5624.000000	1.893934
5622.000000	1.896521
5620.000000	1.899930
5618.000000	1.904190
5616.000000	1.908877
5614.000000	1.913147
5612.000000	1.916645
5610.000000	1.919788
5608.000000	1.923223
5606.000000	1.927080
5604.000000	1.930809
5602.000000	1.934281
5600.000000	1.938515
5598.000000	1.943027
5596.000000	1.946667
5594.000000	1.949414
5592.000000	1.952488
5590.000000	1.956631
5588.000000	1.960726
5586.000000	1.964127
5584.000000	1.967785
5582.000000	1.972213
5580.000000	1.976538
5578.000000	1.980378
5576.000000	1.983570
5574.000000	1.986694
5572.000000	1.990440
5570.000000	1.994472
5568.000000	1.998880
5566.000000	2.002904
5564.000000	2.006973
5562.000000	2.010485
5560.000000	2.013625
5558.000000	2.016571
5556.000000	2.019959
5554.000000	2.023876
5552.000000	2.027605
5550.000000	2.031679
5548.000000	2.035760
5546.000000	2.039954
5544.000000	2.043748
5542.000000	2.047498
5540.000000	2.050783
5538.000000	2.054542
5536.000000	2.058406
5534.000000	2.062246
5532.000000	2.065376
5530.000000	2.068896
5528.000000	2.073458
5526.000000	2.078051
5524.000000	2.081879
5522.000000	2.085128
5520.000000	2.088252
5518.000000	2.092180
5516.000000	2.095669
5514.000000	2.098783
5512.000000	2.102770
5510.000000	2.107272
5508.000000	2.110825
5506.000000	2.114242
5504.000000	2.119105
5502.000000	2.124054
5500.000000	2.127053
5498.000000	2.129283
5496.000000	2.132929
5494.000000	2.136750
5492.000000	2.140145
5490.000000	2.143924
5488.000000	2.148195
5486.000000	2.152301
5484.000000	2.156616
5482.000000	2.161345
5480.000000	2.165998
5478.000000	2.169779
5476.000000	2.172908
5474.000000	2.176761
5472.000000	2.181332
5470.000000	2.186065
5468.000000	2.190249
5466.000000	2.193352
5464.000000	2.195937
5462.000000	2.198876
5460.000000	2.202855
5458.000000	2.207450
5456.000000	2.212083
5454.000000	2.216848
5452.000000	2.221500
5450.000000	2.225404
5448.000000	2.227959
5446.000000	2.230203
5444.000000	2.232661
5442.000000	2.235767
5440.000000	2.239598
5438.000000	2.244083
5436.000000	2.248662
5434.000000	2.253149
5432.000000	2.257467
5430.000000	2.260999
5428.000000	2.264202
5426.000000	2.268189
5424.000000	2.273271
5422.000000	2.278535
5420.000000	2.283260
5418.000000	2.286955
5416.000000	2.289213
5414.000000	2.290747
5412.000000	2.293373
5410.000000	2.297843
5408.000000	2.302661
5406.000000	2.307386
5404.000000	2.312396
5402.000000	2.317586
5400.000000	2.321558
5398.000000	2.324404
5396.000000	2.327504
5394.000000	2.331279
5392.000000	2.334901
5390.000000	2.339227
5388.000000	2.343755
5386.000000	2.348307
5384.000000	2.352558
5382.000000	2.357112
5380.000000	2.361256
5378.000000	2.364191
5376.000000	2.367242
5374.000000	2.371873
5372.000000	2.377850
5370.000000	2.382954
5368.000000	2.386763
5366.000000	2.390469
5364.000000	2.394645
5362.000000	2.398650
5360.000000	2.402147
5358.000000	2.406026
5356.000000	2.409891
5354.000000	2.412531
5352.000000	2.414470
5350.000000	2.418123
5348.000000	2.423312
5346.000000	2.427525
5344.000000	2.429929
5342.000000	2.432474
5340.000000	2.436387
5338.000000	2.440844
5336.000000	2.445582
5334.000000	2.450189
5332.000000	2.454926
5330.000000	2.459314
5328.000000	2.463121
5326.000000	2.467075
5324.000000	2.471982
5322.000000	2.477492
5320.000000	2.482449
5318.000000	2.486966
5316.000000	2.491035
5314.000000	2.494242
5312.000000	2.497618
5310.000000	2.501387
5308.000000	2.505394
5306.000000	2.509138
5304.000000	2.513518
5302.000000	2.518543
5300.000000	2.523066
5298.000000	2.527235
5296.000000	2.531681
5294.000000	2.536138
5292.000000	2.539130
5290.000000	2.541570
5288.000000	2.545317
5286.000000	2.550438
5284.000000	2.555566
5282.000000	2.560344
5280.000000	2.564759
5278.000000	2.568809
5276.000000	2.572579
5274.000000	2.577021
5272.000000	2.581567
5270.000000	2.585383
5268.000000	2.588160
5266.000000	2.590242
5264.000000	2.593251
5262.000000	2.597796
5260.000000	2.603144
5258.000000	2.608320
5256.000000	2.611566
5254.000000	2.614206
5252.000000	2.617606
5250.000000	2.622403
5248.000000	2.626788
5246.000000	2.629408
5244.000000	2.632988
5242.000000	2.638824
5240.000000	2.644965
5238.000000	2.649978
5236.000000	2.653774
5234.000000	2.657809
5232.000000	2.661563
5230.000000	2.665644
5228.000000	2.668963
5226.000000	2.672037
5224.000000	2.675832
5222.000000	2.680934
5220.000000	2.685768
5218.000000	2.689802
5216.000000	2.694137
5214.000000	2.699116
5212.000000	2.703760
5210.000000	2.707165
5208.000000	2.709517
5206.000000	2.712406
5204.000000	2.717102
5202.000000	2.722974
5200.000000	2.728278
5198.000000	2.732267
5196.000000	2.735934
5194.000000	2.739541
5192.000000	2.744096
5190.000000	2.749303
5188.000000	2.754009
5186.000000	2.757645
5184.000000	2.761951
5182.000000	2.766623
5180.000000	2.770521
5178.000000	2.774337
5176.000000	2.779202
5174.000000	2.784432
5172.000000	2.788348
5170.000000	2.792230
5168.000000	2.796540
5166.000000	2.801448
5164.000000	2.805836
5162.000000	2.809512
5160.000000	2.812760
5158.000000	2.816505
5156.000000	2.820778
5154.000000	2.824894
5152.000000	2.829274
5150.000000	2.834003
5148.000000	2.839123
5146.000000	2.843623
5144.000000	2.848359
5142.000000	2.852865
5140.000000	2.856839
5138.000000	2.860878
5136.000000	2.864562
5134.000000	2.868173
5132.000000	2.871849
5130.000000	2.876658
5128.000000	2.881789
5126.000000	2.886086
5124.000000	2.889565
5122.000000	2.893164
5120.000000	2.897350
5118.000000	2.901536
5116.000000	2.905876
5114.000000	2.910811
5112.000000	2.915677
5110.000000	2.920042
5108.000000	2.924508
5106.000000	2.928936
5104.000000	2.933076
5102.000000	2.937826
5100.000000	2.943449
5098.000000	2.948363
5096.000000	2.951723
5094.000000	2.955185
5092.000000	2.959684
5090.000000	2.964588
5088.000000	2.968965
5086.000000	2.973078
5084.000000	2.977763
5082.000000	2.982776
5080.000000	2.987461
5078.000000	2.991574
5076.000000	2.995523
5074.000000	2.999998
5072.000000	3.004243
5070.000000	3.008203
5068.000000	3.012329
5066.000000	3.016466
5064.000000	3.020102
5062.000000	3.024229
5060.000000	3.029259
5058.000000	3.034435
5056.000000	3.039260
5054.000000	3.043841
5052.000000	3.047667
5050.000000	3.050817
5048.000000	3.054506
5046.000000	3.058708
5044.000000	3.062833
5042.000000	3.066945
5040.000000	3.071211
5038.000000	3.075716
5036.000000	3.080270
5034.000000	3.084627
5032.000000	3.088522
5030.000000	3.092488
5028.000000	3.097298
5026.000000	3.102899
5024.000000	3.107709
5022.000000	3.111273
5020.000000	3.115425
5018.000000	3.120368
5016.000000	3.124913
5014.000000	3.129225
5012.000000	3.134431
5010.000000	3.139085
5008.000000	3.142669
5006.000000	3.146603
5004.000000	3.150665
5002.000000	3.155138
5000.000000	3.159983
4998.000000	3.165055
4996.000000	3.169849
4994.000000	3.174724
4992.000000	3.179257
4990.000000	3.183174
4988.000000	3.187578
4986.000000	3.192464
4984.000000	3.197261
4982.000000	3.201882
4980.000000	3.206387
4978.000000	3.211097
4976.000000	3.216071
4974.000000	3.221093
4972.000000	3.225204
4970.000000	3.228542
4968.000000	3.232154
4966.000000	3.236473
4964.000000	3.241354
4962.000000	3.246051
4960.000000	3.250026
4958.000000	3.253752
4956.000000	3.257680
4954.000000	3.262314
4952.000000	3.267397
4950.000000	3.272474
4948.000000	3.276901
4946.000000	3.281239
4944.000000	3.286238
4942.000000	3.290337
4940.000000	3.293247
4938.000000	3.296144
4936.000000	3.300205
4934.000000	3.304581
4932.000000	3.309138
4930.000000	3.314140
4928.000000	3.319073
4926.000000	3.323507
4924.000000	3.327790
4922.000000	3.332594
4920.000000	3.337476
4918.000000	3.342510
4916.000000	3.347265
4914.000000	3.351484
4912.000000	3.355245
4910.000000	3.358994
4908.000000	3.363228
4906.000000	3.368852
4904.000000	3.375400
4902.000000	3.381122
4900.000000	3.385037
4898.000000	3.388469
4896.000000	3.392098
4894.000000	3.396302
4892.000000	3.400644
4890.000000	3.404754
4888.000000	3.408907
4886.000000	3.413625
4884.000000	3.418505
4882.000000	3.423836
4880.000000	3.429513
4878.000000	3.434428
4876.000000	3.438103
4874.000000	3.441888
4872.000000	3.446371
4870.000000	3.450834
4868.000000	3.455323
4866.000000	3.459875
4864.000000	3.464400
4862.000000	3.468628
4860.000000	3.472827
4858.000000	3.476937
4856.000000	3.481482
4854.000000	3.486477
4852.000000	3.491396
4850.000000	3.495588
4848.000000	3.499605
4846.000000	3.503623
4844.000000	3.507746
4842.000000	3.512179
4840.000000	3.516849
4838.000000	3.521782
4836.000000	3.526500
4834.000000	3.530900
4832.000000	3.535125
4830.000000	3.539775
4828.000000	3.544516
4826.000000	3.549218
4824.000000	3.553690
4822.000000	3.557947
4820.000000	3.562171
4818.000000	3.566880
4816.000000	3.571875
4814.000000	3.576140
4812.000000	3.579597
4810.000000	3.583959
4808.000000	3.589319
4806.000000	3.594504
4804.000000	3.599387
4802.000000	3.604725
4800.000000	3.609595
4798.000000	3.613452
4796.000000	3.617640
4794.000000	3.623016
4792.000000	3.628307
4790.000000	3.632719
4788.000000	3.637313
4786.000000	3.642508
4784.000000	3.647164
4782.000000	3.650990
4780.000000	3.654635
4778.000000	3.658534
4776.000000	3.663082
4774.000000	3.668528
4772.000000	3.674117
4770.000000	3.678512
4768.000000	3.682474
4766.000000	3.687362
4764.000000	3.692440
4762.000000	3.696561
4760.000000	3.700384
4758.000000	3.704635
4756.000000	3.708510
4754.000000	3.712297
4752.000000	3.717242
4750.000000	3.722935
4748.000000	3.727698
4746.000000	3.731919
4744.000000	3.736658
4742.000000	3.741639
4740.000000	3.746108
4738.000000	3.750944
4736.000000	3.755882
4734.000000	3.760567
4732.000000	3.764885
4730.000000	3.769358
4728.000000	3.773662
4726.000000	3.777970
4724.000000	3.782514
4722.000000	3.787248
4720.000000	3.791985
4718.000000	3.796863
4716.000000	3.801450
4714.000000	3.805522
4712.000000	3.810480
4710.000000	3.816557
4708.000000	3.822539
4706.000000	3.827558
4704.000000	3.831670
4702.000000	3.835369
4700.000000	3.840136
4698.000000	3.845770
4696.000000	3.850820
4694.000000	3.854958
4692.000000	3.859004
4690.000000	3.863940
4688.000000	3.869852
4686.000000	3.875236
4684.000000	3.879598
4682.000000	3.883877
4680.000000	3.888715
4678.000000	3.894050
4676.000000	3.899395
4674.000000	3.903811
4672.000000	3.907642
4670.000000	3.912035
4668.000000	3.916668
4666.000000	3.921222
4664.000000	3.926456
4662.000000	3.931700
4660.000000	3.936036
4658.000000	3.940067
4656.000000	3.944189
4654.000000	3.948603
4652.000000	3.953728
4650.000000	3.959371
4648.000000	3.964494
4646.000000	3.968757
4644.000000	3.973261
4642.000000	3.978401
4640.000000	3.983063
4638.000000	3.987264
4636.000000	3.991630
4634.000000	3.995927
4632.000000	4.000837
4630.000000	4.006589
4628.000000	4.012049
4626.000000	4.016694
4624.000000	4.021115
4622.000000	4.025577
4620.000000	4.029798
4618.000000	4.034399
4616.000000	4.039960
4614.000000	4.045057
4612.000000	4.049065
4610.000000	4.053567
4608.000000	4.058817
4606.000000	4.063671
4604.000000	4.068330
4602.000000	4.073849
4600.000000	4.079348
4598.000000	4.084106
4596.000000	4.088673
4594.000000	4.093372
4592.000000	4.098272
4590.000000	4.103815
4588.000000	4.109063
4586.000000	4.113883
4584.000000	4.119403
4582.000000	4.124994
4580.000000	4.129823
4578.000000	4.134190
4576.000000	4.138155
4574.000000	4.142810
4572.000000	4.148335
4570.000000	4.153259
4568.000000	4.157686
4566.000000	4.163077
4564.000000	4.168521
4562.000000	4.173067
4560.000000	4.177144
4558.000000	4.181860
4556.000000	4.187465
4554.000000	4.193169
4552.000000	4.197833
4550.000000	4.202162
4548.000000	4.207315
4546.000000	4.212973
4544.000000	4.218369
4542.000000	4.223613
4540.000000	4.228284
4538.000000	4.232225
4536.000000	4.236085
4534.000000	4.240486
4532.000000	4.245875
4530.000000	4.252015
4528.000000	4.257657
4526.000000	4.262123
4524.000000	4.266378
4522.000000	4.271553
4520.000000	4.277409
4518.000000	4.282043
4516.000000	4.285398
4514.000000	4.290108
4512.000000	4.296770
4510.000000	4.302432
4508.000000	4.306757
4506.000000	4.312017
4504.000000	4.317347
4502.000000	4.322433
4500.000000	4.327778
4498.000000	4.333074
4496.000000	4.337596
4494.000000	4.342261
4492.000000	4.347208
4490.000000	4.352830
4488.000000	4.357748
4486.000000	4.362109
4484.000000	4.366977
4482.000000	4.372304
4480.000000	4.377580
4478.000000	4.382631
4476.000000	4.386407
4474.000000	4.389659
4472.000000	4.394230
4470.000000	4.399639
4468.000000	4.404792
4466.000000	4.409411
4464.000000	4.414102
4462.000000	4.419474
4460.000000	4.425129
4458.000000	4.429997
4456.000000	4.434488
4454.000000	4.438847
4452.000000	4.443137
4450.000000	4.448163
4448.000000	4.453576
4446.000000	4.457898
4444.000000	4.462031
4442.000000	4.467496
4440.000000	4.473450
4438.000000	4.478981
4436.000000	4.484151
4434.000000	4.488852
4432.000000	4.493298
4430.000000	4.498100
4428.000000	4.502814
4426.000000	4.507301
4424.000000	4.512459
4422.000000	4.518140
4420.000000	4.523195
4418.000000	4.528092
4416.000000	4.533532
4414.000000	4.538683
4412.000000	4.543344
4410.000000	4.548094
4408.000000	4.553031
4406.000000	4.558115
4404.000000	4.562940
4402.000000	4.567353
4400.000000	4.571689
4398.000000	4.576734
4396.000000	4.582421
4394.000000	4.588068
4392.000000	4.593294
4390.000000	4.597807
4388.000000	4.601621
4386.000000	4.605627
4384.000000	4.609940
4382.000000	4.615018
4380.000000	4.620213
4378.000000	4.624171
4376.000000	4.628223
4374.000000	4.634159
4372.000000	4.639675
4370.000000	4.643454
4368.000000	4.647168
4366.000000	4.652236
4364.000000	4.657900
4362.000000	4.662629
4360.000000	4.666292
4358.000000	4.670389
4356.000000	4.674798
4354.000000	4.679379
4352.000000	4.684843
4350.000000	4.690675
4348.000000	4.696239
4346.000000	4.701507
4344.000000	4.705949
4342.000000	4.710386
4340.000000	4.715570
4338.000000	4.720787
4336.000000	4.725670
4334.000000	4.730662
4332.000000	4.735609
4330.000000	4.740318
4328.000000	4.744854
4326.000000	4.749929
4324.000000	4.755322
4322.000000	4.760409
4320.000000	4.765672
4318.000000	4.771464
4316.000000	4.777218
4314.000000	4.782988
4312.000000	4.788818
4310.000000	4.794238
4308.000000	4.799373
4306.000000	4.804455
4304.000000	4.809097
4302.000000	4.813894
4300.000000	4.819411
4298.000000	4.824459
4296.000000	4.829175
4294.000000	4.834750
4292.000000	4.840516
4290.000000	4.845648
4288.000000	4.850167
4286.000000	4.854623
4284.000000	4.859052
4282.000000	4.863483
4280.000000	4.867936
4278.000000	4.872771
4276.000000	4.877359
4274.000000	4.881502
4272.000000	4.885856
4270.000000	4.890161
4268.000000	4.894519
4266.000000	4.900102
4264.000000	4.905363
4262.000000	4.909212
4260.000000	4.913372
4258.000000	4.918358
4256.000000	4.923334
4254.000000	4.928110
4252.000000	4.933005
4250.000000	4.938470
4248.000000	4.944317
4246.000000	4.949885
4244.000000	4.955475
4242.000000	4.960727
4240.000000	4.965930
4238.000000	4.971674
4236.000000	4.976942
4234.000000	4.981696
4232.000000	4.986927
4230.000000	4.991410
4228.000000	4.994942
4226.000000	4.999752
4224.000000	5.006203
4222.000000	5.012688
4220.000000	5.018157
4218.000000	5.022271
4216.000000	5.026526
4214.000000	5.032464
4212.000000	5.038780
4210.000000	5.043689
4208.000000	5.047618
4206.000000	5.051897
4204.000000	5.056987
4202.000000	5.062899
4200.000000	5.069489
4198.000000	5.075402
4196.000000	5.079887
4194.000000	5.084591
4192.000000	5.090256
4190.000000	5.095099
4188.000000	5.099888
4186.000000	5.105378
4184.000000	5.110531
4182.000000	5.115731
4180.000000	5.120961
4178.000000	5.125329
4176.000000	5.129883
4174.000000	5.135589
4172.000000	5.141832
4170.000000	5.147262
4168.000000	5.151946
4166.000000	5.156627
4164.000000	5.161802
4162.000000	5.167522
4160.000000	5.173457
4158.000000	5.178289
4156.000000	5.182497
4154.000000	5.187707
4152.000000	5.193189
4150.000000	5.198044
4148.000000	5.202973
4146.000000	5.208863
4144.000000	5.215041
4142.000000	5.220018
4140.000000	5.224682
4138.000000	5.230575
4136.000000	5.236543
4134.000000	5.241864
4132.000000	5.247056
4130.000000	5.251808
4128.000000	5.256698
4126.000000	5.263019
4124.000000	5.268932
4122.000000	5.273306
4120.000000	5.277969
4118.000000	5.283729
4116.000000	5.290315
4114.000000	5.297216
4112.000000	5.302911
4110.000000	5.306999
4108.000000	5.311239
4106.000000	5.316579
4104.000000	5.321996
4102.000000	5.327340
4100.000000	5.332906
4098.000000	5.337669
4096.000000	5.341768
4094.000000	5.346647
4092.000000	5.351823
4090.000000	5.356689
4088.000000	5.361599
4086.000000	5.366994
4084.000000	5.372642
4082.000000	5.378067
4080.000000	5.383393
4078.000000	5.388801
4076.000000	5.394283
4074.000000	5.400037
4072.000000	5.405482
4070.000000	5.410367
4068.000000	5.415783
4066.000000	5.421439
4064.000000	5.426240
4062.000000	5.430953
4060.000000	5.436221
4058.000000	5.441887
4056.000000	5.447844
4054.000000	5.453540
4052.000000	5.458637
4050.000000	5.463737
4048.000000	5.468814
4046.000000	5.473525
4044.000000	5.478924
4042.000000	5.485026
4040.000000	5.490879
4038.000000	5.496509
4036.000000	5.502097
4034.000000	5.507944
4032.000000	5.513071
4030.000000	5.517626
4028.000000	5.523856
4026.000000	5.530150
4024.000000	5.534512
4022.000000	5.539275
4020.000000	5.544929
4018.000000	5.551191
4016.000000	5.557755
4014.000000	5.563422
4012.000000	5.569088
4010.000000	5.575174
4008.000000	5.580722
4006.000000	5.586152
4004.000000	5.591619
4002.000000	5.597278
4000.000000	5.602862
3998.000000	5.607389
3996.000000	5.611717
3994.000000	5.616655
3992.000000	5.621388
3990.000000	5.625924
3988.000000	5.630968
3986.000000	5.637090
3984.000000	5.643093
3982.000000	5.647813
3980.000000	5.652160
3978.000000	5.657460
3976.000000	5.662473
3974.000000	5.666301
3972.000000	5.671571
3970.000000	5.678108
3968.000000	5.683698
3966.000000	5.688649
3964.000000	5.693168
3962.000000	5.697693
3960.000000	5.702933
3958.000000	5.708653
3956.000000	5.713793
3954.000000	5.718650
3952.000000	5.723340
3950.000000	5.725923
3948.000000	5.728320
3946.000000	5.734129
3944.000000	5.740342
3942.000000	5.744616
3940.000000	5.750857
3938.000000	5.759601
3936.000000	5.766803
3934.000000	5.768517
3932.000000	5.766327
3930.000000	5.770150
3928.000000	5.781110
3926.000000	5.788305
3924.000000	5.790919
3922.000000	5.795269
3920.000000	5.798573
3918.000000	5.799318
3916.000000	5.805030
3914.000000	5.818239
3912.000000	5.831986
3910.000000	5.840519
3908.000000	5.841668
3906.000000	5.830486
3904.000000	5.809801
3902.000000	5.797595
3900.000000	5.804354
3898.000000	5.826501
3896.000000	5.854198
3894.000000	5.868507
3892.000000	5.861911
3890.000000	5.857503
3888.000000	5.863742
3886.000000	5.859399
3884.000000	5.856352
3882.000000	5.871258
3880.000000	5.885176
3878.000000	5.897305
3876.000000	5.909256
3874.000000	5.907496
3872.000000	5.892758
3870.000000	5.874318
3868.000000	5.875672
3866.000000	5.896700
3864.000000	5.909087
3862.000000	5.920040
3860.000000	5.940775
3858.000000	5.949606
3856.000000	5.909753
3854.000000	5.828447
3852.000000	5.802520
3850.000000	5.876753
3848.000000	5.962721
3846.000000	5.994565
3844.000000	5.991816
3842.000000	5.981966
3840.000000	5.961882
3838.000000	5.930944
3836.000000	5.928430
3834.000000	5.965416
3832.000000	5.999354
3830.000000	6.018266
3828.000000	6.033496
3826.000000	6.041610
3824.000000	6.037543
3822.000000	6.015543
3820.000000	5.999028
3818.000000	6.002468
3816.000000	6.001020
3814.000000	6.017628
3812.000000	6.066329
3810.000000	6.092276
3808.000000	6.073917
3806.000000	6.053613
3804.000000	6.053902
3802.000000	6.042312
3800.000000	6.034919
3798.000000	6.068010
3796.000000	6.103906
3794.000000	6.123062
3792.000000	6.140331
3790.000000	6.151628
3788.000000	6.155640
3786.000000	6.157027
3784.000000	6.158962
3782.000000	6.160888
3780.000000	6.158643
3778.000000	6.160541
3776.000000	6.174885
3774.000000	6.188412
3772.000000	6.186056
3770.000000	6.173130
3768.000000	6.170855
3766.000000	6.182726
3764.000000	6.196202
3762.000000	6.204862
3760.000000	6.202540
3758.000000	6.198735
3756.000000	6.202295
3754.000000	6.184020
3752.000000	6.129810
3750.000000	6.092352
3748.000000	6.109027
3746.000000	6.121117
3744.000000	6.103697
3742.000000	6.139724
3740.000000	6.214616
3738.000000	6.231506
3736.000000	6.203558
3734.000000	6.193294
3732.000000	6.212141
3730.000000	6.247050
3728.000000	6.277994
3726.000000	6.286655
3724.000000	6.287759
3722.000000	6.295286
3720.000000	6.306935
3718.000000	6.320979
3716.000000	6.328648
3714.000000	6.314621
3712.000000	6.284076
3710.000000	6.277240
3708.000000	6.308427
3706.000000	6.343739
3704.000000	6.356801
3702.000000	6.352613
3700.000000	6.354599
3698.000000	6.369901
3696.000000	6.382250
3694.000000	6.382300
3692.000000	6.364990
3690.000000	6.327216
3688.000000	6.302256
3686.000000	6.333059
3684.000000	6.388542
3682.000000	6.413358
3680.000000	6.408599
3678.000000	6.380531
3676.000000	6.331986
3674.000000	6.314643
3672.000000	6.335245
3670.000000	6.342677
3668.000000	6.364141
3666.000000	6.416508
3664.000000	6.451246
3662.000000	6.459801
3660.000000	6.459691
3658.000000	6.447244
3656.000000	6.428705
3654.000000	6.428573
3652.000000	6.423763
3650.000000	6.385526
3648.000000	6.364807
3646.000000	6.401147
3644.000000	6.453292
3642.000000	6.480072
3640.000000	6.487455
3638.000000	6.490733
3636.000000	6.491275
3634.000000	6.487165
3632.000000	6.471904
3630.000000	6.432066
3628.000000	6.403514
3626.000000	6.436654
3624.000000	6.487588
3622.000000	6.497358
3620.000000	6.476098
3618.000000	6.463755
3616.000000	6.475832
3614.000000	6.486146
3612.000000	6.481847
3610.000000	6.473917
3608.000000	6.472950
3606.000000	6.489159
3604.000000	6.510614
3602.000000	6.518424
3600.000000	6.516566
3598.000000	6.514587
3596.000000	6.512570
3594.000000	6.512233
3592.000000	6.516167
3590.000000	6.511422
3588.000000	6.493425
3586.000000	6.489038
3584.000000	6.508685
3582.000000	6.527290
3580.000000	6.532136
3578.000000	6.531799
3576.000000	6.532522
3574.000000	6.534234
3572.000000	6.534666
3570.000000	6.526346
3568.000000	6.507377
3566.000000	6.497504
3564.000000	6.509317
3562.000000	6.524965
3560.000000	6.531812
3558.000000	6.534857
3556.000000	6.536698
3554.000000	6.535033
3552.000000	6.530865
3550.000000	6.528877
3548.000000	6.526547
3546.000000	6.520850
3544.000000	6.519755
3542.000000	6.525306
3540.000000	6.530090
3538.000000	6.530082
3536.000000	6.527402
3534.000000	6.526212
3532.000000	6.525020
3530.000000	6.519778
3528.000000	6.512905
3526.000000	6.508482
3524.000000	6.505508
3522.000000	6.502902
3520.000000	6.501788
3518.000000	6.500541
3516.000000	6.498312
3514.000000	6.495128
3512.000000	6.489902
3510.000000	6.483226
3508.000000	6.478189
3506.000000	6.474361
3504.000000	6.467067
3502.000000	6.459249
3500.000000	6.454889
3498.000000	6.450456
3496.000000	6.444309
3494.000000	6.438076
3492.000000	6.433019
3490.000000	6.427884
3488.000000	6.421836
3486.000000	6.415658
3484.000000	6.409210
3482.000000	6.402768
3480.000000	6.398685
3478.000000	6.397048
3476.000000	6.394566
3474.000000	6.390998
3472.000000	6.389513
3470.000000	6.388809
3468.000000	6.386417
3466.000000	6.383560
3464.000000	6.382909
3462.000000	6.382831
3460.000000	6.382672
3458.000000	6.382916
3456.000000	6.381909
3454.000000	6.380256
3452.000000	6.379206
3450.000000	6.376593
3448.000000	6.371125
3446.000000	6.365653
3444.000000	6.363782
3442.000000	6.363452
3440.000000	6.363880
3438.000000	6.365824
3436.000000	6.367659
3434.000000	6.370352
3432.000000	6.374335
3430.000000	6.379299
3428.000000	6.385295
3426.000000	6.390809
3424.000000	6.395376
3422.000000	6.398504
3420.000000	6.400835
3418.000000	6.404427
3416.000000	6.408798
3414.000000	6.411945
3412.000000	6.414609
3410.000000	6.416902
3408.000000	6.418552
3406.000000	6.419867
3404.000000	6.420913
3402.000000	6.421451
3400.000000	6.422486
3398.000000	6.425381
3396.000000	6.428820
3394.000000	6.432035
3392.000000	6.435508
3390.000000	6.438997
3388.000000	6.442846
3386.000000	6.446835
3384.000000	6.449619
3382.000000	6.452004
3380.000000	6.454498
3378.000000	6.456935
3376.000000	6.459444
3374.000000	6.461194
3372.000000	6.463309
3370.000000	6.465743
3368.000000	6.466820
3366.000000	6.466929
3364.000000	6.469164
3362.000000	6.472893
3360.000000	6.475595
3358.000000	6.476917
3356.000000	6.478267
3354.000000	6.481230
3352.000000	6.484247
3350.000000	6.485608
3348.000000	6.487412
3346.000000	6.490412
3344.000000	6.493662
3342.000000	6.496191
3340.000000	6.497911
3338.000000	6.499360
3336.000000	6.501347
3334.000000	6.503404
3332.000000	6.505160
3330.000000	6.507012
3328.000000	6.509119
3326.000000	6.510613
3324.000000	6.512050
3322.000000	6.512891
3320.000000	6.513069
3318.000000	6.514463
3316.000000	6.516374
3314.000000	6.517658
3312.000000	6.518679
3310.000000	6.519227
3308.000000	6.519325
3306.000000	6.519184
3304.000000	6.519443
3302.000000	6.520696
3300.000000	6.522288
3298.000000	6.523738
3296.000000	6.524813
3294.000000	6.525515
3292.000000	6.526450
3290.000000	6.527745
3288.000000	6.529753
3286.000000	6.531799
3284.000000	6.532971
3282.000000	6.534613
3280.000000	6.536514
3278.000000	6.538012
3276.000000	6.539684
3274.000000	6.541594
3272.000000	6.543786
3270.000000	6.546475
3268.000000	6.549215
3266.000000	6.550975
3264.000000	6.553479
3262.000000	6.556964
3260.000000	6.559480
3258.000000	6.560970
3256.000000	6.563093
3254.000000	6.566098
3252.000000	6.569210
3250.000000	6.572346
3248.000000	6.575685
3246.000000	6.578474
3244.000000	6.580967
3242.000000	6.584868
3240.000000	6.588994
3238.000000	6.591991
3236.000000	6.594526
3234.000000	6.597097
3232.000000	6.599983
3230.000000	6.603323
3228.000000	6.606940
3226.000000	6.610793
3224.000000	6.614403
3222.000000	6.616936
3220.000000	6.619991
3218.000000	6.623289
3216.000000	6.626170
3214.000000	6.629346
3212.000000	6.633051
3210.000000	6.636701
3208.000000	6.641334
3206.000000	6.646507
3204.000000	6.651357
3202.000000	6.656613
3200.000000	6.661762
3198.000000	6.666830
3196.000000	6.671844
3194.000000	6.677561
3192.000000	6.684780
3190.000000	6.691853
3188.000000	6.697668
3186.000000	6.702437
3184.000000	6.707461
3182.000000	6.712775
3180.000000	6.716926
3178.000000	6.720958
3176.000000	6.726756
3174.000000	6.732929
3172.000000	6.739004
3170.000000	6.744851
3168.000000	6.750085
3166.000000	6.755488
3164.000000	6.760687
3162.000000	6.765569
3160.000000	6.770959
3158.000000	6.777134
3156.000000	6.783018
3154.000000	6.787657
3152.000000	6.792295
3150.000000	6.797141
3148.000000	6.802380
3146.000000	6.807828
3144.000000	6.813360
3142.000000	6.818750
3140.000000	6.823360
3138.000000	6.827388
3136.000000	6.831380
3134.000000	6.834795
3132.000000	6.838558
3130.000000	6.843911
3128.000000	6.848515
3126.000000	6.850464
3124.000000	6.852775
3122.000000	6.856315
3120.000000	6.859596
3118.000000	6.862956
3116.000000	6.866404
3114.000000	6.870179
3112.000000	6.874844
3110.000000	6.878385
3108.000000	6.880739
3106.000000	6.884397
3104.000000	6.889062
3102.000000	6.892920
3100.000000	6.896353
3098.000000	6.900410
3096.000000	6.904690
3094.000000	6.909357
3092.000000	6.914585
3090.000000	6.919079
3088.000000	6.924008
3086.000000	6.929144
3084.000000	6.932674
3082.000000	6.935069
3080.000000	6.938104
3078.000000	6.941541
3076.000000	6.944485
3074.000000	6.947326
3072.000000	6.949186
3070.000000	6.950229
3068.000000	6.951131
3066.000000	6.953203
3064.000000	6.956385
3062.000000	6.959057
3060.000000	6.962850
3058.000000	6.967274
3056.000000	6.971376
3054.000000	6.977083
3052.000000	6.982982
3050.000000	6.987026
3048.000000	6.990940
3046.000000	6.995207
3044.000000	6.998116
3042.000000	6.999890
3040.000000	7.001983
3038.000000	7.003487
3036.000000	7.004095
3034.000000	7.004706
3032.000000	7.005026
3030.000000	7.004561
3028.000000	7.001315
3026.000000	6.993721
3024.000000	6.984194
3022.000000	6.974707
3020.000000	6.967673
3018.000000	6.965451
3016.000000	6.971262
3014.000000	6.985891
3012.000000	7.006243
3010.000000	7.029065
3008.000000	7.050438
3006.000000	7.065939
3004.000000	7.077878
3002.000000	7.087936
3000.000000	7.091926
2998.000000	7.093460
2996.000000	7.096540
2994.000000	7.098831
2992.000000	7.100129
2990.000000	7.100372
2988.000000	7.099510
2986.000000	7.098020
2984.000000	7.094975
2982.000000	7.088573
2980.000000	7.078463
2978.000000	7.065614
2976.000000	7.048857
2974.000000	7.025285
2972.000000	6.995004
2970.000000	6.957399
2968.000000	6.912957
2966.000000	6.868341
2964.000000	6.832217
2962.000000	6.810855
2960.000000	6.807407
2958.000000	6.818907
2956.000000	6.838856
2954.000000	6.860049
2952.000000	6.877160
2950.000000	6.888037
2948.000000	6.892376
2946.000000	6.887170
2944.000000	6.870320
2942.000000	6.843290
2940.000000	6.808617
2938.000000	6.770238
2936.000000	6.732705
2934.000000	6.698608
2932.000000	6.667631
2930.000000	6.637246
2928.000000	6.608781
2926.000000	6.588553
2924.000000	6.585140
2922.000000	6.605842
2920.000000	6.649693
2918.000000	6.708066
2916.000000	6.772510
2914.000000	6.837152
2912.000000	6.895280
2910.000000	6.942016
2908.000000	6.978286
2906.000000	7.007442
2904.000000	7.032746
2902.000000	7.056341
2900.000000	7.077431
2898.000000	7.095997
2896.000000	7.113588
2894.000000	7.130295
2892.000000	7.146754
2890.000000	7.162586
2888.000000	7.177376
2886.000000	7.189035
2884.000000	7.197050
2882.000000	7.202890
2880.000000	7.205300
2878.000000	7.203734
2876.000000	7.198134
2874.000000	7.187098
2872.000000	7.171394
2870.000000	7.149238
2868.000000	7.118066
2866.000000	7.077307
2864.000000	7.032867
2862.000000	6.997146
2860.000000	6.980865
2858.000000	6.985941
2856.000000	7.006031
2854.000000	7.032269
2852.000000	7.061629
2850.000000	7.096392
2848.000000	7.138835
2846.000000	7.186885
2844.000000	7.232631
2842.000000	7.269638
2840.000000	7.298324
2838.000000	7.321087
2836.000000	7.339480
2834.000000	7.354503
2832.000000	7.367358
2830.000000	7.378382
2828.000000	7.388649
2826.000000	7.398349
2824.000000	7.406988
2822.000000	7.414674
2820.000000	7.422015
2818.000000	7.428430
2816.000000	7.433878
2814.000000	7.438611
2812.000000	7.443366
2810.000000	7.448318
2808.000000	7.452810
2806.000000	7.457369
2804.000000	7.461294
2802.000000	7.464213
2800.000000	7.467383
2798.000000	7.470523
2796.000000	7.473688
2794.000000	7.476571
2792.000000	7.480034
2790.000000	7.484304
2788.000000	7.488926
2786.000000	7.494803
2784.000000	7.501463
2782.000000	7.509022
2780.000000	7.515647
2778.000000	7.520553
2776.000000	7.525660
2774.000000	7.529957
2772.000000	7.534523
2770.000000	7.539358
2768.000000	7.543868
2766.000000	7.547727
2764.000000	7.551297
2762.000000	7.554912
2760.000000	7.558367
2758.000000	7.561332
2756.000000	7.564245
2754.000000	7.567728
2752.000000	7.571257
2750.000000	7.573965
2748.000000	7.575779
2746.000000	7.577655
2744.000000	7.580505
2742.000000	7.584428
2740.000000	7.587387
2738.000000	7.588669
2736.000000	7.590038
2734.000000	7.592004
2732.000000	7.594963
2730.000000	7.597522
2728.000000	7.599453
2726.000000	7.601680
2724.000000	7.603864
2722.000000	7.605361
2720.000000	7.607021
2718.000000	7.609085
2716.000000	7.610438
2714.000000	7.611892
2712.000000	7.612636
2710.000000	7.611940
2708.000000	7.612130
2706.000000	7.612797
2704.000000	7.613793
2702.000000	7.615081
2700.000000	7.616758
2698.000000	7.618822
2696.000000	7.620670
2694.000000	7.621980
2692.000000	7.624267
2690.000000	7.626791
2688.000000	7.627989
2686.000000	7.629567
2684.000000	7.631863
2682.000000	7.632888
2680.000000	7.634353
2678.000000	7.636222
2676.000000	7.638035
2674.000000	7.639287
2672.000000	7.639873
2670.000000	7.640823
2668.000000	7.642170
2666.000000	7.642698
2664.000000	7.644026
2662.000000	7.645064
2660.000000	7.646219
2658.000000	7.647595
2656.000000	7.649028
2654.000000	7.650762
2652.000000	7.652254
2650.000000	7.653533
2648.000000	7.654520
2646.000000	7.655592
2644.000000	7.657870
2642.000000	7.659644
2640.000000	7.660809
2638.000000	7.662516
2636.000000	7.664209
2634.000000	7.666335
2632.000000	7.668414
2630.000000	7.669314
2628.000000	7.671093
2626.000000	7.673394
2624.000000	7.675265
2622.000000	7.676883
2620.000000	7.678952
2618.000000	7.680296
2616.000000	7.681387
2614.000000	7.682841
2612.000000	7.684275
2610.000000	7.685480
2608.000000	7.686560
2606.000000	7.687234
2604.000000	7.687328
2602.000000	7.687388
2600.000000	7.688230
2598.000000	7.689238
2596.000000	7.689173
2594.000000	7.688929
2592.000000	7.688332
2590.000000	7.688570
2588.000000	7.691388
2586.000000	7.694221
2584.000000	7.697321
2582.000000	7.701222
2580.000000	7.704910
2578.000000	7.708348
2576.000000	7.711738
2574.000000	7.714319
2572.000000	7.716872
2570.000000	7.719710
2568.000000	7.722264
2566.000000	7.724539
2564.000000	7.726270
2562.000000	7.726752
2560.000000	7.728053
2558.000000	7.730866
2556.000000	7.733361
2554.000000	7.735114
2552.000000	7.737211
2550.000000	7.739412
2548.000000	7.740648
2546.000000	7.741729
2544.000000	7.743020
2542.000000	7.744344
2540.000000	7.746704
2538.000000	7.749254
2536.000000	7.751223
2534.000000	7.753245
2532.000000	7.755581
2530.000000	7.757700
2528.000000	7.759926
2526.000000	7.761563
2524.000000	7.763157
2522.000000	7.764500
2520.000000	7.765324
2518.000000	7.767171
2516.000000	7.769282
2514.000000	7.770778
2512.000000	7.772246
2510.000000	7.773806
2508.000000	7.776371
2506.000000	7.778348
2504.000000	7.779381
2502.000000	7.780485
2500.000000	7.781808
2498.000000	7.783536
2496.000000	7.785619
2494.000000	7.787692
2492.000000	7.789042
2490.000000	7.789677
2488.000000	7.791126
2486.000000	7.792880
2484.000000	7.795100
2482.000000	7.796770
2480.000000	7.797780
2478.000000	7.799864
2476.000000	7.802703
2474.000000	7.804472
2472.000000	7.804721
2470.000000	7.806017
2468.000000	7.807660
2466.000000	7.807935
2464.000000	7.807980
2462.000000	7.808253
2460.000000	7.809620
2458.000000	7.811631
2456.000000	7.812524
2454.000000	7.812156
2452.000000	7.812217
2450.000000	7.812863
2448.000000	7.813037
2446.000000	7.812629
2444.000000	7.812204
2442.000000	7.812294
2440.000000	7.813642
2438.000000	7.815237
2436.000000	7.816148
2434.000000	7.816470
2432.000000	7.816896
2430.000000	7.817286
2428.000000	7.816851
2426.000000	7.815243
2424.000000	7.813895
2422.000000	7.812393
2420.000000	7.810036
2418.000000	7.807628
2416.000000	7.805875
2414.000000	7.804913
2412.000000	7.804471
2410.000000	7.804949
2408.000000	7.806639
2406.000000	7.808157
2404.000000	7.810629
2402.000000	7.814181
2400.000000	7.815748
2398.000000	7.816977
2396.000000	7.819816
2394.000000	7.822173
2392.000000	7.824147
2390.000000	7.825980
2388.000000	7.827235
2386.000000	7.827136
2384.000000	7.827531
2382.000000	7.827130
2380.000000	7.823860
2378.000000	7.817847
2376.000000	7.807563
2374.000000	7.792582
2372.000000	7.775071
2370.000000	7.756849
2368.000000	7.738918
2366.000000	7.722529
2364.000000	7.709912
2362.000000	7.704294
2360.000000	7.706362
2358.000000	7.715442
2356.000000	7.731639
2354.000000	7.754477
2352.000000	7.781567
2350.000000	7.806802
2348.000000	7.815147
2346.000000	7.801254
2344.000000	7.780500
2342.000000	7.764198
2340.000000	7.753143
2338.000000	7.748453
2336.000000	7.748883
2334.000000	7.750423
2332.000000	7.753532
2330.000000	7.760396
2328.000000	7.769257
2326.000000	7.777477
2324.000000	7.786858
2322.000000	7.796724
2320.000000	7.804894
2318.000000	7.812484
2316.000000	7.820985
2314.000000	7.827918
2312.000000	7.833263
2310.000000	7.838039
2308.000000	7.842584
2306.000000	7.846388
2304.000000	7.848360
2302.000000	7.850002
2300.000000	7.852572
2298.000000	7.854286
2296.000000	7.855586
2294.000000	7.856474
2292.000000	7.857254
2290.000000	7.858445
2288.000000	7.859684
2286.000000	7.859494
2284.000000	7.858459
2282.000000	7.858031
2280.000000	7.857559
2278.000000	7.857387
2276.000000	7.857077
2274.000000	7.856257
2272.000000	7.855813
2270.000000	7.855973
2268.000000	7.856407
2266.000000	7.856518
2264.000000	7.856313
2262.000000	7.856020
2260.000000	7.856779
2258.000000	7.856896
2256.000000	7.856309
2254.000000	7.856597
2252.000000	7.857759
2250.000000	7.858406
2248.000000	7.859114
2246.000000	7.861462
2244.000000	7.864222
2242.000000	7.866433
2240.000000	7.867857
2238.000000	7.868698
2236.000000	7.870058
2234.000000	7.871072
2232.000000	7.871906
2230.000000	7.873142
2228.000000	7.875048
2226.000000	7.877007
2224.000000	7.879361
2222.000000	7.881871
2220.000000	7.883452
2218.000000	7.883855
2216.000000	7.884670
2214.000000	7.885467
2212.000000	7.886557
2210.000000	7.888016
2208.000000	7.889177
2206.000000	7.889986
2204.000000	7.891600
2202.000000	7.893581
2200.000000	7.894946
2198.000000	7.894451
2196.000000	7.894552
2194.000000	7.895622
2192.000000	7.896450
2190.000000	7.897923
2188.000000	7.899098
2186.000000	7.898565
2184.000000	7.898810
2182.000000	7.899462
2180.000000	7.900022
2178.000000	7.900486
2176.000000	7.901394
2174.000000	7.902340
2172.000000	7.901886
2170.000000	7.899849
2168.000000	7.899736
2166.000000	7.903131
2164.000000	7.906117
2162.000000	7.906066
2160.000000	7.904965
2158.000000	7.904807
2156.000000	7.906469
2154.000000	7.908432
2152.000000	7.908697
2150.000000	7.908253
2148.000000	7.908777
2146.000000	7.909258
2144.000000	7.910453
2142.000000	7.912206
2140.000000	7.912657
2138.000000	7.911579
2136.000000	7.911975
2134.000000	7.914862
2132.000000	7.916260
2130.000000	7.915747
2128.000000	7.915574
2126.000000	7.915167
2124.000000	7.915570
2122.000000	7.915769
2120.000000	7.915522
2118.000000	7.917707
2116.000000	7.920324
2114.000000	7.921388
2112.000000	7.921831
2110.000000	7.921921
2108.000000	7.923790
2106.000000	7.926241
2104.000000	7.927782
2102.000000	7.928248
2100.000000	7.928825
2098.000000	7.929809
2096.000000	7.932106
2094.000000	7.933979
2092.000000	7.934710
2090.000000	7.936035
2088.000000	7.938142
2086.000000	7.939290
2084.000000	7.940558
2082.000000	7.942034
2080.000000	7.943691
2078.000000	7.945839
2076.000000	7.947478
2074.000000	7.948409
2072.000000	7.951402
2070.000000	7.954917
2068.000000	7.957106
2066.000000	7.957150
2064.000000	7.958316
2062.000000	7.961712
2060.000000	7.964771
2058.000000	7.966199
2056.000000	7.967496
2054.000000	7.968677
2052.000000	7.970558
2050.000000	7.973405
2048.000000	7.976031
2046.000000	7.978300
2044.000000	7.980021
2042.000000	7.980551
2040.000000	7.982440
2038.000000	7.985315
2036.000000	7.987365
2034.000000	7.988595
2032.000000	7.989139
2030.000000	7.987805
2028.000000	7.987709
2026.000000	7.991099
2024.000000	7.993717
2022.000000	7.994435
2020.000000	7.994645
2018.000000	7.993952
2016.000000	7.995225
2014.000000	7.998643
2012.000000	8.001466
2010.000000	8.003619
2008.000000	8.004895
2006.000000	8.006215
2004.000000	8.007496
2002.000000	8.007177
2000.000000	8.006855
1998.000000	8.006761
1996.000000	8.008640
1994.000000	8.008078
1992.000000	8.003180
1990.000000	8.004033
1988.000000	8.008177
1986.000000	8.009865
1984.000000	8.010676
1982.000000	8.009131
1980.000000	8.008336
1978.000000	8.008958
1976.000000	8.008663
1974.000000	8.006676
1972.000000	8.004849
1970.000000	8.001960
1968.000000	7.996482
1966.000000	7.994150
1964.000000	7.996536
1962.000000	7.993415
1960.000000	7.983282
1958.000000	7.977053
1956.000000	7.983117
1954.000000	7.987339
1952.000000	7.986297
1950.000000	7.984192
1948.000000	7.981839
1946.000000	7.977551
1944.000000	7.969430
1942.000000	7.962715
1940.000000	7.967973
1938.000000	7.972631
1936.000000	7.972153
1934.000000	7.969909
1932.000000	7.966946
1930.000000	7.964441
1928.000000	7.962576
1926.000000	7.958001
1924.000000	7.949544
1922.000000	7.943062
1920.000000	7.936573
1918.000000	7.922017
1916.000000	7.924563
1914.000000	7.934340
1912.000000	7.931205
1910.000000	7.922815
1908.000000	7.917823
1906.000000	7.916752
1904.000000	7.914103
1902.000000	7.909939
1900.000000	7.906264
1898.000000	7.902254
1896.000000	7.896475
1894.000000	7.892235
1892.000000	7.889165
1890.000000	7.879427
1888.000000	7.877177
1886.000000	7.883983
1884.000000	7.884964
1882.000000	7.883797
1880.000000	7.883410
1878.000000	7.882572
1876.000000	7.881693
1874.000000	7.879073
1872.000000	7.869317
1870.000000	7.844524
1868.000000	7.830949
1866.000000	7.847738
1864.000000	7.862292
1862.000000	7.864237
1860.000000	7.861508
1858.000000	7.859167
1856.000000	7.857631
1854.000000	7.855703
1852.000000	7.852380
1850.000000	7.846568
1848.000000	7.835181
1846.000000	7.806205
1844.000000	7.770881
1842.000000	7.790767
1840.000000	7.823624
1838.000000	7.823702
1836.000000	7.818065
1834.000000	7.813707
1832.000000	7.796963
1830.000000	7.768166
1828.000000	7.766493
1826.000000	7.769057
1824.000000	7.765090
1822.000000	7.775662
1820.000000	7.778130
1818.000000	7.771842
1816.000000	7.765112
1814.000000	7.759363
1812.000000	7.745976
1810.000000	7.734365
1808.000000	7.733348
1806.000000	7.731681
1804.000000	7.720681
1802.000000	7.699197
1800.000000	7.682040
1798.000000	7.682869
1796.000000	7.679884
1794.000000	7.643781
1792.000000	7.604127
1790.000000	7.622567
1788.000000	7.650022
1786.000000	7.640006
1784.000000	7.623018
1782.000000	7.617017
1780.000000	7.608511
1778.000000	7.606248
1776.000000	7.592007
1774.000000	7.536320
1772.000000	7.480567
1770.000000	7.500704
1768.000000	7.525101
1766.000000	7.542238
1764.000000	7.544528
1762.000000	7.511407
1760.000000	7.505630
1758.000000	7.507282
1756.000000	7.493903
1754.000000	7.485610
1752.000000	7.435752
1750.000000	7.398981
1748.000000	7.413423
1746.000000	7.425243
1744.000000	7.419203
1742.000000	7.395995
1740.000000	7.362479
1738.000000	7.356902
1736.000000	7.316200
1734.000000	7.218838
1732.000000	7.251888
1730.000000	7.335777
1728.000000	7.360766
1726.000000	7.364064
1724.000000	7.355345
1722.000000	7.345767
1720.000000	7.299141
1718.000000	7.195615
1716.000000	7.174496
1714.000000	7.246510
1712.000000	7.293567
1710.000000	7.299982
1708.000000	7.277401
1706.000000	7.242941
1704.000000	7.224081
1702.000000	7.162437
1700.000000	7.064940
1698.000000	7.081669
1696.000000	7.076788
1694.000000	7.127460
1692.000000	7.223738
1690.000000	7.231774
1688.000000	7.208356
1686.000000	7.109454
1684.000000	7.016342
1682.000000	7.098338
1680.000000	7.187252
1678.000000	7.189815
1676.000000	7.140821
1674.000000	7.120300
1672.000000	7.137442
1670.000000	7.106171
1668.000000	7.107650
1666.000000	7.145841
1664.000000	7.133297
1662.000000	7.105977
1660.000000	7.122714
1658.000000	7.127536
1656.000000	7.062739
1654.000000	6.879148
1652.000000	6.813117
1650.000000	6.963090
1648.000000	6.998542
1646.000000	6.950955
1644.000000	6.991937
1642.000000	7.040610
1640.000000	7.031872
1638.000000	6.980071
1636.000000	6.888539
1634.000000	6.888963
1632.000000	6.959508
1630.000000	6.964466
1628.000000	6.931395
1626.000000	6.902002
1624.000000	6.857446
1622.000000	6.824963
1620.000000	6.810767
1618.000000	6.729558
1616.000000	6.657424
1614.000000	6.683481
1612.000000	6.680123
1610.000000	6.630120
1608.000000	6.597925
1606.000000	6.593566
1604.000000	6.605418
1602.000000	6.622121
1600.000000	6.641552
1598.000000	6.657845
1596.000000	6.669161
1594.000000	6.677362
1592.000000	6.684362
1590.000000	6.685068
1588.000000	6.683025
1586.000000	6.678308
1584.000000	6.672329
1582.000000	6.666869
1580.000000	6.660133
1578.000000	6.605291
1576.000000	6.529336
1574.000000	6.573420
1572.000000	6.623746
1570.000000	6.587344
1568.000000	6.581066
1566.000000	6.594480
1564.000000	6.579093
1562.000000	6.508047
1560.000000	6.343121
1558.000000	6.285479
1556.000000	6.399786
1554.000000	6.477652
1552.000000	6.526434
1550.000000	6.558590
1548.000000	6.575833
1546.000000	6.568572
1544.000000	6.533921
1542.000000	6.475335
1540.000000	6.417434
1538.000000	6.486401
1536.000000	6.614013
1534.000000	6.630334
1532.000000	6.643533
1530.000000	6.678624
1528.000000	6.671214
1526.000000	6.644329
1524.000000	6.620456
1522.000000	6.560406
1520.000000	6.547222
1518.000000	6.588379
1516.000000	6.593197
1514.000000	6.597704
1512.000000	6.587078
1510.000000	6.553671
1508.000000	6.447481
1506.000000	6.355558
1504.000000	6.398768
1502.000000	6.399495
1500.000000	6.239721
1498.000000	5.987437
1496.000000	5.764533
1494.000000	5.708506
1492.000000	5.776156
1490.000000	5.888712
1488.000000	6.035678
1486.000000	6.172939
1484.000000	6.269387
1482.000000	6.316772
1480.000000	6.337548
1478.000000	6.335849
1476.000000	6.304997
1474.000000	6.253358
1472.000000	6.223875
1470.000000	6.258272
1468.000000	6.271726
1466.000000	6.223924
1464.000000	6.182581
1462.000000	6.173691
1460.000000	6.113981
1458.000000	5.967692
1456.000000	5.863509
1454.000000	5.866167
1452.000000	5.848270
1450.000000	5.838622
1448.000000	5.886802
1446.000000	5.965517
1444.000000	6.016826
1442.000000	6.031593
1440.000000	6.027862
1438.000000	5.988899
1436.000000	5.963943
1434.000000	6.010532
1432.000000	6.034147
1430.000000	6.026346
1428.000000	6.029333
1426.000000	6.035157
1424.000000	6.025144
1422.000000	6.007483
1420.000000	5.954292
1418.000000	5.934609
1416.000000	5.965982
1414.000000	5.970961
1412.000000	5.949186
1410.000000	5.913527
1408.000000	5.861210
1406.000000	5.795029
1404.000000	5.748711
1402.000000	5.744352
1400.000000	5.754171
1398.000000	5.779988
1396.000000	5.810283
1394.000000	5.832793
1392.000000	5.867650
1390.000000	5.879601
1388.000000	5.852982
1386.000000	5.828786
1384.000000	5.825902
1382.000000	5.833542
1380.000000	5.842974
1378.000000	5.840010
1376.000000	5.826009
1374.000000	5.812074
1372.000000	5.813235
1370.000000	5.811772
1368.000000	5.801713
1366.000000	5.790139
1364.000000	5.769718
1362.000000	5.751055
1360.000000	5.747663
1358.000000	5.743425
1356.000000	5.730207
1354.000000	5.715147
1352.000000	5.700755
1350.000000	5.685540
1348.000000	5.670706
1346.000000	5.653609
1344.000000	5.634879
1342.000000	5.613884
1340.000000	5.592095
1338.000000	5.579838
1336.000000	5.577420
1334.000000	5.574778
1332.000000	5.565990
1330.000000	5.551434
1328.000000	5.535132
1326.000000	5.517962
1324.000000	5.499602
1322.000000	5.478410
1320.000000	5.454583
1318.000000	5.432334
1316.000000	5.412209
1314.000000	5.390268
1312.000000	5.368492
1310.000000	5.346363
1308.000000	5.321963
1306.000000	5.297379
1304.000000	5.272449
1302.000000	5.246881
1300.000000	5.222485
1298.000000	5.197185
1296.000000	5.171178
1294.000000	5.145036
1292.000000	5.117083
1290.000000	5.086204
1288.000000	5.055472
1286.000000	5.026039
1284.000000	4.995313
1282.000000	4.962708
1280.000000	4.928473
1278.000000	4.891901
1276.000000	4.851264
1274.000000	4.803389
1272.000000	4.746977
1270.000000	4.677353
1268.000000	4.588587
1266.000000	4.477975
1264.000000	4.356451
1262.000000	4.251072
1260.000000	4.191445
1258.000000	4.187699
1256.000000	4.219583
1254.000000	4.253913
1252.000000	4.268421
1250.000000	4.259821
1248.000000	4.234363
1246.000000	4.199207
1244.000000	4.160250
1242.000000	4.119481
1240.000000	4.078645
1238.000000	4.038803
1236.000000	4.000024
1234.000000	3.962143
1232.000000	3.925493
1230.000000	3.889658
1228.000000	3.854493
1226.000000	3.818138
1224.000000	3.781172
1222.000000	3.743964
1220.000000	3.705379
1218.000000	3.664599
1216.000000	3.623253
1214.000000	3.582358
1212.000000	3.543170
1210.000000	3.507198
1208.000000	3.473566
1206.000000	3.441080
1204.000000	3.408863
1202.000000	3.377194
1200.000000	3.345915
1198.000000	3.314449
1196.000000	3.282925
1194.000000	3.250469
1192.000000	3.217222
1190.000000	3.183175
1188.000000	3.148399
1186.000000	3.110450
1184.000000	3.066068
1182.000000	3.011816
1180.000000	2.963062
1178.000000	2.937220
1176.000000	2.918464
1174.000000	2.891791
1172.000000	2.858540
1170.000000	2.822921
1168.000000	2.786447
1166.000000	2.749165
1164.000000	2.711449
1162.000000	2.674902
1160.000000	2.639968
1158.000000	2.606150
1156.000000	2.573172
1154.000000	2.539357
1152.000000	2.506271
1150.000000	2.474988
1148.000000	2.442448
1146.000000	2.408814
1144.000000	2.376820
1142.000000	2.347235
1140.000000	2.322175
1138.000000	2.298475
1136.000000	2.272458
1134.000000	2.243049
1132.000000	2.210533
1130.000000	2.178693
1128.000000	2.147054
1126.000000	2.115159
1124.000000	2.083452
1122.000000	2.051214
1120.000000	2.018158
1118.000000	1.983699
1116.000000	1.948413
1114.000000	1.912700
1112.000000	1.877480
1110.000000	1.843029
1108.000000	1.808741
1106.000000	1.775413
1104.000000	1.743136
1102.000000	1.711884
1100.000000	1.681317
1098.000000	1.650887
1096.000000	1.621411
1094.000000	1.593318
1092.000000	1.566335
1090.000000	1.540857
1088.000000	1.516650
1086.000000	1.493890
1084.000000	1.470730
1082.000000	1.445703
1080.000000	1.422273
1078.000000	1.401701
1076.000000	1.383036
1074.000000	1.366716
1072.000000	1.352055
1070.000000	1.337115
1068.000000	1.321637
1066.000000	1.305675
1064.000000	1.290663
1062.000000	1.276056
1060.000000	1.260702
1058.000000	1.242382
1056.000000	1.216349
1054.000000	1.181799
1052.000000	1.146408
1050.000000	1.122820
1048.000000	1.118911
1046.000000	1.124858
1044.000000	1.126649
1042.000000	1.121031
1040.000000	1.110007
1038.000000	1.095663
1036.000000	1.080577
1034.000000	1.064903
1032.000000	1.047561
1030.000000	1.029778
1028.000000	1.011991
1026.000000	0.992716
1024.000000	0.973481
1022.000000	0.955556
1020.000000	0.937834
1018.000000	0.921094
1016.000000	0.907487
1014.000000	0.896856
1012.000000	0.887429
1010.000000	0.877425
1008.000000	0.867888
1006.000000	0.857622
1004.000000	0.846387
1002.000000	0.833231
1000.000000	0.818650
