PE IR       SUBTECH     SPECTRUM    ASCII       PEDS        4.00        
   -1
TE110A_098_80K_AFTER_160K_2MIN.ASC
20/05/14
17:18:54.00
20/05/14
17:18:54.00
Administrator
TE110A.Thursday, May 14 2020, 008.
1000.000000
#HDR
-1
-1
#GR
cm-1
A
1.0
0.0
6000.000000
-2.000000
2501
8
1.148404
1.093274
#DATA
6000.000000	1.109625
5998.000000	1.109844
5996.000000	1.109497
5994.000000	1.108848
5992.000000	1.108723
5990.000000	1.108775
5988.000000	1.108868
5986.000000	1.109052
5984.000000	1.109109
5982.000000	1.109309
5980.000000	1.109127
5978.000000	1.108978
5976.000000	1.108861
5974.000000	1.108804
5972.000000	1.108911
5970.000000	1.108897
5968.000000	1.108847
5966.000000	1.108873
5964.000000	1.108980
5962.000000	1.109136
5960.000000	1.109122
5958.000000	1.109110
5956.000000	1.109032
5954.000000	1.108989
5952.000000	1.108912
5950.000000	1.108849
5948.000000	1.108805
5946.000000	1.108859
5944.000000	1.108779
5942.000000	1.108730
5940.000000	1.108647
5938.000000	1.108712
5936.000000	1.108793
5934.000000	1.108678
5932.000000	1.108585
5930.000000	1.108458
5928.000000	1.108595
5926.000000	1.108719
5924.000000	1.108641
5922.000000	1.108426
5920.000000	1.108303
5918.000000	1.108381
5916.000000	1.108446
5914.000000	1.108547
5912.000000	1.108595
5910.000000	1.108775
5908.000000	1.108806
5906.000000	1.108651
5904.000000	1.108484
5902.000000	1.108383
5900.000000	1.108430
5898.000000	1.108514
5896.000000	1.108585
5894.000000	1.108528
5892.000000	1.108516
5890.000000	1.108434
5888.000000	1.108435
5886.000000	1.108326
5884.000000	1.108311
5882.000000	1.108272
5880.000000	1.108292
5878.000000	1.108201
5876.000000	1.108143
5874.000000	1.108106
5872.000000	1.107833
5870.000000	1.107674
5868.000000	1.107808
5866.000000	1.108122
5864.000000	1.108233
5862.000000	1.107858
5860.000000	1.107449
5858.000000	1.107366
5856.000000	1.107427
5854.000000	1.107645
5852.000000	1.107663
5850.000000	1.107653
5848.000000	1.107617
5846.000000	1.107662
5844.000000	1.107727
5842.000000	1.107674
5840.000000	1.107825
5838.000000	1.107909
5836.000000	1.108158
5834.000000	1.108210
5832.000000	1.108140
5830.000000	1.107851
5828.000000	1.107576
5826.000000	1.107651
5824.000000	1.108061
5822.000000	1.108255
5820.000000	1.108236
5818.000000	1.108123
5816.000000	1.108042
5814.000000	1.108079
5812.000000	1.108026
5810.000000	1.108110
5808.000000	1.108206
5806.000000	1.108152
5804.000000	1.108098
5802.000000	1.108001
5800.000000	1.108088
5798.000000	1.108130
5796.000000	1.108089
5794.000000	1.108042
5792.000000	1.108030
5790.000000	1.107973
5788.000000	1.107574
5786.000000	1.107299
5784.000000	1.107474
5782.000000	1.107890
5780.000000	1.108044
5778.000000	1.108001
5776.000000	1.108018
5774.000000	1.107934
5772.000000	1.107785
5770.000000	1.107650
5768.000000	1.107691
5766.000000	1.107675
5764.000000	1.107663
5762.000000	1.107704
5760.000000	1.107808
5758.000000	1.107831
5756.000000	1.107754
5754.000000	1.107528
5752.000000	1.107404
5750.000000	1.107361
5748.000000	1.107334
5746.000000	1.107329
5744.000000	1.107379
5742.000000	1.107416
5740.000000	1.107294
5738.000000	1.107095
5736.000000	1.107061
5734.000000	1.107043
5732.000000	1.106927
5730.000000	1.107021
5728.000000	1.107288
5726.000000	1.107595
5724.000000	1.107708
5722.000000	1.107629
5720.000000	1.107462
5718.000000	1.107340
5716.000000	1.107334
5714.000000	1.107389
5712.000000	1.107372
5710.000000	1.107317
5708.000000	1.107267
5706.000000	1.107220
5704.000000	1.107058
5702.000000	1.106942
5700.000000	1.107132
5698.000000	1.107312
5696.000000	1.107391
5694.000000	1.107359
5692.000000	1.107413
5690.000000	1.107251
5688.000000	1.107028
5686.000000	1.106884
5684.000000	1.106945
5682.000000	1.106975
5680.000000	1.106909
5678.000000	1.107048
5676.000000	1.107225
5674.000000	1.107247
5672.000000	1.107151
5670.000000	1.107120
5668.000000	1.107195
5666.000000	1.107067
5664.000000	1.106982
5662.000000	1.106993
5660.000000	1.107016
5658.000000	1.106833
5656.000000	1.106682
5654.000000	1.106733
5652.000000	1.106771
5650.000000	1.106699
5648.000000	1.106765
5646.000000	1.106841
5644.000000	1.106855
5642.000000	1.106649
5640.000000	1.106587
5638.000000	1.106737
5636.000000	1.106822
5634.000000	1.106776
5632.000000	1.106680
5630.000000	1.106698
5628.000000	1.106858
5626.000000	1.106876
5624.000000	1.106833
5622.000000	1.106777
5620.000000	1.106646
5618.000000	1.106573
5616.000000	1.106663
5614.000000	1.106716
5612.000000	1.106801
5610.000000	1.106774
5608.000000	1.106801
5606.000000	1.106808
5604.000000	1.106750
5602.000000	1.106682
5600.000000	1.106520
5598.000000	1.106297
5596.000000	1.106256
5594.000000	1.106353
5592.000000	1.106535
5590.000000	1.106607
5588.000000	1.106649
5586.000000	1.106650
5584.000000	1.106466
5582.000000	1.106286
5580.000000	1.106343
5578.000000	1.106512
5576.000000	1.106455
5574.000000	1.106295
5572.000000	1.106222
5570.000000	1.106260
5568.000000	1.106247
5566.000000	1.106160
5564.000000	1.106236
5562.000000	1.106234
5560.000000	1.106368
5558.000000	1.106446
5556.000000	1.106488
5554.000000	1.106491
5552.000000	1.106385
5550.000000	1.106323
5548.000000	1.106232
5546.000000	1.106246
5544.000000	1.106349
5542.000000	1.106337
5540.000000	1.106299
5538.000000	1.106246
5536.000000	1.106346
5534.000000	1.106379
5532.000000	1.106275
5530.000000	1.106186
5528.000000	1.106197
5526.000000	1.106185
5524.000000	1.106246
5522.000000	1.106230
5520.000000	1.106137
5518.000000	1.106060
5516.000000	1.106096
5514.000000	1.106181
5512.000000	1.106042
5510.000000	1.105894
5508.000000	1.105909
5506.000000	1.106058
5504.000000	1.106204
5502.000000	1.106276
5500.000000	1.106209
5498.000000	1.106047
5496.000000	1.105835
5494.000000	1.105677
5492.000000	1.105633
5490.000000	1.105686
5488.000000	1.105856
5486.000000	1.105930
5484.000000	1.105842
5482.000000	1.105756
5480.000000	1.105750
5478.000000	1.105684
5476.000000	1.105614
5474.000000	1.105673
5472.000000	1.105830
5470.000000	1.105808
5468.000000	1.105606
5466.000000	1.105444
5464.000000	1.105371
5462.000000	1.105361
5460.000000	1.105473
5458.000000	1.105551
5456.000000	1.105517
5454.000000	1.105408
5452.000000	1.105257
5450.000000	1.105082
5448.000000	1.104987
5446.000000	1.105108
5444.000000	1.105331
5442.000000	1.105567
5440.000000	1.105642
5438.000000	1.105440
5436.000000	1.105183
5434.000000	1.105070
5432.000000	1.105092
5430.000000	1.105132
5428.000000	1.105372
5426.000000	1.105840
5424.000000	1.106079
5422.000000	1.105906
5420.000000	1.105474
5418.000000	1.105024
5416.000000	1.104742
5414.000000	1.104744
5412.000000	1.105027
5410.000000	1.105440
5408.000000	1.105619
5406.000000	1.105589
5404.000000	1.105563
5402.000000	1.105662
5400.000000	1.105495
5398.000000	1.105070
5396.000000	1.104846
5394.000000	1.105148
5392.000000	1.105593
5390.000000	1.105679
5388.000000	1.105466
5386.000000	1.105367
5384.000000	1.105532
5382.000000	1.105423
5380.000000	1.104985
5378.000000	1.104632
5376.000000	1.104780
5374.000000	1.105189
5372.000000	1.105396
5370.000000	1.105410
5368.000000	1.105276
5366.000000	1.105216
5364.000000	1.105235
5362.000000	1.105317
5360.000000	1.105327
5358.000000	1.105112
5356.000000	1.104685
5354.000000	1.104513
5352.000000	1.104757
5350.000000	1.105054
5348.000000	1.104892
5346.000000	1.104681
5344.000000	1.104832
5342.000000	1.104922
5340.000000	1.104713
5338.000000	1.104685
5336.000000	1.105052
5334.000000	1.105336
5332.000000	1.105148
5330.000000	1.104855
5328.000000	1.104933
5326.000000	1.105309
5324.000000	1.105535
5322.000000	1.105327
5320.000000	1.105020
5318.000000	1.104990
5316.000000	1.105278
5314.000000	1.105505
5312.000000	1.105416
5310.000000	1.105095
5308.000000	1.105004
5306.000000	1.105174
5304.000000	1.105228
5302.000000	1.105074
5300.000000	1.105006
5298.000000	1.105150
5296.000000	1.105290
5294.000000	1.105118
5292.000000	1.104820
5290.000000	1.104656
5288.000000	1.104782
5286.000000	1.104907
5284.000000	1.104960
5282.000000	1.105034
5280.000000	1.105103
5278.000000	1.105071
5276.000000	1.105016
5274.000000	1.105026
5272.000000	1.105003
5270.000000	1.104867
5268.000000	1.104663
5266.000000	1.104494
5264.000000	1.104530
5262.000000	1.104829
5260.000000	1.105028
5258.000000	1.104785
5256.000000	1.104548
5254.000000	1.104701
5252.000000	1.104860
5250.000000	1.104713
5248.000000	1.104578
5246.000000	1.104745
5244.000000	1.105007
5242.000000	1.105045
5240.000000	1.104957
5238.000000	1.104971
5236.000000	1.105075
5234.000000	1.105062
5232.000000	1.104901
5230.000000	1.104732
5228.000000	1.104619
5226.000000	1.104633
5224.000000	1.104867
5222.000000	1.104958
5220.000000	1.104881
5218.000000	1.104840
5216.000000	1.104971
5214.000000	1.104992
5212.000000	1.104765
5210.000000	1.104436
5208.000000	1.104359
5206.000000	1.104635
5204.000000	1.104960
5202.000000	1.104985
5200.000000	1.104774
5198.000000	1.104682
5196.000000	1.104720
5194.000000	1.104718
5192.000000	1.104662
5190.000000	1.104692
5188.000000	1.104770
5186.000000	1.104725
5184.000000	1.104668
5182.000000	1.104723
5180.000000	1.104739
5178.000000	1.104740
5176.000000	1.104823
5174.000000	1.104844
5172.000000	1.104737
5170.000000	1.104673
5168.000000	1.104751
5166.000000	1.104722
5164.000000	1.104674
5162.000000	1.104751
5160.000000	1.104797
5158.000000	1.104732
5156.000000	1.104734
5154.000000	1.104864
5152.000000	1.104995
5150.000000	1.105089
5148.000000	1.105100
5146.000000	1.105005
5144.000000	1.104958
5142.000000	1.105031
5140.000000	1.105145
5138.000000	1.105151
5136.000000	1.105097
5134.000000	1.105033
5132.000000	1.104982
5130.000000	1.104968
5128.000000	1.104998
5126.000000	1.105052
5124.000000	1.105079
5122.000000	1.105080
5120.000000	1.105055
5118.000000	1.105060
5116.000000	1.105117
5114.000000	1.105126
5112.000000	1.105062
5110.000000	1.104990
5108.000000	1.104986
5106.000000	1.105031
5104.000000	1.105062
5102.000000	1.105014
5100.000000	1.104899
5098.000000	1.104798
5096.000000	1.104785
5094.000000	1.104890
5092.000000	1.105064
5090.000000	1.105164
5088.000000	1.105108
5086.000000	1.104987
5084.000000	1.104914
5082.000000	1.104897
5080.000000	1.104933
5078.000000	1.104967
5076.000000	1.104913
5074.000000	1.104821
5072.000000	1.104818
5070.000000	1.104855
5068.000000	1.104871
5066.000000	1.104929
5064.000000	1.105051
5062.000000	1.105102
5060.000000	1.105069
5058.000000	1.105053
5056.000000	1.105069
5054.000000	1.105136
5052.000000	1.105171
5050.000000	1.105183
5048.000000	1.105207
5046.000000	1.105215
5044.000000	1.105259
5042.000000	1.105360
5040.000000	1.105495
5038.000000	1.105521
5036.000000	1.105380
5034.000000	1.105260
5032.000000	1.105329
5030.000000	1.105516
5028.000000	1.105535
5026.000000	1.105463
5024.000000	1.105494
5022.000000	1.105550
5020.000000	1.105418
5018.000000	1.105304
5016.000000	1.105259
5014.000000	1.105263
5012.000000	1.105313
5010.000000	1.105383
5008.000000	1.105315
5006.000000	1.105208
5004.000000	1.105249
5002.000000	1.105348
5000.000000	1.105365
4998.000000	1.105355
4996.000000	1.105387
4994.000000	1.105448
4992.000000	1.105487
4990.000000	1.105438
4988.000000	1.105313
4986.000000	1.105226
4984.000000	1.105231
4982.000000	1.105210
4980.000000	1.105173
4978.000000	1.105314
4976.000000	1.105494
4974.000000	1.105567
4972.000000	1.105568
4970.000000	1.105584
4968.000000	1.105656
4966.000000	1.105703
4964.000000	1.105620
4962.000000	1.105489
4960.000000	1.105512
4958.000000	1.105568
4956.000000	1.105472
4954.000000	1.105401
4952.000000	1.105450
4950.000000	1.105568
4948.000000	1.105655
4946.000000	1.105708
4944.000000	1.105752
4942.000000	1.105776
4940.000000	1.105791
4938.000000	1.105791
4936.000000	1.105832
4934.000000	1.105881
4932.000000	1.105797
4930.000000	1.105650
4928.000000	1.105701
4926.000000	1.105884
4924.000000	1.105922
4922.000000	1.105794
4920.000000	1.105733
4918.000000	1.105807
4916.000000	1.105891
4914.000000	1.105892
4912.000000	1.105818
4910.000000	1.105787
4908.000000	1.105808
4906.000000	1.105863
4904.000000	1.105905
4902.000000	1.105929
4900.000000	1.105988
4898.000000	1.106032
4896.000000	1.105964
4894.000000	1.105849
4892.000000	1.105843
4890.000000	1.105879
4888.000000	1.105847
4886.000000	1.105780
4884.000000	1.105799
4882.000000	1.105844
4880.000000	1.105891
4878.000000	1.105918
4876.000000	1.105907
4874.000000	1.105906
4872.000000	1.105982
4870.000000	1.106087
4868.000000	1.106125
4866.000000	1.106142
4864.000000	1.106204
4862.000000	1.106281
4860.000000	1.106288
4858.000000	1.106243
4856.000000	1.106199
4854.000000	1.106177
4852.000000	1.106147
4850.000000	1.106136
4848.000000	1.106152
4846.000000	1.106179
4844.000000	1.106235
4842.000000	1.106278
4840.000000	1.106290
4838.000000	1.106248
4836.000000	1.106229
4834.000000	1.106257
4832.000000	1.106344
4830.000000	1.106360
4828.000000	1.106362
4826.000000	1.106432
4824.000000	1.106477
4822.000000	1.106434
4820.000000	1.106441
4818.000000	1.106414
4816.000000	1.106236
4814.000000	1.106118
4812.000000	1.106201
4810.000000	1.106300
4808.000000	1.106322
4806.000000	1.106322
4804.000000	1.106320
4802.000000	1.106294
4800.000000	1.106257
4798.000000	1.106270
4796.000000	1.106342
4794.000000	1.106382
4792.000000	1.106358
4790.000000	1.106312
4788.000000	1.106290
4786.000000	1.106256
4784.000000	1.106251
4782.000000	1.106338
4780.000000	1.106444
4778.000000	1.106441
4776.000000	1.106425
4774.000000	1.106465
4772.000000	1.106499
4770.000000	1.106501
4768.000000	1.106513
4766.000000	1.106560
4764.000000	1.106614
4762.000000	1.106641
4760.000000	1.106659
4758.000000	1.106764
4756.000000	1.106857
4754.000000	1.106827
4752.000000	1.106752
4750.000000	1.106738
4748.000000	1.106703
4746.000000	1.106603
4744.000000	1.106560
4742.000000	1.106617
4740.000000	1.106691
4738.000000	1.106706
4736.000000	1.106659
4734.000000	1.106599
4732.000000	1.106604
4730.000000	1.106634
4728.000000	1.106653
4726.000000	1.106630
4724.000000	1.106567
4722.000000	1.106531
4720.000000	1.106494
4718.000000	1.106465
4716.000000	1.106505
4714.000000	1.106616
4712.000000	1.106664
4710.000000	1.106632
4708.000000	1.106580
4706.000000	1.106605
4704.000000	1.106647
4702.000000	1.106631
4700.000000	1.106604
4698.000000	1.106633
4696.000000	1.106650
4694.000000	1.106640
4692.000000	1.106666
4690.000000	1.106670
4688.000000	1.106564
4686.000000	1.106412
4684.000000	1.106395
4682.000000	1.106502
4680.000000	1.106607
4678.000000	1.106641
4676.000000	1.106595
4674.000000	1.106547
4672.000000	1.106579
4670.000000	1.106640
4668.000000	1.106693
4666.000000	1.106715
4664.000000	1.106726
4662.000000	1.106729
4660.000000	1.106795
4658.000000	1.106876
4656.000000	1.106882
4654.000000	1.106779
4652.000000	1.106717
4650.000000	1.106800
4648.000000	1.106869
4646.000000	1.106871
4644.000000	1.106879
4642.000000	1.106935
4640.000000	1.106965
4638.000000	1.106979
4636.000000	1.106957
4634.000000	1.106882
4632.000000	1.106804
4630.000000	1.106816
4628.000000	1.106924
4626.000000	1.107034
4624.000000	1.107091
4622.000000	1.107092
4620.000000	1.107015
4618.000000	1.106878
4616.000000	1.106787
4614.000000	1.106791
4612.000000	1.106865
4610.000000	1.106944
4608.000000	1.106977
4606.000000	1.106973
4604.000000	1.107079
4602.000000	1.107229
4600.000000	1.107274
4598.000000	1.107236
4596.000000	1.107200
4594.000000	1.107135
4592.000000	1.107055
4590.000000	1.107044
4588.000000	1.107090
4586.000000	1.107101
4584.000000	1.107058
4582.000000	1.107069
4580.000000	1.107136
4578.000000	1.107149
4576.000000	1.107139
4574.000000	1.107149
4572.000000	1.107158
4570.000000	1.107203
4568.000000	1.107280
4566.000000	1.107276
4564.000000	1.107159
4562.000000	1.107100
4560.000000	1.107154
4558.000000	1.107218
4556.000000	1.107223
4554.000000	1.107228
4552.000000	1.107245
4550.000000	1.107241
4548.000000	1.107194
4546.000000	1.107165
4544.000000	1.107163
4542.000000	1.107196
4540.000000	1.107213
4538.000000	1.107153
4536.000000	1.107055
4534.000000	1.107028
4532.000000	1.107096
4530.000000	1.107137
4528.000000	1.107075
4526.000000	1.107004
4524.000000	1.107056
4522.000000	1.107157
4520.000000	1.107241
4518.000000	1.107306
4516.000000	1.107297
4514.000000	1.107183
4512.000000	1.107138
4510.000000	1.107243
4508.000000	1.107279
4506.000000	1.107260
4504.000000	1.107310
4502.000000	1.107349
4500.000000	1.107329
4498.000000	1.107309
4496.000000	1.107274
4494.000000	1.107245
4492.000000	1.107243
4490.000000	1.107248
4488.000000	1.107256
4486.000000	1.107290
4484.000000	1.107329
4482.000000	1.107316
4480.000000	1.107285
4478.000000	1.107338
4476.000000	1.107452
4474.000000	1.107519
4472.000000	1.107486
4470.000000	1.107435
4468.000000	1.107434
4466.000000	1.107486
4464.000000	1.107550
4462.000000	1.107578
4460.000000	1.107550
4458.000000	1.107487
4456.000000	1.107433
4454.000000	1.107449
4452.000000	1.107470
4450.000000	1.107464
4448.000000	1.107520
4446.000000	1.107584
4444.000000	1.107543
4442.000000	1.107482
4440.000000	1.107464
4438.000000	1.107418
4436.000000	1.107342
4434.000000	1.107307
4432.000000	1.107340
4430.000000	1.107422
4428.000000	1.107494
4426.000000	1.107545
4424.000000	1.107569
4422.000000	1.107572
4420.000000	1.107586
4418.000000	1.107579
4416.000000	1.107511
4414.000000	1.107478
4412.000000	1.107465
4410.000000	1.107487
4408.000000	1.107591
4406.000000	1.107617
4404.000000	1.107502
4402.000000	1.107443
4400.000000	1.107463
4398.000000	1.107492
4396.000000	1.107505
4394.000000	1.107509
4392.000000	1.107534
4390.000000	1.107582
4388.000000	1.107578
4386.000000	1.107547
4384.000000	1.107588
4382.000000	1.107652
4380.000000	1.107672
4378.000000	1.107685
4376.000000	1.107697
4374.000000	1.107713
4372.000000	1.107742
4370.000000	1.107751
4368.000000	1.107729
4366.000000	1.107689
4364.000000	1.107644
4362.000000	1.107618
4360.000000	1.107618
4358.000000	1.107636
4356.000000	1.107694
4354.000000	1.107799
4352.000000	1.107881
4350.000000	1.107841
4348.000000	1.107729
4346.000000	1.107708
4344.000000	1.107762
4342.000000	1.107725
4340.000000	1.107650
4338.000000	1.107677
4336.000000	1.107725
4334.000000	1.107709
4332.000000	1.107707
4330.000000	1.107758
4328.000000	1.107741
4326.000000	1.107665
4324.000000	1.107647
4322.000000	1.107696
4320.000000	1.107746
4318.000000	1.107778
4316.000000	1.107757
4314.000000	1.107655
4312.000000	1.107577
4310.000000	1.107593
4308.000000	1.107643
4306.000000	1.107665
4304.000000	1.107634
4302.000000	1.107614
4300.000000	1.107627
4298.000000	1.107613
4296.000000	1.107595
4294.000000	1.107634
4292.000000	1.107684
4290.000000	1.107676
4288.000000	1.107605
4286.000000	1.107624
4284.000000	1.107752
4282.000000	1.107831
4280.000000	1.107779
4278.000000	1.107718
4276.000000	1.107735
4274.000000	1.107752
4272.000000	1.107740
4270.000000	1.107764
4268.000000	1.107743
4266.000000	1.107659
4264.000000	1.107639
4262.000000	1.107645
4260.000000	1.107619
4258.000000	1.107691
4256.000000	1.107795
4254.000000	1.107776
4252.000000	1.107714
4250.000000	1.107725
4248.000000	1.107727
4246.000000	1.107701
4244.000000	1.107668
4242.000000	1.107645
4240.000000	1.107642
4238.000000	1.107631
4236.000000	1.107615
4234.000000	1.107624
4232.000000	1.107648
4230.000000	1.107674
4228.000000	1.107601
4226.000000	1.107485
4224.000000	1.107520
4222.000000	1.107617
4220.000000	1.107622
4218.000000	1.107597
4216.000000	1.107594
4214.000000	1.107549
4212.000000	1.107487
4210.000000	1.107467
4208.000000	1.107417
4206.000000	1.107377
4204.000000	1.107456
4202.000000	1.107544
4200.000000	1.107532
4198.000000	1.107507
4196.000000	1.107510
4194.000000	1.107479
4192.000000	1.107438
4190.000000	1.107459
4188.000000	1.107463
4186.000000	1.107451
4184.000000	1.107495
4182.000000	1.107540
4180.000000	1.107524
4178.000000	1.107471
4176.000000	1.107475
4174.000000	1.107567
4172.000000	1.107605
4170.000000	1.107536
4168.000000	1.107419
4166.000000	1.107358
4164.000000	1.107420
4162.000000	1.107475
4160.000000	1.107439
4158.000000	1.107387
4156.000000	1.107327
4154.000000	1.107280
4152.000000	1.107269
4150.000000	1.107280
4148.000000	1.107269
4146.000000	1.107209
4144.000000	1.107182
4142.000000	1.107210
4140.000000	1.107205
4138.000000	1.107169
4136.000000	1.107153
4134.000000	1.107150
4132.000000	1.107148
4130.000000	1.107174
4128.000000	1.107169
4126.000000	1.107129
4124.000000	1.107131
4122.000000	1.107143
4120.000000	1.107103
4118.000000	1.107036
4116.000000	1.106978
4114.000000	1.106941
4112.000000	1.106882
4110.000000	1.106849
4108.000000	1.106875
4106.000000	1.106904
4104.000000	1.106927
4102.000000	1.106968
4100.000000	1.106959
4098.000000	1.106882
4096.000000	1.106842
4094.000000	1.106920
4092.000000	1.106987
4090.000000	1.106965
4088.000000	1.106962
4086.000000	1.107024
4084.000000	1.107042
4082.000000	1.106973
4080.000000	1.106898
4078.000000	1.106896
4076.000000	1.106927
4074.000000	1.106982
4072.000000	1.106977
4070.000000	1.106865
4068.000000	1.106784
4066.000000	1.106805
4064.000000	1.106830
4062.000000	1.106810
4060.000000	1.106762
4058.000000	1.106749
4056.000000	1.106785
4054.000000	1.106784
4052.000000	1.106700
4050.000000	1.106634
4048.000000	1.106551
4046.000000	1.106435
4044.000000	1.106413
4042.000000	1.106495
4040.000000	1.106505
4038.000000	1.106425
4036.000000	1.106407
4034.000000	1.106432
4032.000000	1.106425
4030.000000	1.106427
4028.000000	1.106345
4026.000000	1.106205
4024.000000	1.106211
4022.000000	1.106320
4020.000000	1.106364
4018.000000	1.106353
4016.000000	1.106316
4014.000000	1.106286
4012.000000	1.106253
4010.000000	1.106215
4008.000000	1.106227
4006.000000	1.106162
4004.000000	1.105951
4002.000000	1.105859
4000.000000	1.105977
3998.000000	1.106091
3996.000000	1.106084
3994.000000	1.106024
3992.000000	1.105997
3990.000000	1.106091
3988.000000	1.106174
3986.000000	1.106116
3984.000000	1.106031
3982.000000	1.106010
3980.000000	1.105977
3978.000000	1.105908
3976.000000	1.105887
3974.000000	1.105944
3972.000000	1.105947
3970.000000	1.105911
3968.000000	1.105925
3966.000000	1.105871
3964.000000	1.105709
3962.000000	1.105672
3960.000000	1.105734
3958.000000	1.105717
3956.000000	1.105638
3954.000000	1.105490
3952.000000	1.105205
3950.000000	1.105010
3948.000000	1.105116
3946.000000	1.105149
3944.000000	1.104975
3942.000000	1.105174
3940.000000	1.105504
3938.000000	1.105441
3936.000000	1.105042
3934.000000	1.104549
3932.000000	1.104602
3930.000000	1.105102
3928.000000	1.105053
3926.000000	1.104659
3924.000000	1.104625
3922.000000	1.104504
3920.000000	1.104008
3918.000000	1.103978
3916.000000	1.104735
3914.000000	1.105295
3912.000000	1.105201
3910.000000	1.104837
3908.000000	1.103727
3906.000000	1.101933
3904.000000	1.101242
3902.000000	1.102078
3900.000000	1.103431
3898.000000	1.104798
3896.000000	1.104926
3894.000000	1.103391
3892.000000	1.102792
3890.000000	1.103593
3888.000000	1.102782
3886.000000	1.102115
3884.000000	1.103291
3882.000000	1.103507
3880.000000	1.103714
3878.000000	1.104286
3876.000000	1.103460
3874.000000	1.102150
3872.000000	1.100685
3870.000000	1.100954
3868.000000	1.102666
3866.000000	1.102580
3864.000000	1.102570
3862.000000	1.103747
3860.000000	1.103903
3858.000000	1.100559
3856.000000	1.094070
3854.000000	1.093340
3852.000000	1.100915
3850.000000	1.105967
3848.000000	1.105195
3846.000000	1.103237
3844.000000	1.102041
3842.000000	1.100662
3840.000000	1.098356
3838.000000	1.098593
3836.000000	1.101797
3834.000000	1.103200
3832.000000	1.103139
3830.000000	1.103533
3828.000000	1.103392
3826.000000	1.102619
3824.000000	1.100616
3822.000000	1.099452
3820.000000	1.100467
3818.000000	1.099784
3816.000000	1.100311
3814.000000	1.103875
3812.000000	1.104464
3810.000000	1.101691
3808.000000	1.100007
3806.000000	1.100905
3804.000000	1.099940
3802.000000	1.098830
3800.000000	1.101735
3798.000000	1.103467
3796.000000	1.103271
3794.000000	1.103786
3792.000000	1.103837
3790.000000	1.103553
3788.000000	1.103323
3786.000000	1.103109
3784.000000	1.103026
3782.000000	1.102558
3780.000000	1.102368
3778.000000	1.103213
3776.000000	1.103646
3774.000000	1.102846
3772.000000	1.101526
3770.000000	1.101298
3768.000000	1.102011
3766.000000	1.102421
3764.000000	1.102621
3762.000000	1.101954
3760.000000	1.101249
3758.000000	1.101631
3756.000000	1.100431
3754.000000	1.096425
3752.000000	1.094253
3750.000000	1.096671
3748.000000	1.097499
3746.000000	1.094585
3744.000000	1.097152
3742.000000	1.102597
3740.000000	1.101392
3738.000000	1.097730
3736.000000	1.097220
3734.000000	1.098790
3732.000000	1.100728
3730.000000	1.102001
3728.000000	1.101345
3726.000000	1.100724
3724.000000	1.101012
3722.000000	1.101353
3720.000000	1.101825
3718.000000	1.101949
3716.000000	1.100662
3714.000000	1.098204
3712.000000	1.097954
3710.000000	1.100456
3708.000000	1.102272
3706.000000	1.102119
3704.000000	1.100919
3702.000000	1.100703
3700.000000	1.101736
3698.000000	1.102064
3696.000000	1.101474
3694.000000	1.100119
3692.000000	1.097595
3690.000000	1.095953
3688.000000	1.098518
3686.000000	1.102066
3684.000000	1.102139
3682.000000	1.100775
3680.000000	1.098881
3678.000000	1.095495
3676.000000	1.094788
3674.000000	1.097253
3672.000000	1.096861
3670.000000	1.097327
3668.000000	1.100613
3666.000000	1.101575
3664.000000	1.100856
3662.000000	1.100448
3660.000000	1.099449
3658.000000	1.097893
3656.000000	1.098229
3654.000000	1.098382
3652.000000	1.095253
3650.000000	1.093759
3648.000000	1.096914
3646.000000	1.100050
3644.000000	1.100392
3642.000000	1.099745
3640.000000	1.099409
3638.000000	1.099097
3636.000000	1.098654
3634.000000	1.097859
3632.000000	1.095284
3630.000000	1.093274
3628.000000	1.096249
3626.000000	1.099512
3624.000000	1.098827
3622.000000	1.096624
3620.000000	1.095681
3618.000000	1.096851
3616.000000	1.097431
3614.000000	1.096619
3612.000000	1.096015
3610.000000	1.095929
3608.000000	1.096977
3606.000000	1.098145
3604.000000	1.097942
3602.000000	1.097309
3600.000000	1.097125
3598.000000	1.096981
3596.000000	1.096726
3594.000000	1.096863
3592.000000	1.096524
3590.000000	1.095092
3588.000000	1.094787
3586.000000	1.096295
3584.000000	1.097180
3582.000000	1.096923
3580.000000	1.096653
3578.000000	1.096610
3576.000000	1.096554
3574.000000	1.096446
3572.000000	1.095961
3570.000000	1.094746
3568.000000	1.094143
3566.000000	1.095202
3564.000000	1.096150
3562.000000	1.096100
3560.000000	1.096029
3558.000000	1.096096
3556.000000	1.095930
3554.000000	1.095658
3552.000000	1.095662
3550.000000	1.095591
3548.000000	1.095178
3546.000000	1.095165
3544.000000	1.095614
3542.000000	1.095905
3540.000000	1.095853
3538.000000	1.095697
3536.000000	1.095710
3534.000000	1.095774
3532.000000	1.095607
3530.000000	1.095359
3528.000000	1.095297
3526.000000	1.095388
3524.000000	1.095484
3522.000000	1.095684
3520.000000	1.095830
3518.000000	1.095885
3516.000000	1.095934
3514.000000	1.095877
3512.000000	1.095774
3510.000000	1.095843
3508.000000	1.096069
3506.000000	1.096067
3504.000000	1.096012
3502.000000	1.096289
3500.000000	1.096540
3498.000000	1.096552
3496.000000	1.096636
3494.000000	1.096819
3492.000000	1.096904
3490.000000	1.096977
3488.000000	1.097138
3486.000000	1.097328
3484.000000	1.097432
3482.000000	1.097577
3480.000000	1.097848
3478.000000	1.098070
3476.000000	1.098212
3474.000000	1.098378
3472.000000	1.098526
3470.000000	1.098643
3468.000000	1.098831
3466.000000	1.099149
3464.000000	1.099473
3462.000000	1.099707
3460.000000	1.099902
3458.000000	1.100135
3456.000000	1.100414
3454.000000	1.100677
3452.000000	1.100943
3450.000000	1.101106
3448.000000	1.101210
3446.000000	1.101590
3444.000000	1.102060
3442.000000	1.102451
3440.000000	1.102905
3438.000000	1.103341
3436.000000	1.103706
3434.000000	1.104099
3432.000000	1.104561
3430.000000	1.105004
3428.000000	1.105431
3426.000000	1.105837
3424.000000	1.106148
3422.000000	1.106396
3420.000000	1.106762
3418.000000	1.107172
3416.000000	1.107451
3414.000000	1.107671
3412.000000	1.107878
3410.000000	1.108082
3408.000000	1.108304
3406.000000	1.108543
3404.000000	1.108718
3402.000000	1.108858
3400.000000	1.109055
3398.000000	1.109370
3396.000000	1.109608
3394.000000	1.109582
3392.000000	1.109628
3390.000000	1.109914
3388.000000	1.110117
3386.000000	1.110181
3384.000000	1.110281
3382.000000	1.110452
3380.000000	1.110641
3378.000000	1.110814
3376.000000	1.110919
3374.000000	1.110944
3372.000000	1.110910
3370.000000	1.110885
3368.000000	1.111005
3366.000000	1.111232
3364.000000	1.111390
3362.000000	1.111496
3360.000000	1.111615
3358.000000	1.111719
3356.000000	1.111782
3354.000000	1.111821
3352.000000	1.111851
3350.000000	1.111911
3348.000000	1.112009
3346.000000	1.112084
3344.000000	1.112144
3342.000000	1.112253
3340.000000	1.112300
3338.000000	1.112261
3336.000000	1.112338
3334.000000	1.112506
3332.000000	1.112628
3330.000000	1.112695
3328.000000	1.112715
3326.000000	1.112761
3324.000000	1.112865
3322.000000	1.112990
3320.000000	1.113144
3318.000000	1.113267
3316.000000	1.113337
3314.000000	1.113426
3312.000000	1.113509
3310.000000	1.113578
3308.000000	1.113665
3306.000000	1.113781
3304.000000	1.113989
3302.000000	1.114240
3300.000000	1.114393
3298.000000	1.114467
3296.000000	1.114522
3294.000000	1.114605
3292.000000	1.114700
3290.000000	1.114835
3288.000000	1.114978
3286.000000	1.115083
3284.000000	1.115167
3282.000000	1.115243
3280.000000	1.115325
3278.000000	1.115402
3276.000000	1.115435
3274.000000	1.115431
3272.000000	1.115447
3270.000000	1.115531
3268.000000	1.115664
3266.000000	1.115745
3264.000000	1.115773
3262.000000	1.115862
3260.000000	1.115951
3258.000000	1.115932
3256.000000	1.115952
3254.000000	1.116045
3252.000000	1.116132
3250.000000	1.116155
3248.000000	1.116096
3246.000000	1.116118
3244.000000	1.116236
3242.000000	1.116328
3240.000000	1.116367
3238.000000	1.116417
3236.000000	1.116490
3234.000000	1.116511
3232.000000	1.116542
3230.000000	1.116589
3228.000000	1.116629
3226.000000	1.116654
3224.000000	1.116689
3222.000000	1.116763
3220.000000	1.116779
3218.000000	1.116802
3216.000000	1.116838
3214.000000	1.116820
3212.000000	1.116807
3210.000000	1.116843
3208.000000	1.116885
3206.000000	1.116880
3204.000000	1.116852
3202.000000	1.116827
3200.000000	1.116822
3198.000000	1.116841
3196.000000	1.116887
3194.000000	1.116899
3192.000000	1.116879
3190.000000	1.116897
3188.000000	1.116930
3186.000000	1.116935
3184.000000	1.116933
3182.000000	1.116883
3180.000000	1.116830
3178.000000	1.116848
3176.000000	1.116943
3174.000000	1.117010
3172.000000	1.117002
3170.000000	1.116992
3168.000000	1.117004
3166.000000	1.117058
3164.000000	1.117146
3162.000000	1.117193
3160.000000	1.117185
3158.000000	1.117218
3156.000000	1.117283
3154.000000	1.117264
3152.000000	1.117268
3150.000000	1.117390
3148.000000	1.117508
3146.000000	1.117538
3144.000000	1.117590
3142.000000	1.117637
3140.000000	1.117665
3138.000000	1.117767
3136.000000	1.117864
3134.000000	1.117923
3132.000000	1.117996
3130.000000	1.118056
3128.000000	1.118155
3126.000000	1.118289
3124.000000	1.118317
3122.000000	1.118308
3120.000000	1.118335
3118.000000	1.118378
3116.000000	1.118432
3114.000000	1.118577
3112.000000	1.118663
3110.000000	1.118615
3108.000000	1.118646
3106.000000	1.118752
3104.000000	1.118805
3102.000000	1.118752
3100.000000	1.118802
3098.000000	1.118960
3096.000000	1.119043
3094.000000	1.119056
3092.000000	1.119029
3090.000000	1.119010
3088.000000	1.119001
3086.000000	1.119011
3084.000000	1.118971
3082.000000	1.118904
3080.000000	1.118870
3078.000000	1.118877
3076.000000	1.118917
3074.000000	1.118913
3072.000000	1.118833
3070.000000	1.118713
3068.000000	1.118693
3066.000000	1.118769
3064.000000	1.118859
3062.000000	1.118904
3060.000000	1.118830
3058.000000	1.118763
3056.000000	1.118777
3054.000000	1.118823
3052.000000	1.118846
3050.000000	1.118802
3048.000000	1.118770
3046.000000	1.118740
3044.000000	1.118662
3042.000000	1.118628
3040.000000	1.118661
3038.000000	1.118671
3036.000000	1.118637
3034.000000	1.118577
3032.000000	1.118554
3030.000000	1.118578
3028.000000	1.118509
3026.000000	1.118378
3024.000000	1.118375
3022.000000	1.118457
3020.000000	1.118530
3018.000000	1.118677
3016.000000	1.118985
3014.000000	1.119187
3012.000000	1.119311
3010.000000	1.119250
3008.000000	1.118960
3006.000000	1.118708
3004.000000	1.118565
3002.000000	1.118506
3000.000000	1.118581
2998.000000	1.118566
2996.000000	1.118515
2994.000000	1.118476
2992.000000	1.118382
2990.000000	1.118368
2988.000000	1.118367
2986.000000	1.118328
2984.000000	1.118327
2982.000000	1.118308
2980.000000	1.118220
2978.000000	1.118223
2976.000000	1.118291
2974.000000	1.118276
2972.000000	1.118247
2970.000000	1.118302
2968.000000	1.118511
2966.000000	1.119002
2964.000000	1.119663
2962.000000	1.120291
2960.000000	1.120623
2958.000000	1.120535
2956.000000	1.120198
2954.000000	1.119777
2952.000000	1.119356
2950.000000	1.118954
2948.000000	1.118545
2946.000000	1.118101
2944.000000	1.117706
2942.000000	1.117401
2940.000000	1.117248
2938.000000	1.117234
2936.000000	1.117272
2934.000000	1.117391
2932.000000	1.117511
2930.000000	1.117595
2928.000000	1.117832
2926.000000	1.118333
2924.000000	1.119051
2922.000000	1.119809
2920.000000	1.120334
2918.000000	1.120541
2916.000000	1.120518
2914.000000	1.120286
2912.000000	1.119984
2910.000000	1.119668
2908.000000	1.119390
2906.000000	1.119278
2904.000000	1.119204
2902.000000	1.119122
2900.000000	1.119039
2898.000000	1.118936
2896.000000	1.118848
2894.000000	1.118757
2892.000000	1.118767
2890.000000	1.118744
2888.000000	1.118565
2886.000000	1.118383
2884.000000	1.118278
2882.000000	1.118171
2880.000000	1.118054
2878.000000	1.117931
2876.000000	1.117731
2874.000000	1.117509
2872.000000	1.117309
2870.000000	1.117004
2868.000000	1.116637
2866.000000	1.116422
2864.000000	1.116576
2862.000000	1.117084
2860.000000	1.117730
2858.000000	1.118235
2856.000000	1.118475
2854.000000	1.118560
2852.000000	1.118690
2850.000000	1.118960
2848.000000	1.119174
2846.000000	1.119127
2844.000000	1.118921
2842.000000	1.118681
2840.000000	1.118428
2838.000000	1.118211
2836.000000	1.118090
2834.000000	1.118068
2832.000000	1.118091
2830.000000	1.118052
2828.000000	1.117988
2826.000000	1.117958
2824.000000	1.117893
2822.000000	1.117806
2820.000000	1.117788
2818.000000	1.117782
2816.000000	1.117754
2814.000000	1.117713
2812.000000	1.117666
2810.000000	1.117651
2808.000000	1.117651
2806.000000	1.117612
2804.000000	1.117579
2802.000000	1.117595
2800.000000	1.117571
2798.000000	1.117517
2796.000000	1.117524
2794.000000	1.117593
2792.000000	1.117627
2790.000000	1.117643
2788.000000	1.117692
2786.000000	1.117681
2784.000000	1.117614
2782.000000	1.117569
2780.000000	1.117570
2778.000000	1.117573
2776.000000	1.117590
2774.000000	1.117619
2772.000000	1.117624
2770.000000	1.117576
2768.000000	1.117521
2766.000000	1.117478
2764.000000	1.117471
2762.000000	1.117457
2760.000000	1.117448
2758.000000	1.117447
2756.000000	1.117467
2754.000000	1.117419
2752.000000	1.117338
2750.000000	1.117367
2748.000000	1.117458
2746.000000	1.117505
2744.000000	1.117506
2742.000000	1.117511
2740.000000	1.117527
2738.000000	1.117502
2736.000000	1.117470
2734.000000	1.117456
2732.000000	1.117490
2730.000000	1.117546
2728.000000	1.117585
2726.000000	1.117603
2724.000000	1.117628
2722.000000	1.117689
2720.000000	1.117763
2718.000000	1.117743
2716.000000	1.117731
2714.000000	1.117824
2712.000000	1.117969
2710.000000	1.118055
2708.000000	1.118108
2706.000000	1.118158
2704.000000	1.118234
2702.000000	1.118337
2700.000000	1.118428
2698.000000	1.118525
2696.000000	1.118655
2694.000000	1.118755
2692.000000	1.118824
2690.000000	1.118881
2688.000000	1.118936
2686.000000	1.119028
2684.000000	1.119076
2682.000000	1.119088
2680.000000	1.119185
2678.000000	1.119236
2676.000000	1.119264
2674.000000	1.119337
2672.000000	1.119438
2670.000000	1.119545
2668.000000	1.119627
2666.000000	1.119647
2664.000000	1.119664
2662.000000	1.119710
2660.000000	1.119792
2658.000000	1.119899
2656.000000	1.120013
2654.000000	1.120079
2652.000000	1.120150
2650.000000	1.120181
2648.000000	1.120235
2646.000000	1.120368
2644.000000	1.120476
2642.000000	1.120518
2640.000000	1.120559
2638.000000	1.120605
2636.000000	1.120635
2634.000000	1.120640
2632.000000	1.120674
2630.000000	1.120709
2628.000000	1.120744
2626.000000	1.120759
2624.000000	1.120762
2622.000000	1.120826
2620.000000	1.120895
2618.000000	1.120852
2616.000000	1.120842
2614.000000	1.120922
2612.000000	1.120999
2610.000000	1.121038
2608.000000	1.121056
2606.000000	1.121049
2604.000000	1.121041
2602.000000	1.121043
2600.000000	1.121107
2598.000000	1.121189
2596.000000	1.121231
2594.000000	1.121271
2592.000000	1.121338
2590.000000	1.121397
2588.000000	1.121481
2586.000000	1.121549
2584.000000	1.121642
2582.000000	1.121667
2580.000000	1.121640
2578.000000	1.121668
2576.000000	1.121745
2574.000000	1.121763
2572.000000	1.121760
2570.000000	1.121784
2568.000000	1.121860
2566.000000	1.121886
2564.000000	1.121919
2562.000000	1.121964
2560.000000	1.121969
2558.000000	1.121976
2556.000000	1.122038
2554.000000	1.122092
2552.000000	1.122096
2550.000000	1.122100
2548.000000	1.122085
2546.000000	1.122087
2544.000000	1.122108
2542.000000	1.122084
2540.000000	1.122076
2538.000000	1.122087
2536.000000	1.122107
2534.000000	1.122082
2532.000000	1.122112
2530.000000	1.122155
2528.000000	1.122131
2526.000000	1.122098
2524.000000	1.122094
2522.000000	1.122102
2520.000000	1.122129
2518.000000	1.122104
2516.000000	1.122023
2514.000000	1.121970
2512.000000	1.122030
2510.000000	1.122077
2508.000000	1.122105
2506.000000	1.122120
2504.000000	1.122136
2502.000000	1.122112
2500.000000	1.122103
2498.000000	1.122115
2496.000000	1.122126
2494.000000	1.122163
2492.000000	1.122193
2490.000000	1.122171
2488.000000	1.122164
2486.000000	1.122149
2484.000000	1.122138
2482.000000	1.122126
2480.000000	1.122116
2478.000000	1.122103
2476.000000	1.122116
2474.000000	1.122139
2472.000000	1.122203
2470.000000	1.122218
2468.000000	1.122212
2466.000000	1.122283
2464.000000	1.122355
2462.000000	1.122358
2460.000000	1.122373
2458.000000	1.122370
2456.000000	1.122348
2454.000000	1.122404
2452.000000	1.122468
2450.000000	1.122508
2448.000000	1.122588
2446.000000	1.122611
2444.000000	1.122667
2442.000000	1.122727
2440.000000	1.122756
2438.000000	1.122782
2436.000000	1.122802
2434.000000	1.122814
2432.000000	1.122802
2430.000000	1.122811
2428.000000	1.122942
2426.000000	1.123066
2424.000000	1.123198
2422.000000	1.123361
2420.000000	1.123539
2418.000000	1.123680
2416.000000	1.123829
2414.000000	1.123943
2412.000000	1.123984
2410.000000	1.123979
2408.000000	1.123965
2406.000000	1.123952
2404.000000	1.123892
2402.000000	1.123790
2400.000000	1.123734
2398.000000	1.123678
2396.000000	1.123670
2394.000000	1.123687
2392.000000	1.123630
2390.000000	1.123534
2388.000000	1.123486
2386.000000	1.123446
2384.000000	1.123360
2382.000000	1.123177
2380.000000	1.122948
2378.000000	1.122641
2376.000000	1.122249
2374.000000	1.121841
2372.000000	1.121416
2370.000000	1.120986
2368.000000	1.120656
2366.000000	1.120404
2364.000000	1.120281
2362.000000	1.120343
2360.000000	1.120632
2358.000000	1.121014
2356.000000	1.121478
2354.000000	1.122036
2352.000000	1.122576
2350.000000	1.122668
2348.000000	1.122158
2346.000000	1.121557
2344.000000	1.121227
2342.000000	1.121105
2340.000000	1.121116
2338.000000	1.121092
2336.000000	1.121097
2334.000000	1.121156
2332.000000	1.121242
2330.000000	1.121383
2328.000000	1.121588
2326.000000	1.121760
2324.000000	1.121941
2322.000000	1.122103
2320.000000	1.122213
2318.000000	1.122298
2316.000000	1.122430
2314.000000	1.122576
2312.000000	1.122661
2310.000000	1.122689
2308.000000	1.122717
2306.000000	1.122741
2304.000000	1.122813
2302.000000	1.122897
2300.000000	1.122988
2298.000000	1.122984
2296.000000	1.122990
2294.000000	1.123005
2292.000000	1.123012
2290.000000	1.123040
2288.000000	1.123084
2286.000000	1.123097
2284.000000	1.123127
2282.000000	1.123146
2280.000000	1.123152
2278.000000	1.123125
2276.000000	1.123112
2274.000000	1.123124
2272.000000	1.123104
2270.000000	1.123075
2268.000000	1.123081
2266.000000	1.123091
2264.000000	1.123080
2262.000000	1.123078
2260.000000	1.123077
2258.000000	1.123021
2256.000000	1.122980
2254.000000	1.123034
2252.000000	1.123064
2250.000000	1.122963
2248.000000	1.122956
2246.000000	1.122963
2244.000000	1.122903
2242.000000	1.122829
2240.000000	1.122814
2238.000000	1.122758
2236.000000	1.122685
2234.000000	1.122652
2232.000000	1.122607
2230.000000	1.122554
2228.000000	1.122526
2226.000000	1.122486
2224.000000	1.122462
2222.000000	1.122429
2220.000000	1.122368
2218.000000	1.122284
2216.000000	1.122220
2214.000000	1.122189
2212.000000	1.122178
2210.000000	1.122135
2208.000000	1.122113
2206.000000	1.122073
2204.000000	1.122012
2202.000000	1.121954
2200.000000	1.121917
2198.000000	1.121874
2196.000000	1.121833
2194.000000	1.121808
2192.000000	1.121836
2190.000000	1.121794
2188.000000	1.121709
2186.000000	1.121597
2184.000000	1.121543
2182.000000	1.121566
2180.000000	1.121591
2178.000000	1.121558
2176.000000	1.121481
2174.000000	1.121407
2172.000000	1.121339
2170.000000	1.121297
2168.000000	1.121334
2166.000000	1.121316
2164.000000	1.121281
2162.000000	1.121219
2160.000000	1.121150
2158.000000	1.121123
2156.000000	1.121095
2154.000000	1.121024
2152.000000	1.120953
2150.000000	1.120873
2148.000000	1.120897
2146.000000	1.120896
2144.000000	1.120817
2142.000000	1.120696
2140.000000	1.120676
2138.000000	1.120693
2136.000000	1.120715
2134.000000	1.120675
2132.000000	1.120596
2130.000000	1.120563
2128.000000	1.120553
2126.000000	1.120466
2124.000000	1.120401
2122.000000	1.120380
2120.000000	1.120397
2118.000000	1.120365
2116.000000	1.120340
2114.000000	1.120264
2112.000000	1.120238
2110.000000	1.120270
2108.000000	1.120201
2106.000000	1.120124
2104.000000	1.120088
2102.000000	1.120117
2100.000000	1.120224
2098.000000	1.120192
2096.000000	1.120113
2094.000000	1.120142
2092.000000	1.120153
2090.000000	1.120055
2088.000000	1.120017
2086.000000	1.119993
2084.000000	1.119978
2082.000000	1.119917
2080.000000	1.119888
2078.000000	1.119831
2076.000000	1.119771
2074.000000	1.119694
2072.000000	1.119692
2070.000000	1.119701
2068.000000	1.119653
2066.000000	1.119556
2064.000000	1.119546
2062.000000	1.119483
2060.000000	1.119451
2058.000000	1.119492
2056.000000	1.119541
2054.000000	1.119511
2052.000000	1.119459
2050.000000	1.119407
2048.000000	1.119406
2046.000000	1.119392
2044.000000	1.119363
2042.000000	1.119306
2040.000000	1.119325
2038.000000	1.119317
2036.000000	1.119344
2034.000000	1.119272
2032.000000	1.119137
2030.000000	1.119113
2028.000000	1.119178
2026.000000	1.119130
2024.000000	1.119121
2022.000000	1.119181
2020.000000	1.119117
2018.000000	1.118930
2016.000000	1.118980
2014.000000	1.119003
2012.000000	1.118864
2010.000000	1.118807
2008.000000	1.118897
2006.000000	1.118936
2004.000000	1.118816
2002.000000	1.118630
2000.000000	1.118777
1998.000000	1.118907
1996.000000	1.118741
1994.000000	1.118493
1992.000000	1.118496
1990.000000	1.118739
1988.000000	1.118853
1986.000000	1.118861
1984.000000	1.118816
1982.000000	1.118796
1980.000000	1.118800
1978.000000	1.118779
1976.000000	1.118788
1974.000000	1.118740
1972.000000	1.118702
1970.000000	1.118562
1968.000000	1.118410
1966.000000	1.118554
1964.000000	1.118676
1962.000000	1.118615
1960.000000	1.118637
1958.000000	1.118876
1956.000000	1.118892
1954.000000	1.118800
1952.000000	1.118798
1950.000000	1.118747
1948.000000	1.118734
1946.000000	1.118583
1944.000000	1.118300
1942.000000	1.118449
1940.000000	1.118868
1938.000000	1.118924
1936.000000	1.118939
1934.000000	1.118923
1932.000000	1.118898
1930.000000	1.118862
1928.000000	1.118920
1926.000000	1.118818
1924.000000	1.118558
1922.000000	1.118596
1920.000000	1.118254
1918.000000	1.118150
1916.000000	1.118981
1914.000000	1.119139
1912.000000	1.118988
1910.000000	1.118881
1908.000000	1.119041
1906.000000	1.119113
1904.000000	1.119167
1902.000000	1.119238
1900.000000	1.119350
1898.000000	1.119183
1896.000000	1.119028
1894.000000	1.119088
1892.000000	1.118902
1890.000000	1.118627
1888.000000	1.119124
1886.000000	1.119294
1884.000000	1.119275
1882.000000	1.119289
1880.000000	1.119345
1878.000000	1.119381
1876.000000	1.119473
1874.000000	1.119295
1872.000000	1.118606
1870.000000	1.117650
1868.000000	1.118266
1866.000000	1.119178
1864.000000	1.119359
1862.000000	1.119219
1860.000000	1.119226
1858.000000	1.119208
1856.000000	1.119259
1854.000000	1.119198
1852.000000	1.119229
1850.000000	1.119060
1848.000000	1.118555
1846.000000	1.116925
1844.000000	1.117037
1842.000000	1.119013
1840.000000	1.119341
1838.000000	1.119133
1836.000000	1.119208
1834.000000	1.119035
1832.000000	1.118049
1830.000000	1.117740
1828.000000	1.118514
1826.000000	1.118376
1824.000000	1.118978
1822.000000	1.119503
1820.000000	1.119428
1818.000000	1.119317
1816.000000	1.119468
1814.000000	1.119334
1812.000000	1.119027
1810.000000	1.119113
1808.000000	1.119441
1806.000000	1.119369
1804.000000	1.118981
1802.000000	1.118397
1800.000000	1.118618
1798.000000	1.119045
1796.000000	1.118548
1794.000000	1.116714
1792.000000	1.117009
1790.000000	1.119007
1788.000000	1.119294
1786.000000	1.118570
1784.000000	1.118758
1782.000000	1.118790
1780.000000	1.118940
1778.000000	1.119130
1776.000000	1.118027
1774.000000	1.115488
1772.000000	1.115902
1770.000000	1.117878
1768.000000	1.118448
1766.000000	1.119441
1764.000000	1.118495
1762.000000	1.117924
1760.000000	1.118909
1758.000000	1.118642
1756.000000	1.118889
1754.000000	1.118262
1752.000000	1.116309
1750.000000	1.117208
1748.000000	1.118592
1746.000000	1.119078
1744.000000	1.118924
1742.000000	1.118091
1740.000000	1.117819
1738.000000	1.118331
1736.000000	1.114381
1734.000000	1.113490
1732.000000	1.118467
1730.000000	1.120037
1728.000000	1.120372
1726.000000	1.120391
1724.000000	1.120288
1722.000000	1.119682
1720.000000	1.116164
1718.000000	1.113394
1716.000000	1.116625
1714.000000	1.119434
1712.000000	1.120440
1710.000000	1.120082
1708.000000	1.119217
1706.000000	1.118397
1704.000000	1.118080
1702.000000	1.113309
1700.000000	1.112906
1698.000000	1.114714
1696.000000	1.114664
1694.000000	1.119766
1692.000000	1.121019
1690.000000	1.120199
1688.000000	1.118267
1686.000000	1.112880
1684.000000	1.114212
1682.000000	1.119934
1680.000000	1.120859
1678.000000	1.119558
1676.000000	1.117584
1674.000000	1.119078
1672.000000	1.118818
1670.000000	1.117847
1668.000000	1.120040
1666.000000	1.120949
1664.000000	1.119538
1662.000000	1.120227
1660.000000	1.121539
1658.000000	1.120897
1656.000000	1.115387
1654.000000	1.108440
1652.000000	1.114464
1650.000000	1.120098
1648.000000	1.117173
1646.000000	1.117911
1644.000000	1.121460
1642.000000	1.122106
1640.000000	1.121180
1638.000000	1.117897
1636.000000	1.116032
1634.000000	1.120262
1632.000000	1.122428
1630.000000	1.121537
1628.000000	1.120986
1626.000000	1.120472
1624.000000	1.119658
1622.000000	1.120904
1620.000000	1.120440
1618.000000	1.116931
1616.000000	1.118493
1614.000000	1.122001
1612.000000	1.121918
1610.000000	1.121963
1608.000000	1.122564
1606.000000	1.123230
1604.000000	1.123321
1602.000000	1.123466
1600.000000	1.123528
1598.000000	1.123506
1596.000000	1.123308
1594.000000	1.123321
1592.000000	1.123394
1590.000000	1.123462
1588.000000	1.123474
1586.000000	1.123500
1584.000000	1.123566
1582.000000	1.123626
1580.000000	1.122636
1578.000000	1.118690
1576.000000	1.118389
1574.000000	1.122729
1572.000000	1.121861
1570.000000	1.120579
1568.000000	1.122224
1566.000000	1.122767
1564.000000	1.121886
1562.000000	1.116870
1560.000000	1.110723
1558.000000	1.115205
1556.000000	1.120246
1554.000000	1.121539
1552.000000	1.122780
1550.000000	1.122884
1548.000000	1.122728
1546.000000	1.121019
1544.000000	1.118584
1542.000000	1.114733
1540.000000	1.114147
1538.000000	1.120372
1536.000000	1.122349
1534.000000	1.120871
1532.000000	1.122513
1530.000000	1.122866
1528.000000	1.121431
1526.000000	1.120534
1524.000000	1.118903
1522.000000	1.116666
1520.000000	1.119131
1518.000000	1.120552
1516.000000	1.121205
1514.000000	1.121982
1512.000000	1.121631
1510.000000	1.119318
1508.000000	1.114172
1506.000000	1.115514
1504.000000	1.121248
1502.000000	1.121253
1500.000000	1.118286
1498.000000	1.115871
1496.000000	1.118123
1494.000000	1.123096
1492.000000	1.124032
1490.000000	1.123673
1488.000000	1.124256
1486.000000	1.124758
1484.000000	1.124724
1482.000000	1.124070
1480.000000	1.123800
1478.000000	1.122628
1476.000000	1.120852
1474.000000	1.118856
1472.000000	1.120212
1470.000000	1.123076
1468.000000	1.122847
1466.000000	1.121313
1464.000000	1.122042
1462.000000	1.122717
1460.000000	1.119383
1458.000000	1.114856
1456.000000	1.117420
1454.000000	1.121769
1452.000000	1.122783
1450.000000	1.123613
1448.000000	1.124023
1446.000000	1.124353
1444.000000	1.123943
1442.000000	1.123672
1440.000000	1.122507
1438.000000	1.119933
1436.000000	1.120807
1434.000000	1.123131
1432.000000	1.122672
1430.000000	1.122571
1428.000000	1.123116
1426.000000	1.123065
1424.000000	1.122670
1422.000000	1.121426
1420.000000	1.119301
1418.000000	1.121170
1416.000000	1.123117
1414.000000	1.123356
1412.000000	1.123013
1410.000000	1.122784
1408.000000	1.122365
1406.000000	1.122129
1404.000000	1.122871
1402.000000	1.123495
1400.000000	1.122962
1398.000000	1.122966
1396.000000	1.122296
1394.000000	1.122683
1392.000000	1.123621
1390.000000	1.122761
1388.000000	1.121613
1386.000000	1.122461
1384.000000	1.123494
1382.000000	1.123754
1380.000000	1.123431
1378.000000	1.123066
1376.000000	1.122537
1374.000000	1.122463
1372.000000	1.122988
1370.000000	1.123038
1368.000000	1.122999
1366.000000	1.122746
1364.000000	1.121967
1362.000000	1.122039
1360.000000	1.122623
1358.000000	1.122747
1356.000000	1.122614
1354.000000	1.122666
1352.000000	1.122748
1350.000000	1.122715
1348.000000	1.122614
1346.000000	1.122584
1344.000000	1.122402
1342.000000	1.121967
1340.000000	1.121688
1338.000000	1.122028
1336.000000	1.122314
1334.000000	1.122342
1332.000000	1.122291
1330.000000	1.122198
1328.000000	1.122029
1326.000000	1.122033
1324.000000	1.121950
1322.000000	1.121751
1320.000000	1.121422
1318.000000	1.121375
1316.000000	1.121427
1314.000000	1.121436
1312.000000	1.121479
1310.000000	1.121471
1308.000000	1.121257
1306.000000	1.121121
1304.000000	1.121065
1302.000000	1.121090
1300.000000	1.121009
1298.000000	1.120908
1296.000000	1.120801
1294.000000	1.120750
1292.000000	1.120760
1290.000000	1.120773
1288.000000	1.120608
1286.000000	1.120553
1284.000000	1.120508
1282.000000	1.120468
1280.000000	1.120493
1278.000000	1.120496
1276.000000	1.120455
1274.000000	1.120500
1272.000000	1.120547
1270.000000	1.120764
1268.000000	1.121287
1266.000000	1.122443
1264.000000	1.124239
1262.000000	1.126369
1260.000000	1.128165
1258.000000	1.128783
1256.000000	1.127850
1254.000000	1.126181
1252.000000	1.124767
1250.000000	1.123887
1248.000000	1.123488
1246.000000	1.123510
1244.000000	1.123543
1242.000000	1.123684
1240.000000	1.123873
1238.000000	1.124138
1236.000000	1.124488
1234.000000	1.124872
1232.000000	1.125080
1230.000000	1.125280
1228.000000	1.125534
1226.000000	1.125892
1224.000000	1.126166
1222.000000	1.126413
1220.000000	1.126553
1218.000000	1.126727
1216.000000	1.126940
1214.000000	1.127375
1212.000000	1.127777
1210.000000	1.128101
1208.000000	1.128312
1206.000000	1.128582
1204.000000	1.128853
1202.000000	1.129076
1200.000000	1.129338
1198.000000	1.129805
1196.000000	1.130192
1194.000000	1.130639
1192.000000	1.131097
1190.000000	1.131363
1188.000000	1.131543
1186.000000	1.131884
1184.000000	1.132024
1182.000000	1.132320
1180.000000	1.133387
1178.000000	1.134263
1176.000000	1.134442
1174.000000	1.134549
1172.000000	1.134820
1170.000000	1.135281
1168.000000	1.135685
1166.000000	1.136089
1164.000000	1.136477
1162.000000	1.136901
1160.000000	1.137197
1158.000000	1.137493
1156.000000	1.137855
1154.000000	1.138176
1152.000000	1.138505
1150.000000	1.138887
1148.000000	1.139082
1146.000000	1.139362
1144.000000	1.139646
1142.000000	1.140138
1140.000000	1.140653
1138.000000	1.140857
1136.000000	1.140868
1134.000000	1.141089
1132.000000	1.141190
1130.000000	1.141434
1128.000000	1.141758
1126.000000	1.142046
1124.000000	1.142167
1122.000000	1.142420
1120.000000	1.142805
1118.000000	1.142958
1116.000000	1.143139
1114.000000	1.143647
1112.000000	1.144088
1110.000000	1.144723
1108.000000	1.145276
1106.000000	1.145762
1104.000000	1.146115
1102.000000	1.146515
1100.000000	1.146913
1098.000000	1.147476
1096.000000	1.147964
1094.000000	1.148142
1092.000000	1.148400
1090.000000	1.148404
1088.000000	1.148024
1086.000000	1.147832
1084.000000	1.147615
1082.000000	1.147465
1080.000000	1.147266
1078.000000	1.146952
1076.000000	1.146817
1074.000000	1.146707
1072.000000	1.146228
1070.000000	1.145778
1068.000000	1.145545
1066.000000	1.145328
1064.000000	1.144794
1062.000000	1.144019
1060.000000	1.143237
1058.000000	1.142554
1056.000000	1.141721
1054.000000	1.140801
1052.000000	1.140467
1050.000000	1.141505
1048.000000	1.142424
1046.000000	1.141832
1044.000000	1.140622
1042.000000	1.139574
1040.000000	1.138666
1038.000000	1.138124
1036.000000	1.137806
1034.000000	1.137558
1032.000000	1.136824
1030.000000	1.136324
1028.000000	1.136333
1026.000000	1.135749
1024.000000	1.135069
1022.000000	1.135341
1020.000000	1.135549
1018.000000	1.134836
1016.000000	1.133369
1014.000000	1.131843
1012.000000	1.130211
1010.000000	1.128986
1008.000000	1.127902
1006.000000	1.126510
1004.000000	1.124371
1002.000000	1.122005
1000.000000	1.120228
