PE IR       SUBTECH     SPECTRUM    ASCII       PEDS        4.00        
   -1
TE110A_026_80K_AFTER_100K_SB.ASC
20/05/14
12:31:13.00
20/05/14
12:31:13.00
Administrator
TE110A.Thursday, May 14 2020, 009.
1000.000000
#HDR
-1
-1
#GR
cm-1
EGY
1.0
0.0
6000.000000
-2.000000
2501
8
5.582034
0.569308
#DATA
6000.000000	0.858429
5998.000000	0.859505
5996.000000	0.860613
5994.000000	0.862143
5992.000000	0.863477
5990.000000	0.865173
5988.000000	0.866731
5986.000000	0.868733
5984.000000	0.871670
5982.000000	0.873868
5980.000000	0.876481
5978.000000	0.877782
5976.000000	0.878334
5974.000000	0.879572
5972.000000	0.881747
5970.000000	0.884755
5968.000000	0.887650
5966.000000	0.890100
5964.000000	0.891368
5962.000000	0.892449
5960.000000	0.894161
5958.000000	0.895805
5956.000000	0.897322
5954.000000	0.898574
5952.000000	0.900054
5950.000000	0.902282
5948.000000	0.905098
5946.000000	0.907894
5944.000000	0.910051
5942.000000	0.911444
5940.000000	0.912544
5938.000000	0.913484
5936.000000	0.913935
5934.000000	0.916028
5932.000000	0.919501
5930.000000	0.923119
5928.000000	0.925509
5926.000000	0.927083
5924.000000	0.928473
5922.000000	0.929827
5920.000000	0.930914
5918.000000	0.931711
5916.000000	0.933278
5914.000000	0.935397
5912.000000	0.937626
5910.000000	0.940062
5908.000000	0.942631
5906.000000	0.945269
5904.000000	0.947212
5902.000000	0.948167
5900.000000	0.949746
5898.000000	0.952201
5896.000000	0.954452
5894.000000	0.956595
5892.000000	0.958451
5890.000000	0.959736
5888.000000	0.961194
5886.000000	0.963753
5884.000000	0.967426
5882.000000	0.969768
5880.000000	0.970967
5878.000000	0.972299
5876.000000	0.974736
5874.000000	0.976895
5872.000000	0.978550
5870.000000	0.979926
5868.000000	0.981873
5866.000000	0.983935
5864.000000	0.986391
5862.000000	0.988723
5860.000000	0.990539
5858.000000	0.992335
5856.000000	0.994699
5854.000000	0.997769
5852.000000	0.999834
5850.000000	1.000658
5848.000000	1.001799
5846.000000	1.004249
5844.000000	1.006818
5842.000000	1.009084
5840.000000	1.011743
5838.000000	1.014262
5836.000000	1.017005
5834.000000	1.018367
5832.000000	1.019899
5830.000000	1.021504
5828.000000	1.023678
5826.000000	1.026029
5824.000000	1.028333
5822.000000	1.030061
5820.000000	1.032066
5818.000000	1.035283
5816.000000	1.038271
5814.000000	1.039783
5812.000000	1.040215
5810.000000	1.041846
5808.000000	1.044716
5806.000000	1.047802
5804.000000	1.050376
5802.000000	1.052965
5800.000000	1.055753
5798.000000	1.058237
5796.000000	1.060595
5794.000000	1.062187
5792.000000	1.063755
5790.000000	1.065586
5788.000000	1.067727
5786.000000	1.070119
5784.000000	1.072301
5782.000000	1.074472
5780.000000	1.076879
5778.000000	1.078954
5776.000000	1.080698
5774.000000	1.082264
5772.000000	1.084293
5770.000000	1.087145
5768.000000	1.090277
5766.000000	1.092929
5764.000000	1.095293
5762.000000	1.097137
5760.000000	1.098503
5758.000000	1.100114
5756.000000	1.102423
5754.000000	1.104841
5752.000000	1.108060
5750.000000	1.110732
5748.000000	1.112641
5746.000000	1.113973
5744.000000	1.116331
5742.000000	1.119589
5740.000000	1.122735
5738.000000	1.124772
5736.000000	1.125962
5734.000000	1.127314
5732.000000	1.129351
5730.000000	1.131670
5728.000000	1.133982
5726.000000	1.136089
5724.000000	1.138706
5722.000000	1.142502
5720.000000	1.146045
5718.000000	1.147891
5716.000000	1.148493
5714.000000	1.149321
5712.000000	1.151697
5710.000000	1.154929
5708.000000	1.157928
5706.000000	1.161060
5704.000000	1.163622
5702.000000	1.165856
5700.000000	1.168214
5698.000000	1.170708
5696.000000	1.173271
5694.000000	1.175336
5692.000000	1.176852
5690.000000	1.179227
5688.000000	1.181805
5686.000000	1.184831
5684.000000	1.187837
5682.000000	1.190529
5680.000000	1.192437
5678.000000	1.193322
5676.000000	1.195138
5674.000000	1.198413
5672.000000	1.201711
5670.000000	1.204179
5668.000000	1.205973
5666.000000	1.208413
5664.000000	1.211869
5662.000000	1.214632
5660.000000	1.217042
5658.000000	1.218700
5656.000000	1.220652
5654.000000	1.222764
5652.000000	1.224659
5650.000000	1.226690
5648.000000	1.229369
5646.000000	1.231481
5644.000000	1.233776
5642.000000	1.236415
5640.000000	1.238755
5638.000000	1.241489
5636.000000	1.243420
5634.000000	1.246299
5632.000000	1.249711
5630.000000	1.252124
5628.000000	1.254846
5626.000000	1.257760
5624.000000	1.260713
5622.000000	1.263125
5620.000000	1.264188
5618.000000	1.266328
5616.000000	1.269310
5614.000000	1.273162
5612.000000	1.275717
5610.000000	1.276473
5608.000000	1.277564
5606.000000	1.280267
5604.000000	1.284046
5602.000000	1.286822
5600.000000	1.289402
5598.000000	1.291764
5596.000000	1.293968
5594.000000	1.296106
5592.000000	1.298561
5590.000000	1.302513
5588.000000	1.306595
5586.000000	1.309452
5584.000000	1.311061
5582.000000	1.313009
5580.000000	1.316067
5578.000000	1.318509
5576.000000	1.320372
5574.000000	1.322674
5572.000000	1.325947
5570.000000	1.328218
5568.000000	1.329979
5566.000000	1.332305
5564.000000	1.335142
5562.000000	1.337552
5560.000000	1.340470
5558.000000	1.343003
5556.000000	1.345160
5554.000000	1.347097
5552.000000	1.349827
5550.000000	1.353405
5548.000000	1.356422
5546.000000	1.358361
5544.000000	1.359988
5542.000000	1.362355
5540.000000	1.365680
5538.000000	1.368398
5536.000000	1.370490
5534.000000	1.372363
5532.000000	1.374575
5530.000000	1.377501
5528.000000	1.380916
5526.000000	1.384304
5524.000000	1.386281
5522.000000	1.388196
5520.000000	1.390933
5518.000000	1.393581
5516.000000	1.396678
5514.000000	1.399454
5512.000000	1.402472
5510.000000	1.405106
5508.000000	1.407162
5506.000000	1.408347
5504.000000	1.410090
5502.000000	1.414136
5500.000000	1.418262
5498.000000	1.421128
5496.000000	1.422781
5494.000000	1.425187
5492.000000	1.427025
5490.000000	1.428149
5488.000000	1.430530
5486.000000	1.434183
5484.000000	1.438254
5482.000000	1.441583
5480.000000	1.444742
5478.000000	1.447215
5476.000000	1.449490
5474.000000	1.451664
5472.000000	1.454276
5470.000000	1.457307
5468.000000	1.459421
5466.000000	1.461441
5464.000000	1.464280
5462.000000	1.468249
5460.000000	1.471535
5458.000000	1.474177
5456.000000	1.477178
5454.000000	1.480646
5452.000000	1.483419
5450.000000	1.485517
5448.000000	1.486631
5446.000000	1.487159
5444.000000	1.488366
5442.000000	1.491893
5440.000000	1.495981
5438.000000	1.498647
5436.000000	1.500361
5434.000000	1.502722
5432.000000	1.505882
5430.000000	1.508626
5428.000000	1.511115
5426.000000	1.514563
5424.000000	1.518516
5422.000000	1.521986
5420.000000	1.524820
5418.000000	1.527500
5416.000000	1.530265
5414.000000	1.531941
5412.000000	1.532259
5410.000000	1.533607
5408.000000	1.537407
5406.000000	1.542451
5404.000000	1.546311
5402.000000	1.548331
5400.000000	1.549968
5398.000000	1.552500
5396.000000	1.555353
5394.000000	1.558019
5392.000000	1.560439
5390.000000	1.563201
5388.000000	1.566972
5386.000000	1.569713
5384.000000	1.571766
5382.000000	1.574482
5380.000000	1.579075
5378.000000	1.583072
5376.000000	1.584218
5374.000000	1.585034
5372.000000	1.588319
5370.000000	1.592641
5368.000000	1.595449
5366.000000	1.597289
5364.000000	1.599727
5362.000000	1.602936
5360.000000	1.605957
5358.000000	1.609380
5356.000000	1.612394
5354.000000	1.613855
5352.000000	1.615244
5350.000000	1.618621
5348.000000	1.622612
5346.000000	1.624389
5344.000000	1.624940
5342.000000	1.627021
5340.000000	1.630475
5338.000000	1.633238
5336.000000	1.635331
5334.000000	1.638517
5332.000000	1.642564
5330.000000	1.645682
5328.000000	1.647675
5326.000000	1.650186
5324.000000	1.654344
5322.000000	1.658736
5320.000000	1.661596
5318.000000	1.663324
5316.000000	1.665641
5314.000000	1.668735
5312.000000	1.672236
5310.000000	1.674911
5308.000000	1.677164
5306.000000	1.679025
5304.000000	1.681716
5302.000000	1.685288
5300.000000	1.687723
5298.000000	1.689543
5296.000000	1.692500
5294.000000	1.696396
5292.000000	1.699368
5290.000000	1.701148
5288.000000	1.704009
5286.000000	1.708219
5284.000000	1.712488
5282.000000	1.715587
5280.000000	1.717942
5278.000000	1.720773
5276.000000	1.723631
5274.000000	1.725943
5272.000000	1.727788
5270.000000	1.729646
5268.000000	1.731453
5266.000000	1.733103
5264.000000	1.735978
5262.000000	1.739675
5260.000000	1.743801
5258.000000	1.747503
5256.000000	1.749903
5254.000000	1.752422
5252.000000	1.756532
5250.000000	1.760256
5248.000000	1.761523
5246.000000	1.761560
5244.000000	1.763429
5242.000000	1.767469
5240.000000	1.771867
5238.000000	1.775568
5236.000000	1.778075
5234.000000	1.781042
5232.000000	1.784273
5230.000000	1.786799
5228.000000	1.788356
5226.000000	1.789772
5224.000000	1.792143
5222.000000	1.795786
5220.000000	1.800049
5218.000000	1.803718
5216.000000	1.806094
5214.000000	1.808552
5212.000000	1.811317
5210.000000	1.813415
5208.000000	1.814267
5206.000000	1.815895
5204.000000	1.819796
5202.000000	1.824620
5200.000000	1.827947
5198.000000	1.831035
5196.000000	1.834899
5194.000000	1.839500
5192.000000	1.842784
5190.000000	1.844514
5188.000000	1.846072
5186.000000	1.848589
5184.000000	1.852303
5182.000000	1.856011
5180.000000	1.859093
5178.000000	1.861434
5176.000000	1.863804
5174.000000	1.866493
5172.000000	1.869981
5170.000000	1.873688
5168.000000	1.876554
5166.000000	1.878475
5164.000000	1.880175
5162.000000	1.882634
5160.000000	1.886790
5158.000000	1.890753
5156.000000	1.893431
5154.000000	1.895904
5152.000000	1.899821
5150.000000	1.903168
5148.000000	1.904993
5146.000000	1.907405
5144.000000	1.910726
5142.000000	1.913906
5140.000000	1.916385
5138.000000	1.919353
5136.000000	1.922320
5134.000000	1.924745
5132.000000	1.926734
5130.000000	1.929040
5128.000000	1.931892
5126.000000	1.935186
5124.000000	1.939107
5122.000000	1.942732
5120.000000	1.945617
5118.000000	1.948673
5116.000000	1.951753
5114.000000	1.954808
5112.000000	1.957744
5110.000000	1.960218
5108.000000	1.962347
5106.000000	1.964694
5104.000000	1.967664
5102.000000	1.970824
5100.000000	1.973996
5098.000000	1.977018
5096.000000	1.980501
5094.000000	1.984475
5092.000000	1.987691
5090.000000	1.989937
5088.000000	1.992933
5086.000000	1.995952
5084.000000	1.998837
5082.000000	2.001759
5080.000000	2.005243
5078.000000	2.008139
5076.000000	2.010825
5074.000000	2.013543
5072.000000	2.016661
5070.000000	2.019856
5068.000000	2.022424
5066.000000	2.025371
5064.000000	2.029363
5062.000000	2.032971
5060.000000	2.035109
5058.000000	2.036870
5056.000000	2.039839
5054.000000	2.043452
5052.000000	2.047295
5050.000000	2.051224
5048.000000	2.054577
5046.000000	2.057132
5044.000000	2.058819
5042.000000	2.061198
5040.000000	2.064384
5038.000000	2.067582
5036.000000	2.070588
5034.000000	2.074153
5032.000000	2.077747
5030.000000	2.079845
5028.000000	2.081093
5026.000000	2.083187
5024.000000	2.086067
5022.000000	2.089732
5020.000000	2.093592
5018.000000	2.097263
5016.000000	2.099992
5014.000000	2.102462
5012.000000	2.105346
5010.000000	2.108485
5008.000000	2.112108
5006.000000	2.116224
5004.000000	2.119691
5002.000000	2.121534
5000.000000	2.123198
4998.000000	2.126492
4996.000000	2.130582
4994.000000	2.134100
4992.000000	2.137016
4990.000000	2.139795
4988.000000	2.142246
4986.000000	2.144982
4984.000000	2.148473
4982.000000	2.152397
4980.000000	2.155932
4978.000000	2.159332
4976.000000	2.163057
4974.000000	2.166253
4972.000000	2.168542
4970.000000	2.170869
4968.000000	2.174228
4966.000000	2.177518
4964.000000	2.180280
4962.000000	2.183377
4960.000000	2.186375
4958.000000	2.188198
4956.000000	2.190576
4954.000000	2.194829
4952.000000	2.198919
4950.000000	2.201423
4948.000000	2.203735
4946.000000	2.206486
4944.000000	2.209642
4942.000000	2.212344
4940.000000	2.215066
4938.000000	2.218493
4936.000000	2.222548
4934.000000	2.225744
4932.000000	2.228065
4930.000000	2.230753
4928.000000	2.233705
4926.000000	2.237404
4924.000000	2.240747
4922.000000	2.243275
4920.000000	2.245496
4918.000000	2.249037
4916.000000	2.253193
4914.000000	2.256489
4912.000000	2.259057
4910.000000	2.261811
4908.000000	2.265792
4906.000000	2.269445
4904.000000	2.272661
4902.000000	2.275168
4900.000000	2.278277
4898.000000	2.281922
4896.000000	2.286143
4894.000000	2.289950
4892.000000	2.292306
4890.000000	2.294031
4888.000000	2.296403
4886.000000	2.299280
4884.000000	2.301806
4882.000000	2.304855
4880.000000	2.308396
4878.000000	2.312214
4876.000000	2.316125
4874.000000	2.319516
4872.000000	2.322251
4870.000000	2.325689
4868.000000	2.329469
4866.000000	2.332172
4864.000000	2.334207
4862.000000	2.336450
4860.000000	2.340172
4858.000000	2.344043
4856.000000	2.347576
4854.000000	2.350498
4852.000000	2.353057
4850.000000	2.354713
4848.000000	2.356325
4846.000000	2.358901
4844.000000	2.362323
4842.000000	2.366299
4840.000000	2.369434
4838.000000	2.372733
4836.000000	2.376778
4834.000000	2.380521
4832.000000	2.382991
4830.000000	2.386344
4828.000000	2.390444
4826.000000	2.393406
4824.000000	2.395771
4822.000000	2.399005
4820.000000	2.402699
4818.000000	2.405774
4816.000000	2.408539
4814.000000	2.410877
4812.000000	2.413582
4810.000000	2.416901
4808.000000	2.420401
4806.000000	2.423451
4804.000000	2.426823
4802.000000	2.430205
4800.000000	2.432979
4798.000000	2.435850
4796.000000	2.439517
4794.000000	2.443666
4792.000000	2.446964
4790.000000	2.449574
4788.000000	2.452087
4786.000000	2.455724
4784.000000	2.459411
4782.000000	2.462767
4780.000000	2.465714
4778.000000	2.468954
4776.000000	2.472097
4774.000000	2.475202
4772.000000	2.478672
4770.000000	2.482125
4768.000000	2.484671
4766.000000	2.487151
4764.000000	2.490608
4762.000000	2.494567
4760.000000	2.498241
4758.000000	2.501774
4756.000000	2.504634
4754.000000	2.506907
4752.000000	2.509991
4750.000000	2.514532
4748.000000	2.518827
4746.000000	2.521445
4744.000000	2.523102
4742.000000	2.525153
4740.000000	2.527581
4738.000000	2.530399
4736.000000	2.533736
4734.000000	2.537433
4732.000000	2.540807
4730.000000	2.543816
4728.000000	2.546973
4726.000000	2.550817
4724.000000	2.554171
4722.000000	2.557238
4720.000000	2.560747
4718.000000	2.564458
4716.000000	2.567144
4714.000000	2.569993
4712.000000	2.573555
4710.000000	2.577305
4708.000000	2.581443
4706.000000	2.585529
4704.000000	2.588414
4702.000000	2.590474
4700.000000	2.593148
4698.000000	2.596952
4696.000000	2.600974
4694.000000	2.604768
4692.000000	2.608225
4690.000000	2.612081
4688.000000	2.615806
4686.000000	2.618489
4684.000000	2.620294
4682.000000	2.622964
4680.000000	2.626840
4678.000000	2.630554
4676.000000	2.633633
4674.000000	2.636436
4672.000000	2.639581
4670.000000	2.642254
4668.000000	2.644764
4666.000000	2.647939
4664.000000	2.651857
4662.000000	2.654847
4660.000000	2.657616
4658.000000	2.660925
4656.000000	2.664448
4654.000000	2.667819
4652.000000	2.671569
4650.000000	2.675151
4648.000000	2.678891
4646.000000	2.683232
4644.000000	2.687044
4642.000000	2.689994
4640.000000	2.693379
4638.000000	2.697340
4636.000000	2.700305
4634.000000	2.702258
4632.000000	2.704261
4630.000000	2.707305
4628.000000	2.710841
4626.000000	2.714236
4624.000000	2.717930
4622.000000	2.721997
4620.000000	2.725475
4618.000000	2.728038
4616.000000	2.731050
4614.000000	2.735800
4612.000000	2.740376
4610.000000	2.742832
4608.000000	2.745503
4606.000000	2.750288
4604.000000	2.755250
4602.000000	2.758668
4600.000000	2.761792
4598.000000	2.765431
4596.000000	2.768906
4594.000000	2.771861
4592.000000	2.774692
4590.000000	2.777073
4588.000000	2.779715
4586.000000	2.783077
4584.000000	2.785696
4582.000000	2.788111
4580.000000	2.791909
4578.000000	2.796050
4576.000000	2.799866
4574.000000	2.803514
4572.000000	2.806380
4570.000000	2.808928
4568.000000	2.812519
4566.000000	2.816987
4564.000000	2.820890
4562.000000	2.823855
4560.000000	2.826420
4558.000000	2.829053
4556.000000	2.831768
4554.000000	2.835890
4552.000000	2.840704
4550.000000	2.844631
4548.000000	2.847429
4546.000000	2.850410
4544.000000	2.853272
4542.000000	2.857111
4540.000000	2.862259
4538.000000	2.866893
4536.000000	2.869367
4534.000000	2.871681
4532.000000	2.875245
4530.000000	2.878934
4528.000000	2.881979
4526.000000	2.885346
4524.000000	2.889257
4522.000000	2.892553
4520.000000	2.896005
4518.000000	2.900261
4516.000000	2.903960
4514.000000	2.906439
4512.000000	2.909186
4510.000000	2.912100
4508.000000	2.915243
4506.000000	2.919498
4504.000000	2.924600
4502.000000	2.929065
4500.000000	2.932030
4498.000000	2.933531
4496.000000	2.935419
4494.000000	2.939368
4492.000000	2.944376
4490.000000	2.948198
4488.000000	2.951119
4486.000000	2.953783
4484.000000	2.956707
4482.000000	2.959870
4480.000000	2.963968
4478.000000	2.967749
4476.000000	2.971030
4474.000000	2.974175
4472.000000	2.978349
4470.000000	2.982845
4468.000000	2.986382
4466.000000	2.988902
4464.000000	2.991546
4462.000000	2.995147
4460.000000	2.999238
4458.000000	3.003363
4456.000000	3.006733
4454.000000	3.009288
4452.000000	3.011620
4450.000000	3.014871
4448.000000	3.018338
4446.000000	3.021702
4444.000000	3.025854
4442.000000	3.030002
4440.000000	3.033060
4438.000000	3.035529
4436.000000	3.038715
4434.000000	3.042705
4432.000000	3.046820
4430.000000	3.050504
4428.000000	3.053159
4426.000000	3.054983
4424.000000	3.057697
4422.000000	3.061654
4420.000000	3.066037
4418.000000	3.070272
4416.000000	3.074222
4414.000000	3.078200
4412.000000	3.081844
4410.000000	3.083761
4408.000000	3.085670
4406.000000	3.089329
4404.000000	3.094200
4402.000000	3.098983
4400.000000	3.103726
4398.000000	3.107323
4396.000000	3.109448
4394.000000	3.112298
4392.000000	3.117100
4390.000000	3.120968
4388.000000	3.123240
4386.000000	3.125663
4384.000000	3.128391
4382.000000	3.131303
4380.000000	3.134696
4378.000000	3.137841
4376.000000	3.140699
4374.000000	3.143388
4372.000000	3.146941
4370.000000	3.151492
4368.000000	3.155453
4366.000000	3.158663
4364.000000	3.161517
4362.000000	3.163203
4360.000000	3.165286
4358.000000	3.169391
4356.000000	3.174426
4354.000000	3.178396
4352.000000	3.181462
4350.000000	3.184918
4348.000000	3.188455
4346.000000	3.191847
4344.000000	3.195715
4342.000000	3.198853
4340.000000	3.201416
4338.000000	3.204911
4336.000000	3.208558
4334.000000	3.211592
4332.000000	3.214867
4330.000000	3.218989
4328.000000	3.223337
4326.000000	3.226863
4324.000000	3.230032
4322.000000	3.233997
4320.000000	3.238438
4318.000000	3.242331
4316.000000	3.245911
4314.000000	3.249681
4312.000000	3.253474
4310.000000	3.256445
4308.000000	3.259147
4306.000000	3.262784
4304.000000	3.267551
4302.000000	3.271958
4300.000000	3.275192
4298.000000	3.278052
4296.000000	3.282024
4294.000000	3.286349
4292.000000	3.289983
4290.000000	3.293407
4288.000000	3.296537
4286.000000	3.299075
4284.000000	3.302044
4282.000000	3.306009
4280.000000	3.310561
4278.000000	3.314137
4276.000000	3.316267
4274.000000	3.318855
4272.000000	3.322874
4270.000000	3.327040
4268.000000	3.330022
4266.000000	3.331195
4264.000000	3.332943
4262.000000	3.337186
4260.000000	3.341579
4258.000000	3.344967
4256.000000	3.349287
4254.000000	3.353927
4252.000000	3.357291
4250.000000	3.359607
4248.000000	3.362575
4246.000000	3.366997
4244.000000	3.371515
4242.000000	3.375061
4240.000000	3.378195
4238.000000	3.381473
4236.000000	3.385248
4234.000000	3.389427
4232.000000	3.393499
4230.000000	3.397292
4228.000000	3.401187
4226.000000	3.404793
4224.000000	3.407519
4222.000000	3.410161
4220.000000	3.413774
4218.000000	3.417796
4216.000000	3.421722
4214.000000	3.426042
4212.000000	3.430175
4210.000000	3.432777
4208.000000	3.435058
4206.000000	3.439105
4204.000000	3.444006
4202.000000	3.448042
4200.000000	3.451274
4198.000000	3.455028
4196.000000	3.459519
4194.000000	3.463065
4192.000000	3.465811
4190.000000	3.469304
4188.000000	3.473520
4186.000000	3.477403
4184.000000	3.480995
4182.000000	3.485154
4180.000000	3.489482
4178.000000	3.492772
4176.000000	3.495695
4174.000000	3.499504
4172.000000	3.503110
4170.000000	3.506280
4168.000000	3.511127
4166.000000	3.516456
4164.000000	3.519833
4162.000000	3.522412
4160.000000	3.525868
4158.000000	3.529133
4156.000000	3.531535
4154.000000	3.535006
4152.000000	3.539142
4150.000000	3.542877
4148.000000	3.547354
4146.000000	3.551416
4144.000000	3.554285
4142.000000	3.558152
4140.000000	3.563311
4138.000000	3.567652
4136.000000	3.570807
4134.000000	3.574511
4132.000000	3.578520
4130.000000	3.582023
4128.000000	3.586042
4126.000000	3.590764
4124.000000	3.595909
4122.000000	3.600017
4120.000000	3.602131
4118.000000	3.604955
4116.000000	3.609100
4114.000000	3.612998
4112.000000	3.616571
4110.000000	3.620186
4108.000000	3.623437
4106.000000	3.626974
4104.000000	3.630742
4102.000000	3.634130
4100.000000	3.637812
4098.000000	3.642225
4096.000000	3.646740
4094.000000	3.650744
4092.000000	3.653629
4090.000000	3.656782
4088.000000	3.660163
4086.000000	3.663066
4084.000000	3.667359
4082.000000	3.672768
4080.000000	3.676535
4078.000000	3.679443
4076.000000	3.683293
4074.000000	3.687529
4072.000000	3.691365
4070.000000	3.695150
4068.000000	3.698571
4066.000000	3.701575
4064.000000	3.704887
4062.000000	3.709738
4060.000000	3.715327
4058.000000	3.719837
4056.000000	3.723697
4054.000000	3.727124
4052.000000	3.730100
4050.000000	3.734050
4048.000000	3.738738
4046.000000	3.742276
4044.000000	3.744656
4042.000000	3.748560
4040.000000	3.753463
4038.000000	3.757164
4036.000000	3.760542
4034.000000	3.764240
4032.000000	3.768102
4030.000000	3.772609
4028.000000	3.776993
4026.000000	3.780694
4024.000000	3.784521
4022.000000	3.788512
4020.000000	3.792163
4018.000000	3.795620
4016.000000	3.800021
4014.000000	3.805406
4012.000000	3.810585
4010.000000	3.815119
4008.000000	3.818757
4006.000000	3.821494
4004.000000	3.824560
4002.000000	3.828211
4000.000000	3.831689
3998.000000	3.835468
3996.000000	3.838869
3994.000000	3.841797
3992.000000	3.845585
3990.000000	3.849177
3988.000000	3.853223
3986.000000	3.858154
3984.000000	3.861793
3982.000000	3.865168
3980.000000	3.869114
3978.000000	3.873287
3976.000000	3.878048
3974.000000	3.881972
3972.000000	3.885139
3970.000000	3.888532
3968.000000	3.892246
3966.000000	3.896650
3964.000000	3.900610
3962.000000	3.903513
3960.000000	3.906735
3958.000000	3.910734
3956.000000	3.914932
3954.000000	3.918506
3952.000000	3.920979
3950.000000	3.922673
3948.000000	3.924963
3946.000000	3.928965
3944.000000	3.933510
3942.000000	3.936499
3940.000000	3.940232
3938.000000	3.946967
3936.000000	3.953411
3934.000000	3.955389
3932.000000	3.954027
3930.000000	3.955583
3928.000000	3.961987
3926.000000	3.966697
3924.000000	3.967731
3922.000000	3.971271
3920.000000	3.976381
3918.000000	3.976914
3916.000000	3.978112
3914.000000	3.987332
3912.000000	3.999311
3910.000000	4.005961
3908.000000	4.006609
3906.000000	3.999686
3904.000000	3.984732
3902.000000	3.973549
3900.000000	3.976597
3898.000000	3.991847
3896.000000	4.012860
3894.000000	4.026308
3892.000000	4.021899
3890.000000	4.015538
3888.000000	4.020784
3886.000000	4.019653
3884.000000	4.015007
3882.000000	4.025069
3880.000000	4.035520
3878.000000	4.043492
3876.000000	4.055040
3874.000000	4.057143
3872.000000	4.047189
3870.000000	4.030444
3868.000000	4.026344
3866.000000	4.042214
3864.000000	4.052352
3862.000000	4.058379
3860.000000	4.073307
3858.000000	4.083733
3856.000000	4.061836
3854.000000	3.998696
3852.000000	3.964120
3850.000000	4.013646
3848.000000	4.084736
3846.000000	4.115437
3844.000000	4.116426
3842.000000	4.108301
3840.000000	4.093200
3838.000000	4.068492
3836.000000	4.060771
3834.000000	4.087211
3832.000000	4.115049
3830.000000	4.129628
3828.000000	4.141906
3826.000000	4.148616
3824.000000	4.146730
3822.000000	4.131141
3820.000000	4.114879
3818.000000	4.116900
3816.000000	4.116041
3814.000000	4.122362
3812.000000	4.158919
3810.000000	4.184380
3808.000000	4.173528
3806.000000	4.156057
3804.000000	4.155789
3802.000000	4.148612
3800.000000	4.137404
3798.000000	4.159727
3796.000000	4.190082
3794.000000	4.204546
3792.000000	4.217249
3790.000000	4.227006
3788.000000	4.230751
3786.000000	4.231625
3784.000000	4.232736
3782.000000	4.235317
3780.000000	4.234531
3778.000000	4.234180
3776.000000	4.243820
3774.000000	4.255361
3772.000000	4.255681
3770.000000	4.245195
3768.000000	4.240117
3766.000000	4.247886
3764.000000	4.258009
3762.000000	4.265845
3760.000000	4.265863
3758.000000	4.261963
3756.000000	4.265898
3754.000000	4.257664
3752.000000	4.216914
3750.000000	4.181153
3748.000000	4.191230
3746.000000	4.207129
3744.000000	4.190469
3742.000000	4.207187
3740.000000	4.269854
3738.000000	4.292937
3736.000000	4.271491
3734.000000	4.257908
3732.000000	4.266953
3730.000000	4.291509
3728.000000	4.318676
3726.000000	4.329035
3724.000000	4.329610
3722.000000	4.335532
3720.000000	4.345022
3718.000000	4.355483
3716.000000	4.362336
3714.000000	4.355187
3712.000000	4.330449
3710.000000	4.317612
3708.000000	4.338075
3706.000000	4.367997
3704.000000	4.382755
3702.000000	4.381311
3700.000000	4.379647
3698.000000	4.389501
3696.000000	4.401044
3694.000000	4.404405
3692.000000	4.393672
3690.000000	4.365341
3688.000000	4.340789
3686.000000	4.357710
3684.000000	4.402374
3682.000000	4.425373
3680.000000	4.423364
3678.000000	4.406039
3676.000000	4.370374
3674.000000	4.351254
3672.000000	4.367904
3670.000000	4.375043
3668.000000	4.384638
3666.000000	4.423669
3664.000000	4.454265
3662.000000	4.462955
3660.000000	4.464261
3658.000000	4.457652
3656.000000	4.442316
3654.000000	4.439232
3652.000000	4.440183
3650.000000	4.412654
3648.000000	4.388735
3646.000000	4.411358
3644.000000	4.454068
3642.000000	4.478377
3640.000000	4.485088
3638.000000	4.487272
3636.000000	4.487724
3634.000000	4.485740
3632.000000	4.477503
3630.000000	4.449960
3628.000000	4.421596
3626.000000	4.440222
3624.000000	4.482748
3622.000000	4.496820
3620.000000	4.482298
3618.000000	4.467933
3616.000000	4.474584
3614.000000	4.484180
3612.000000	4.481393
3610.000000	4.475914
3608.000000	4.474363
3606.000000	4.484474
3604.000000	4.501666
3602.000000	4.510151
3600.000000	4.509581
3598.000000	4.507695
3596.000000	4.505347
3594.000000	4.503093
3592.000000	4.504649
3590.000000	4.502571
3588.000000	4.489592
3586.000000	4.483598
3584.000000	4.497397
3582.000000	4.512719
3580.000000	4.517192
3578.000000	4.517235
3576.000000	4.517027
3574.000000	4.517421
3572.000000	4.518579
3570.000000	4.513224
3568.000000	4.497177
3566.000000	4.485760
3564.000000	4.492556
3562.000000	4.505401
3560.000000	4.511814
3558.000000	4.512991
3556.000000	4.512849
3554.000000	4.511715
3552.000000	4.508055
3550.000000	4.505233
3548.000000	4.503708
3546.000000	4.499805
3544.000000	4.497701
3542.000000	4.500498
3540.000000	4.504641
3538.000000	4.505578
3536.000000	4.502449
3534.000000	4.499560
3532.000000	4.498572
3530.000000	4.494513
3528.000000	4.487167
3526.000000	4.482101
3524.000000	4.479351
3522.000000	4.477309
3520.000000	4.476440
3518.000000	4.474697
3516.000000	4.471387
3514.000000	4.467632
3512.000000	4.463223
3510.000000	4.457979
3508.000000	4.453324
3506.000000	4.450045
3504.000000	4.444489
3502.000000	4.436925
3500.000000	4.433086
3498.000000	4.430563
3496.000000	4.424698
3494.000000	4.418545
3492.000000	4.414330
3490.000000	4.409296
3488.000000	4.402623
3486.000000	4.395921
3484.000000	4.391172
3482.000000	4.387471
3480.000000	4.383369
3478.000000	4.379783
3476.000000	4.376269
3474.000000	4.372611
3472.000000	4.369961
3470.000000	4.367377
3468.000000	4.364065
3466.000000	4.361300
3464.000000	4.359590
3462.000000	4.357396
3460.000000	4.354923
3458.000000	4.352917
3456.000000	4.351327
3454.000000	4.349658
3452.000000	4.346415
3450.000000	4.342036
3448.000000	4.336700
3446.000000	4.331289
3444.000000	4.328907
3442.000000	4.328284
3440.000000	4.327935
3438.000000	4.328579
3436.000000	4.329283
3434.000000	4.329769
3432.000000	4.331565
3430.000000	4.333681
3428.000000	4.336238
3426.000000	4.340426
3424.000000	4.343743
3422.000000	4.344711
3420.000000	4.346413
3418.000000	4.349151
3416.000000	4.351472
3414.000000	4.353721
3412.000000	4.354863
3410.000000	4.355176
3408.000000	4.355385
3406.000000	4.354948
3404.000000	4.354295
3402.000000	4.354249
3400.000000	4.355268
3398.000000	4.356231
3396.000000	4.357357
3394.000000	4.359393
3392.000000	4.362278
3390.000000	4.364819
3388.000000	4.367260
3386.000000	4.369604
3384.000000	4.370477
3382.000000	4.371290
3380.000000	4.373180
3378.000000	4.374993
3376.000000	4.376280
3374.000000	4.377091
3372.000000	4.377751
3370.000000	4.378111
3368.000000	4.378180
3366.000000	4.379278
3364.000000	4.380905
3362.000000	4.382568
3360.000000	4.384631
3358.000000	4.385718
3356.000000	4.386746
3354.000000	4.388819
3352.000000	4.390233
3350.000000	4.390436
3348.000000	4.392066
3346.000000	4.394904
3344.000000	4.395768
3342.000000	4.395975
3340.000000	4.397435
3338.000000	4.399116
3336.000000	4.400303
3334.000000	4.401827
3332.000000	4.404069
3330.000000	4.405480
3328.000000	4.406016
3326.000000	4.406865
3324.000000	4.407670
3322.000000	4.408116
3320.000000	4.409478
3318.000000	4.411811
3316.000000	4.413671
3314.000000	4.414493
3312.000000	4.415334
3310.000000	4.416984
3308.000000	4.417932
3306.000000	4.419153
3304.000000	4.420810
3302.000000	4.421294
3300.000000	4.421816
3298.000000	4.422413
3296.000000	4.423510
3294.000000	4.425244
3292.000000	4.426581
3290.000000	4.428795
3288.000000	4.430641
3286.000000	4.431483
3284.000000	4.432945
3282.000000	4.434574
3280.000000	4.434870
3278.000000	4.434929
3276.000000	4.436509
3274.000000	4.438884
3272.000000	4.440872
3270.000000	4.442910
3268.000000	4.444468
3266.000000	4.445163
3264.000000	4.446913
3262.000000	4.448868
3260.000000	4.450178
3258.000000	4.452537
3256.000000	4.455491
3254.000000	4.457609
3252.000000	4.458985
3250.000000	4.459987
3248.000000	4.461652
3246.000000	4.463373
3244.000000	4.465811
3242.000000	4.469368
3240.000000	4.472680
3238.000000	4.475275
3236.000000	4.477129
3234.000000	4.477959
3232.000000	4.479119
3230.000000	4.480554
3228.000000	4.481256
3226.000000	4.483629
3224.000000	4.486831
3222.000000	4.488265
3220.000000	4.489986
3218.000000	4.492217
3216.000000	4.494982
3214.000000	4.497892
3212.000000	4.500313
3210.000000	4.502629
3208.000000	4.505644
3206.000000	4.509401
3204.000000	4.512216
3202.000000	4.515046
3200.000000	4.518642
3198.000000	4.522498
3196.000000	4.527563
3194.000000	4.532107
3192.000000	4.535788
3190.000000	4.539685
3188.000000	4.543019
3186.000000	4.546171
3184.000000	4.549787
3182.000000	4.553941
3180.000000	4.557186
3178.000000	4.560254
3176.000000	4.563615
3174.000000	4.566729
3172.000000	4.570485
3170.000000	4.575290
3168.000000	4.579602
3166.000000	4.582501
3164.000000	4.586795
3162.000000	4.591812
3160.000000	4.595430
3158.000000	4.597787
3156.000000	4.600653
3154.000000	4.604837
3152.000000	4.608897
3150.000000	4.612395
3148.000000	4.615543
3146.000000	4.618825
3144.000000	4.623090
3142.000000	4.627486
3140.000000	4.631267
3138.000000	4.634774
3136.000000	4.637124
3134.000000	4.639590
3132.000000	4.643347
3130.000000	4.648352
3128.000000	4.651809
3126.000000	4.652594
3124.000000	4.654674
3122.000000	4.658220
3120.000000	4.661078
3118.000000	4.663341
3116.000000	4.665613
3114.000000	4.667950
3112.000000	4.671601
3110.000000	4.676240
3108.000000	4.679777
3106.000000	4.682327
3104.000000	4.684137
3102.000000	4.687090
3100.000000	4.692203
3098.000000	4.695955
3096.000000	4.698659
3094.000000	4.702589
3092.000000	4.707405
3090.000000	4.712063
3088.000000	4.715071
3086.000000	4.717172
3084.000000	4.720872
3082.000000	4.725052
3080.000000	4.728500
3078.000000	4.731519
3076.000000	4.734168
3074.000000	4.736937
3072.000000	4.740167
3070.000000	4.741350
3068.000000	4.741457
3066.000000	4.742876
3064.000000	4.745522
3062.000000	4.748772
3060.000000	4.753107
3058.000000	4.755910
3056.000000	4.758142
3054.000000	4.762305
3052.000000	4.766355
3050.000000	4.771072
3048.000000	4.775959
3046.000000	4.778538
3044.000000	4.781459
3042.000000	4.784336
3040.000000	4.786042
3038.000000	4.787935
3036.000000	4.789587
3034.000000	4.789956
3032.000000	4.790051
3030.000000	4.789629
3028.000000	4.788077
3026.000000	4.785004
3024.000000	4.779699
3022.000000	4.772765
3020.000000	4.767368
3018.000000	4.766053
3016.000000	4.770251
3014.000000	4.780265
3012.000000	4.794107
3010.000000	4.809700
3008.000000	4.824866
3006.000000	4.836748
3004.000000	4.845059
3002.000000	4.850827
3000.000000	4.854841
2998.000000	4.857648
2996.000000	4.860126
2994.000000	4.862652
2992.000000	4.864279
2990.000000	4.864769
2988.000000	4.864865
2986.000000	4.864369
2984.000000	4.861586
2982.000000	4.857265
2980.000000	4.852101
2978.000000	4.844750
2976.000000	4.834519
2974.000000	4.820123
2972.000000	4.800059
2970.000000	4.773808
2968.000000	4.743457
2966.000000	4.711901
2964.000000	4.684934
2962.000000	4.668504
2960.000000	4.665088
2958.000000	4.673210
2956.000000	4.687555
2954.000000	4.703166
2952.000000	4.717467
2950.000000	4.727725
2948.000000	4.731312
2946.000000	4.727449
2944.000000	4.717046
2942.000000	4.700671
2940.000000	4.678376
2938.000000	4.651239
2936.000000	4.623979
2934.000000	4.600757
2932.000000	4.580868
2930.000000	4.561996
2928.000000	4.542209
2926.000000	4.526240
2924.000000	4.522711
2922.000000	4.536429
2920.000000	4.564102
2918.000000	4.602511
2916.000000	4.648094
2914.000000	4.693201
2912.000000	4.732827
2910.000000	4.765945
2908.000000	4.793320
2906.000000	4.815370
2904.000000	4.833510
2902.000000	4.848948
2900.000000	4.863726
2898.000000	4.877284
2896.000000	4.889726
2894.000000	4.902392
2892.000000	4.915611
2890.000000	4.927059
2888.000000	4.937343
2886.000000	4.946418
2884.000000	4.952944
2882.000000	4.957358
2880.000000	4.959351
2878.000000	4.958488
2876.000000	4.954843
2874.000000	4.948319
2872.000000	4.938443
2870.000000	4.923374
2868.000000	4.902071
2866.000000	4.875190
2864.000000	4.845297
2862.000000	4.819414
2860.000000	4.805908
2858.000000	4.808170
2856.000000	4.821389
2854.000000	4.839256
2852.000000	4.859624
2850.000000	4.883322
2848.000000	4.912750
2846.000000	4.946131
2844.000000	4.978109
2842.000000	5.004721
2840.000000	5.025553
2838.000000	5.041605
2836.000000	5.054140
2834.000000	5.064250
2832.000000	5.072959
2830.000000	5.081262
2828.000000	5.089571
2826.000000	5.097270
2824.000000	5.102990
2822.000000	5.108074
2820.000000	5.114691
2818.000000	5.118863
2816.000000	5.122254
2814.000000	5.126031
2812.000000	5.129735
2810.000000	5.133687
2808.000000	5.137612
2806.000000	5.141031
2804.000000	5.143105
2802.000000	5.145237
2800.000000	5.148984
2798.000000	5.152380
2796.000000	5.154414
2794.000000	5.155858
2792.000000	5.157808
2790.000000	5.160922
2788.000000	5.164631
2786.000000	5.168658
2784.000000	5.174150
2782.000000	5.179843
2780.000000	5.184268
2778.000000	5.187597
2776.000000	5.191623
2774.000000	5.195496
2772.000000	5.198575
2770.000000	5.201829
2768.000000	5.205512
2766.000000	5.208417
2764.000000	5.210547
2762.000000	5.212803
2760.000000	5.215209
2758.000000	5.218058
2756.000000	5.220914
2754.000000	5.223041
2752.000000	5.223924
2750.000000	5.224916
2748.000000	5.227996
2746.000000	5.230237
2744.000000	5.231186
2742.000000	5.233494
2740.000000	5.235339
2738.000000	5.235415
2736.000000	5.236774
2734.000000	5.239939
2732.000000	5.242645
2730.000000	5.243540
2728.000000	5.243992
2726.000000	5.245166
2724.000000	5.246411
2722.000000	5.247825
2720.000000	5.248966
2718.000000	5.249956
2716.000000	5.251113
2714.000000	5.251918
2712.000000	5.253168
2710.000000	5.253280
2708.000000	5.252340
2706.000000	5.253223
2704.000000	5.255145
2702.000000	5.256044
2700.000000	5.256654
2698.000000	5.258429
2696.000000	5.260310
2694.000000	5.261085
2692.000000	5.262465
2690.000000	5.264080
2688.000000	5.263706
2686.000000	5.264001
2684.000000	5.266197
2682.000000	5.267653
2680.000000	5.268619
2678.000000	5.269727
2676.000000	5.270879
2674.000000	5.271827
2672.000000	5.272420
2670.000000	5.272981
2668.000000	5.273205
2666.000000	5.272876
2664.000000	5.273012
2662.000000	5.273676
2660.000000	5.274329
2658.000000	5.275324
2656.000000	5.277241
2654.000000	5.278106
2652.000000	5.278948
2650.000000	5.280147
2648.000000	5.281507
2646.000000	5.282844
2644.000000	5.283619
2642.000000	5.284605
2640.000000	5.285896
2638.000000	5.287640
2636.000000	5.290065
2634.000000	5.291341
2632.000000	5.291768
2630.000000	5.292354
2628.000000	5.293389
2626.000000	5.293981
2624.000000	5.294532
2622.000000	5.296261
2620.000000	5.297344
2618.000000	5.298553
2616.000000	5.300881
2614.000000	5.301607
2612.000000	5.301706
2610.000000	5.302351
2608.000000	5.302253
2606.000000	5.301121
2604.000000	5.301064
2602.000000	5.301789
2600.000000	5.303197
2598.000000	5.304302
2596.000000	5.304363
2594.000000	5.303766
2592.000000	5.304094
2590.000000	5.304620
2588.000000	5.305658
2586.000000	5.307567
2584.000000	5.309767
2582.000000	5.312713
2580.000000	5.315710
2578.000000	5.318497
2576.000000	5.321568
2574.000000	5.323703
2572.000000	5.326049
2570.000000	5.329156
2568.000000	5.331371
2566.000000	5.332620
2564.000000	5.334857
2562.000000	5.336136
2560.000000	5.336899
2558.000000	5.338460
2556.000000	5.339637
2554.000000	5.340449
2552.000000	5.341043
2550.000000	5.341961
2548.000000	5.343395
2546.000000	5.344156
2544.000000	5.345136
2542.000000	5.347639
2540.000000	5.349612
2538.000000	5.350407
2536.000000	5.351256
2534.000000	5.353473
2532.000000	5.355293
2530.000000	5.356286
2528.000000	5.358097
2526.000000	5.359305
2524.000000	5.358864
2522.000000	5.359100
2520.000000	5.361420
2518.000000	5.363804
2516.000000	5.364687
2514.000000	5.365193
2512.000000	5.367087
2510.000000	5.368706
2508.000000	5.369752
2506.000000	5.370420
2504.000000	5.371747
2502.000000	5.373837
2500.000000	5.375715
2498.000000	5.376887
2496.000000	5.377789
2494.000000	5.378663
2492.000000	5.379276
2490.000000	5.381597
2488.000000	5.384701
2486.000000	5.386710
2484.000000	5.388167
2482.000000	5.389287
2480.000000	5.390575
2478.000000	5.391734
2476.000000	5.392615
2474.000000	5.393461
2472.000000	5.394828
2470.000000	5.396460
2468.000000	5.397331
2466.000000	5.396408
2464.000000	5.396160
2462.000000	5.397015
2460.000000	5.397298
2458.000000	5.398131
2456.000000	5.400285
2454.000000	5.402801
2452.000000	5.403847
2450.000000	5.404415
2448.000000	5.405493
2446.000000	5.405562
2444.000000	5.405611
2442.000000	5.406672
2440.000000	5.408175
2438.000000	5.408588
2436.000000	5.408564
2434.000000	5.409360
2432.000000	5.410115
2430.000000	5.411003
2428.000000	5.411826
2426.000000	5.411940
2424.000000	5.413286
2422.000000	5.415134
2420.000000	5.415366
2418.000000	5.416207
2416.000000	5.416953
2414.000000	5.416661
2412.000000	5.418412
2410.000000	5.420024
2408.000000	5.419902
2406.000000	5.419848
2404.000000	5.420531
2402.000000	5.421770
2400.000000	5.423936
2398.000000	5.426110
2396.000000	5.427189
2394.000000	5.427217
2392.000000	5.427506
2390.000000	5.427579
2388.000000	5.428542
2386.000000	5.430478
2384.000000	5.430168
2382.000000	5.428529
2380.000000	5.425321
2378.000000	5.419186
2376.000000	5.410043
2374.000000	5.398345
2372.000000	5.385497
2370.000000	5.370356
2368.000000	5.354015
2366.000000	5.340042
2364.000000	5.330252
2362.000000	5.324822
2360.000000	5.324468
2358.000000	5.331013
2356.000000	5.343851
2354.000000	5.361159
2352.000000	5.383564
2350.000000	5.406278
2348.000000	5.413672
2346.000000	5.401756
2344.000000	5.380181
2342.000000	5.356337
2340.000000	5.338320
2338.000000	5.331895
2336.000000	5.337919
2334.000000	5.348950
2332.000000	5.357751
2330.000000	5.362796
2328.000000	5.368873
2326.000000	5.377657
2324.000000	5.386167
2322.000000	5.393729
2320.000000	5.401342
2318.000000	5.408648
2316.000000	5.415443
2314.000000	5.420458
2312.000000	5.424804
2310.000000	5.429682
2308.000000	5.433893
2306.000000	5.436895
2304.000000	5.439313
2302.000000	5.440098
2300.000000	5.441728
2298.000000	5.444314
2296.000000	5.444893
2294.000000	5.445010
2292.000000	5.446019
2290.000000	5.446742
2288.000000	5.448099
2286.000000	5.449013
2284.000000	5.448429
2282.000000	5.448378
2280.000000	5.448790
2278.000000	5.448438
2276.000000	5.446833
2274.000000	5.445617
2272.000000	5.445554
2270.000000	5.445929
2268.000000	5.447351
2266.000000	5.448106
2264.000000	5.447594
2262.000000	5.448007
2260.000000	5.449054
2258.000000	5.448932
2256.000000	5.449398
2254.000000	5.449903
2252.000000	5.449930
2250.000000	5.450308
2248.000000	5.452504
2246.000000	5.455197
2244.000000	5.456255
2242.000000	5.456310
2240.000000	5.457671
2238.000000	5.458731
2236.000000	5.459206
2234.000000	5.460899
2232.000000	5.463439
2230.000000	5.465640
2228.000000	5.466534
2226.000000	5.467440
2224.000000	5.470103
2222.000000	5.471362
2220.000000	5.471151
2218.000000	5.472022
2216.000000	5.472646
2214.000000	5.472917
2212.000000	5.475131
2210.000000	5.477731
2208.000000	5.479120
2206.000000	5.480087
2204.000000	5.479876
2202.000000	5.480282
2200.000000	5.481391
2198.000000	5.482398
2196.000000	5.482988
2194.000000	5.483043
2192.000000	5.484101
2190.000000	5.486577
2188.000000	5.487415
2186.000000	5.487269
2184.000000	5.489014
2182.000000	5.489512
2180.000000	5.489665
2178.000000	5.490315
2176.000000	5.489904
2174.000000	5.489153
2172.000000	5.489552
2170.000000	5.489645
2168.000000	5.490295
2166.000000	5.492066
2164.000000	5.493164
2162.000000	5.494438
2160.000000	5.495603
2158.000000	5.496134
2156.000000	5.497779
2154.000000	5.497910
2152.000000	5.497370
2150.000000	5.497944
2148.000000	5.497900
2146.000000	5.498901
2144.000000	5.500393
2142.000000	5.500903
2140.000000	5.502199
2138.000000	5.503987
2136.000000	5.503807
2134.000000	5.503732
2132.000000	5.504276
2130.000000	5.504785
2128.000000	5.505957
2126.000000	5.506420
2124.000000	5.506351
2122.000000	5.506634
2120.000000	5.507273
2118.000000	5.507841
2116.000000	5.509483
2114.000000	5.510457
2112.000000	5.511549
2110.000000	5.513138
2108.000000	5.513349
2106.000000	5.513944
2104.000000	5.516724
2102.000000	5.518824
2100.000000	5.518951
2098.000000	5.518467
2096.000000	5.518906
2094.000000	5.520333
2092.000000	5.521237
2090.000000	5.521224
2088.000000	5.522701
2086.000000	5.525028
2084.000000	5.526840
2082.000000	5.528271
2080.000000	5.530748
2078.000000	5.532630
2076.000000	5.533216
2074.000000	5.534127
2072.000000	5.535804
2070.000000	5.537606
2068.000000	5.538731
2066.000000	5.539197
2064.000000	5.539422
2062.000000	5.541623
2060.000000	5.544951
2058.000000	5.546348
2056.000000	5.546211
2054.000000	5.547890
2052.000000	5.551174
2050.000000	5.552674
2048.000000	5.553904
2046.000000	5.555930
2044.000000	5.557716
2042.000000	5.558100
2040.000000	5.558177
2038.000000	5.559376
2036.000000	5.561182
2034.000000	5.562944
2032.000000	5.563379
2030.000000	5.563121
2028.000000	5.564064
2026.000000	5.566201
2024.000000	5.568606
2022.000000	5.569422
2020.000000	5.569306
2018.000000	5.567180
2016.000000	5.566859
2014.000000	5.571356
2012.000000	5.574365
2010.000000	5.575385
2008.000000	5.576524
2006.000000	5.577262
2004.000000	5.578864
2002.000000	5.579817
2000.000000	5.580193
1998.000000	5.581126
1996.000000	5.581436
1994.000000	5.580029
1992.000000	5.577313
1990.000000	5.577847
1988.000000	5.580737
1986.000000	5.582034
1984.000000	5.581676
1982.000000	5.580552
1980.000000	5.580478
1978.000000	5.581072
1976.000000	5.581700
1974.000000	5.580751
1972.000000	5.579076
1970.000000	5.578102
1968.000000	5.575411
1966.000000	5.572893
1964.000000	5.573269
1962.000000	5.572321
1960.000000	5.567312
1958.000000	5.562227
1956.000000	5.565081
1954.000000	5.567743
1952.000000	5.567835
1950.000000	5.566616
1948.000000	5.564741
1946.000000	5.561931
1944.000000	5.556780
1942.000000	5.552233
1940.000000	5.555261
1938.000000	5.558611
1936.000000	5.557799
1934.000000	5.556295
1932.000000	5.554874
1930.000000	5.553384
1928.000000	5.551928
1926.000000	5.549542
1924.000000	5.542689
1922.000000	5.536095
1920.000000	5.532276
1918.000000	5.521864
1916.000000	5.523882
1914.000000	5.533896
1912.000000	5.531754
1910.000000	5.525184
1908.000000	5.521738
1906.000000	5.521409
1904.000000	5.520323
1902.000000	5.517482
1900.000000	5.513412
1898.000000	5.510452
1896.000000	5.506538
1894.000000	5.503197
1892.000000	5.501739
1890.000000	5.494701
1888.000000	5.492094
1886.000000	5.496758
1884.000000	5.496938
1882.000000	5.496673
1880.000000	5.496775
1878.000000	5.496259
1876.000000	5.495817
1874.000000	5.494127
1872.000000	5.487525
1870.000000	5.469668
1868.000000	5.457407
1866.000000	5.469515
1864.000000	5.481143
1862.000000	5.483536
1860.000000	5.483172
1858.000000	5.481609
1856.000000	5.478398
1854.000000	5.476169
1852.000000	5.474501
1850.000000	5.472305
1848.000000	5.464956
1846.000000	5.444418
1844.000000	5.414782
1842.000000	5.426344
1840.000000	5.452750
1838.000000	5.454452
1836.000000	5.450513
1834.000000	5.447858
1832.000000	5.437656
1830.000000	5.415537
1828.000000	5.411964
1826.000000	5.415505
1824.000000	5.412550
1822.000000	5.420136
1820.000000	5.422175
1818.000000	5.417253
1816.000000	5.412840
1814.000000	5.409980
1812.000000	5.400520
1810.000000	5.391616
1808.000000	5.391688
1806.000000	5.392151
1804.000000	5.383567
1802.000000	5.366057
1800.000000	5.351588
1798.000000	5.352191
1796.000000	5.353068
1794.000000	5.328546
1792.000000	5.296310
1790.000000	5.308607
1788.000000	5.330785
1786.000000	5.324142
1784.000000	5.310977
1782.000000	5.307297
1780.000000	5.300928
1778.000000	5.298879
1776.000000	5.289789
1774.000000	5.250722
1772.000000	5.206004
1770.000000	5.219305
1768.000000	5.239838
1766.000000	5.252576
1764.000000	5.257048
1762.000000	5.231970
1760.000000	5.225123
1758.000000	5.228612
1756.000000	5.219179
1754.000000	5.216460
1752.000000	5.180887
1750.000000	5.147561
1748.000000	5.158361
1746.000000	5.169231
1744.000000	5.165779
1742.000000	5.149743
1740.000000	5.124232
1738.000000	5.118481
1736.000000	5.094310
1734.000000	5.017987
1732.000000	5.035348
1730.000000	5.102023
1728.000000	5.122482
1726.000000	5.125907
1724.000000	5.120143
1722.000000	5.114595
1720.000000	5.082665
1718.000000	5.002688
1716.000000	4.979557
1714.000000	5.034654
1712.000000	5.072614
1710.000000	5.078344
1708.000000	5.061933
1706.000000	5.037245
1704.000000	5.023132
1702.000000	4.982181
1700.000000	4.901946
1698.000000	4.911334
1696.000000	4.909694
1694.000000	4.942685
1692.000000	5.021911
1690.000000	5.030912
1688.000000	5.013752
1686.000000	4.941744
1684.000000	4.861713
1682.000000	4.919344
1680.000000	4.995045
1678.000000	5.001533
1676.000000	4.964307
1674.000000	4.943635
1672.000000	4.959373
1670.000000	4.935838
1668.000000	4.933150
1666.000000	4.963996
1664.000000	4.957518
1662.000000	4.935173
1660.000000	4.948064
1658.000000	4.954238
1656.000000	4.911141
1654.000000	4.772980
1652.000000	4.706922
1650.000000	4.820026
1648.000000	4.858394
1646.000000	4.820623
1644.000000	4.849299
1642.000000	4.889830
1640.000000	4.886723
1638.000000	4.850088
1636.000000	4.777631
1634.000000	4.772366
1632.000000	4.829757
1630.000000	4.838118
1628.000000	4.814163
1626.000000	4.793250
1624.000000	4.761157
1622.000000	4.736608
1620.000000	4.730601
1618.000000	4.673901
1616.000000	4.615794
1614.000000	4.636509
1612.000000	4.641159
1610.000000	4.606323
1608.000000	4.582789
1606.000000	4.578966
1604.000000	4.587333
1602.000000	4.598490
1600.000000	4.612979
1598.000000	4.624776
1596.000000	4.631612
1594.000000	4.636082
1592.000000	4.641206
1590.000000	4.643239
1588.000000	4.643530
1586.000000	4.640757
1584.000000	4.637052
1582.000000	4.633021
1580.000000	4.628296
1578.000000	4.588683
1576.000000	4.527114
1574.000000	4.556907
1572.000000	4.601612
1570.000000	4.574037
1568.000000	4.566958
1566.000000	4.579527
1564.000000	4.570657
1562.000000	4.523193
1560.000000	4.400200
1558.000000	4.344683
1556.000000	4.429558
1554.000000	4.492943
1552.000000	4.531799
1550.000000	4.556592
1548.000000	4.568666
1546.000000	4.563070
1544.000000	4.537010
1542.000000	4.492992
1540.000000	4.443029
1538.000000	4.487412
1536.000000	4.589088
1534.000000	4.605674
1532.000000	4.611786
1530.000000	4.640058
1528.000000	4.637206
1526.000000	4.615196
1524.000000	4.596693
1522.000000	4.552162
1520.000000	4.538778
1518.000000	4.572307
1516.000000	4.578626
1514.000000	4.583901
1512.000000	4.576980
1510.000000	4.553770
1508.000000	4.477650
1506.000000	4.403497
1504.000000	4.436303
1502.000000	4.451271
1500.000000	4.346488
1498.000000	4.170195
1496.000000	4.008186
1494.000000	3.963766
1492.000000	4.008750
1490.000000	4.084037
1488.000000	4.187112
1486.000000	4.286259
1484.000000	4.357024
1482.000000	4.391326
1480.000000	4.405325
1478.000000	4.405300
1476.000000	4.383839
1474.000000	4.345342
1472.000000	4.319978
1470.000000	4.345908
1468.000000	4.361340
1466.000000	4.329378
1464.000000	4.298082
1462.000000	4.293858
1460.000000	4.255432
1458.000000	4.150656
1456.000000	4.070486
1454.000000	4.075189
1452.000000	4.068029
1450.000000	4.060045
1448.000000	4.091772
1446.000000	4.147150
1444.000000	4.186609
1442.000000	4.198864
1440.000000	4.196213
1438.000000	4.166403
1436.000000	4.143869
1434.000000	4.178938
1432.000000	4.199748
1430.000000	4.192790
1428.000000	4.194514
1426.000000	4.200994
1424.000000	4.195263
1422.000000	4.183429
1420.000000	4.144303
1418.000000	4.125567
1416.000000	4.150860
1414.000000	4.158483
1412.000000	4.144375
1410.000000	4.120296
1408.000000	4.085083
1406.000000	4.039079
1404.000000	4.006438
1402.000000	4.002587
1400.000000	4.007967
1398.000000	4.024269
1396.000000	4.045744
1394.000000	4.060833
1392.000000	4.086937
1390.000000	4.097470
1388.000000	4.078821
1386.000000	4.062075
1384.000000	4.060749
1382.000000	4.065726
1380.000000	4.073485
1378.000000	4.072421
1376.000000	4.063243
1374.000000	4.051451
1372.000000	4.051677
1370.000000	4.051323
1368.000000	4.043451
1366.000000	4.036233
1364.000000	4.022633
1362.000000	4.007512
1360.000000	4.004838
1358.000000	4.003595
1356.000000	3.995787
1354.000000	3.985639
1352.000000	3.976085
1350.000000	3.964040
1348.000000	3.952069
1346.000000	3.940661
1344.000000	3.929274
1342.000000	3.914867
1340.000000	3.897844
1338.000000	3.887567
1336.000000	3.885729
1334.000000	3.884037
1332.000000	3.878616
1330.000000	3.868891
1328.000000	3.857253
1326.000000	3.845124
1324.000000	3.832365
1322.000000	3.818675
1320.000000	3.803018
1318.000000	3.786705
1316.000000	3.771677
1314.000000	3.755033
1312.000000	3.738616
1310.000000	3.723657
1308.000000	3.707565
1306.000000	3.690824
1304.000000	3.673680
1302.000000	3.655937
1300.000000	3.638616
1298.000000	3.621183
1296.000000	3.602832
1294.000000	3.583682
1292.000000	3.564236
1290.000000	3.543049
1288.000000	3.520471
1286.000000	3.498890
1284.000000	3.478083
1282.000000	3.455369
1280.000000	3.431348
1278.000000	3.405595
1276.000000	3.376325
1274.000000	3.342721
1272.000000	3.303356
1270.000000	3.254430
1268.000000	3.192304
1266.000000	3.114042
1264.000000	3.026545
1262.000000	2.950708
1260.000000	2.907956
1258.000000	2.902840
1256.000000	2.924706
1254.000000	2.951781
1252.000000	2.964866
1250.000000	2.958921
1248.000000	2.942035
1246.000000	2.918772
1244.000000	2.891796
1242.000000	2.863275
1240.000000	2.834014
1238.000000	2.805557
1236.000000	2.779598
1234.000000	2.753868
1232.000000	2.728091
1230.000000	2.703526
1228.000000	2.679384
1226.000000	2.654904
1224.000000	2.629707
1222.000000	2.602967
1220.000000	2.576060
1218.000000	2.548343
1216.000000	2.519459
1214.000000	2.490504
1212.000000	2.463941
1210.000000	2.439100
1208.000000	2.414951
1206.000000	2.392043
1204.000000	2.370617
1202.000000	2.348798
1200.000000	2.326731
1198.000000	2.305065
1196.000000	2.283500
1194.000000	2.260670
1192.000000	2.237096
1190.000000	2.213279
1188.000000	2.189101
1186.000000	2.163855
1184.000000	2.134631
1182.000000	2.095881
1180.000000	2.060797
1178.000000	2.043525
1176.000000	2.032054
1174.000000	2.013863
1172.000000	1.990896
1170.000000	1.965903
1168.000000	1.939747
1166.000000	1.913690
1164.000000	1.888577
1162.000000	1.863021
1160.000000	1.838072
1158.000000	1.814822
1156.000000	1.792655
1154.000000	1.770015
1152.000000	1.746205
1150.000000	1.722148
1148.000000	1.699370
1146.000000	1.676094
1144.000000	1.654109
1142.000000	1.633335
1140.000000	1.615953
1138.000000	1.599916
1136.000000	1.582036
1134.000000	1.561692
1132.000000	1.540007
1130.000000	1.517553
1128.000000	1.494655
1126.000000	1.472016
1124.000000	1.449320
1122.000000	1.426473
1120.000000	1.403982
1118.000000	1.380739
1116.000000	1.356122
1114.000000	1.331197
1112.000000	1.306327
1110.000000	1.282305
1108.000000	1.258581
1106.000000	1.235128
1104.000000	1.212962
1102.000000	1.191060
1100.000000	1.169083
1098.000000	1.148033
1096.000000	1.127206
1094.000000	1.106854
1092.000000	1.088277
1090.000000	1.070863
1088.000000	1.054238
1086.000000	1.038476
1084.000000	1.022198
1082.000000	1.004952
1080.000000	0.988740
1078.000000	0.974469
1076.000000	0.961113
1074.000000	0.950128
1072.000000	0.940748
1070.000000	0.930158
1068.000000	0.919435
1066.000000	0.908567
1064.000000	0.897581
1062.000000	0.887319
1060.000000	0.876548
1058.000000	0.863104
1056.000000	0.845117
1054.000000	0.822370
1052.000000	0.797767
1050.000000	0.780295
1048.000000	0.776723
1046.000000	0.781754
1044.000000	0.783132
1042.000000	0.778447
1040.000000	0.770550
1038.000000	0.761091
1036.000000	0.750338
1034.000000	0.739053
1032.000000	0.727384
1030.000000	0.715134
1028.000000	0.702435
1026.000000	0.689129
1024.000000	0.675973
1022.000000	0.662802
1020.000000	0.651233
1018.000000	0.640318
1016.000000	0.629558
1014.000000	0.621390
1012.000000	0.615336
1010.000000	0.609109
1008.000000	0.602886
1006.000000	0.595723
1004.000000	0.588650
1002.000000	0.580125
1000.000000	0.569308
