PE IR       SUBTECH     SPECTRUM    ASCII       PEDS        4.00        
   -1
TE110A_062_125K_2MIN.ASC
20/05/14
14:37:55.00
20/05/14
14:38:16.00
Administrator
TE110A.Thursday, May 14 2020, 010.
1000.000000
#HDR
-1
-1
#GR
cm-1
A
1.0
0.0
6000.000000
-2.000000
2501
8
1.248218
1.196175
#DATA
6000.000000	1.228337
5998.000000	1.228355
5996.000000	1.227733
5994.000000	1.227245
5992.000000	1.227136
5990.000000	1.227375
5988.000000	1.227358
5986.000000	1.227071
5984.000000	1.226882
5982.000000	1.226806
5980.000000	1.227063
5978.000000	1.227448
5976.000000	1.227544
5974.000000	1.227322
5972.000000	1.226791
5970.000000	1.226272
5968.000000	1.226092
5966.000000	1.226466
5964.000000	1.227014
5962.000000	1.227242
5960.000000	1.227286
5958.000000	1.227241
5956.000000	1.227247
5954.000000	1.227092
5952.000000	1.226840
5950.000000	1.226890
5948.000000	1.226703
5946.000000	1.226451
5944.000000	1.226356
5942.000000	1.226443
5940.000000	1.226346
5938.000000	1.226272
5936.000000	1.226232
5934.000000	1.226300
5932.000000	1.226190
5930.000000	1.226067
5928.000000	1.226406
5926.000000	1.226658
5924.000000	1.226498
5922.000000	1.226248
5920.000000	1.225961
5918.000000	1.226006
5916.000000	1.226057
5914.000000	1.225883
5912.000000	1.225712
5910.000000	1.225739
5908.000000	1.225778
5906.000000	1.225849
5904.000000	1.225734
5902.000000	1.226074
5900.000000	1.226463
5898.000000	1.226397
5896.000000	1.226132
5894.000000	1.225812
5892.000000	1.225561
5890.000000	1.225409
5888.000000	1.225305
5886.000000	1.225283
5884.000000	1.225254
5882.000000	1.225181
5880.000000	1.225114
5878.000000	1.225031
5876.000000	1.224686
5874.000000	1.224705
5872.000000	1.224992
5870.000000	1.225169
5868.000000	1.225425
5866.000000	1.225285
5864.000000	1.225042
5862.000000	1.224897
5860.000000	1.224879
5858.000000	1.224892
5856.000000	1.224642
5854.000000	1.224309
5852.000000	1.224352
5850.000000	1.224623
5848.000000	1.224956
5846.000000	1.225329
5844.000000	1.225337
5842.000000	1.225049
5840.000000	1.224526
5838.000000	1.224403
5836.000000	1.224565
5834.000000	1.224759
5832.000000	1.224721
5830.000000	1.224630
5828.000000	1.224644
5826.000000	1.224774
5824.000000	1.224920
5822.000000	1.224856
5820.000000	1.224384
5818.000000	1.224072
5816.000000	1.224145
5814.000000	1.224315
5812.000000	1.224316
5810.000000	1.224348
5808.000000	1.224428
5806.000000	1.224415
5804.000000	1.224186
5802.000000	1.224112
5800.000000	1.224445
5798.000000	1.224587
5796.000000	1.224378
5794.000000	1.224240
5792.000000	1.224045
5790.000000	1.223830
5788.000000	1.223711
5786.000000	1.223861
5784.000000	1.224391
5782.000000	1.224679
5780.000000	1.224665
5778.000000	1.224434
5776.000000	1.224465
5774.000000	1.224534
5772.000000	1.224481
5770.000000	1.224093
5768.000000	1.223812
5766.000000	1.223938
5764.000000	1.224050
5762.000000	1.224092
5760.000000	1.224097
5758.000000	1.224131
5756.000000	1.224108
5754.000000	1.223768
5752.000000	1.223473
5750.000000	1.223333
5748.000000	1.223401
5746.000000	1.223481
5744.000000	1.223432
5742.000000	1.223459
5740.000000	1.223619
5738.000000	1.223674
5736.000000	1.223535
5734.000000	1.223423
5732.000000	1.223330
5730.000000	1.223221
5728.000000	1.223096
5726.000000	1.222915
5724.000000	1.222950
5722.000000	1.223020
5720.000000	1.223201
5718.000000	1.223250
5716.000000	1.223269
5714.000000	1.223480
5712.000000	1.223579
5710.000000	1.223380
5708.000000	1.222970
5706.000000	1.222706
5704.000000	1.222679
5702.000000	1.222620
5700.000000	1.222462
5698.000000	1.222262
5696.000000	1.222242
5694.000000	1.222525
5692.000000	1.222840
5690.000000	1.223087
5688.000000	1.223076
5686.000000	1.222927
5684.000000	1.222886
5682.000000	1.222752
5680.000000	1.222743
5678.000000	1.222640
5676.000000	1.222478
5674.000000	1.222383
5672.000000	1.222260
5670.000000	1.222363
5668.000000	1.222499
5666.000000	1.222490
5664.000000	1.222318
5662.000000	1.222035
5660.000000	1.221734
5658.000000	1.221752
5656.000000	1.221966
5654.000000	1.222241
5652.000000	1.222194
5650.000000	1.221960
5648.000000	1.221848
5646.000000	1.221821
5644.000000	1.221799
5642.000000	1.221764
5640.000000	1.221838
5638.000000	1.221900
5636.000000	1.221921
5634.000000	1.221970
5632.000000	1.221886
5630.000000	1.221800
5628.000000	1.221745
5626.000000	1.222054
5624.000000	1.222374
5622.000000	1.222414
5620.000000	1.222097
5618.000000	1.221847
5616.000000	1.221814
5614.000000	1.221832
5612.000000	1.221867
5610.000000	1.221860
5608.000000	1.221728
5606.000000	1.221527
5604.000000	1.221426
5602.000000	1.221559
5600.000000	1.221526
5598.000000	1.221382
5596.000000	1.221293
5594.000000	1.221283
5592.000000	1.221301
5590.000000	1.221324
5588.000000	1.221215
5586.000000	1.221017
5584.000000	1.220867
5582.000000	1.221128
5580.000000	1.221453
5578.000000	1.221509
5576.000000	1.221289
5574.000000	1.220965
5572.000000	1.220744
5570.000000	1.220620
5568.000000	1.220514
5566.000000	1.220541
5564.000000	1.220660
5562.000000	1.220914
5560.000000	1.221036
5558.000000	1.221025
5556.000000	1.221039
5554.000000	1.220951
5552.000000	1.220691
5550.000000	1.220235
5548.000000	1.220005
5546.000000	1.220190
5544.000000	1.220518
5542.000000	1.220588
5540.000000	1.220438
5538.000000	1.220470
5536.000000	1.220539
5534.000000	1.220464
5532.000000	1.220302
5530.000000	1.220374
5528.000000	1.220616
5526.000000	1.220670
5524.000000	1.220481
5522.000000	1.220282
5520.000000	1.220185
5518.000000	1.220116
5516.000000	1.220152
5514.000000	1.220167
5512.000000	1.220246
5510.000000	1.220235
5508.000000	1.220279
5506.000000	1.220254
5504.000000	1.219988
5502.000000	1.219786
5500.000000	1.219883
5498.000000	1.219972
5496.000000	1.219716
5494.000000	1.219455
5492.000000	1.219533
5490.000000	1.219682
5488.000000	1.219842
5486.000000	1.219987
5484.000000	1.219963
5482.000000	1.219658
5480.000000	1.219447
5478.000000	1.219376
5476.000000	1.219357
5474.000000	1.219447
5472.000000	1.219773
5470.000000	1.219739
5468.000000	1.219352
5466.000000	1.219117
5464.000000	1.219188
5462.000000	1.219140
5460.000000	1.218961
5458.000000	1.219079
5456.000000	1.219438
5454.000000	1.219524
5452.000000	1.219237
5450.000000	1.218797
5448.000000	1.218578
5446.000000	1.218714
5444.000000	1.218951
5442.000000	1.219093
5440.000000	1.219005
5438.000000	1.218875
5436.000000	1.218937
5434.000000	1.218937
5432.000000	1.218758
5430.000000	1.218660
5428.000000	1.218874
5426.000000	1.219356
5424.000000	1.219586
5422.000000	1.219508
5420.000000	1.219306
5418.000000	1.218826
5416.000000	1.218416
5414.000000	1.218490
5412.000000	1.219072
5410.000000	1.219631
5408.000000	1.219617
5406.000000	1.219313
5404.000000	1.219043
5402.000000	1.218992
5400.000000	1.218907
5398.000000	1.218575
5396.000000	1.218303
5394.000000	1.218519
5392.000000	1.218833
5390.000000	1.218766
5388.000000	1.218340
5386.000000	1.218202
5384.000000	1.218432
5382.000000	1.218686
5380.000000	1.218468
5378.000000	1.218173
5376.000000	1.218294
5374.000000	1.218676
5372.000000	1.218702
5370.000000	1.218416
5368.000000	1.218164
5366.000000	1.218131
5364.000000	1.218249
5362.000000	1.218480
5360.000000	1.218465
5358.000000	1.218122
5356.000000	1.217754
5354.000000	1.217844
5352.000000	1.218058
5350.000000	1.218119
5348.000000	1.217868
5346.000000	1.217884
5344.000000	1.218136
5342.000000	1.218115
5340.000000	1.217840
5338.000000	1.217834
5336.000000	1.218105
5334.000000	1.218276
5332.000000	1.218230
5330.000000	1.218155
5328.000000	1.218081
5326.000000	1.218155
5324.000000	1.218270
5322.000000	1.218300
5320.000000	1.218173
5318.000000	1.218129
5316.000000	1.218177
5314.000000	1.218238
5312.000000	1.218208
5310.000000	1.217937
5308.000000	1.217731
5306.000000	1.217849
5304.000000	1.218004
5302.000000	1.217777
5300.000000	1.217521
5298.000000	1.217545
5296.000000	1.217747
5294.000000	1.217653
5292.000000	1.217672
5290.000000	1.217937
5288.000000	1.218023
5286.000000	1.217792
5284.000000	1.217546
5282.000000	1.217611
5280.000000	1.217752
5278.000000	1.217820
5276.000000	1.217858
5274.000000	1.217729
5272.000000	1.217570
5270.000000	1.217476
5268.000000	1.217336
5266.000000	1.217187
5264.000000	1.217206
5262.000000	1.217498
5260.000000	1.217685
5258.000000	1.217553
5256.000000	1.217334
5254.000000	1.217210
5252.000000	1.217157
5250.000000	1.217100
5248.000000	1.217204
5246.000000	1.217478
5244.000000	1.217729
5242.000000	1.217753
5240.000000	1.217686
5238.000000	1.217636
5236.000000	1.217491
5234.000000	1.217282
5232.000000	1.217239
5230.000000	1.217272
5228.000000	1.217006
5226.000000	1.216750
5224.000000	1.216934
5222.000000	1.217314
5220.000000	1.217414
5218.000000	1.217380
5216.000000	1.217426
5214.000000	1.217361
5212.000000	1.217087
5210.000000	1.216718
5208.000000	1.216464
5206.000000	1.216615
5204.000000	1.217123
5202.000000	1.217399
5200.000000	1.217125
5198.000000	1.216791
5196.000000	1.216863
5194.000000	1.217129
5192.000000	1.217222
5190.000000	1.217037
5188.000000	1.216877
5186.000000	1.216906
5184.000000	1.216984
5182.000000	1.216960
5180.000000	1.216895
5178.000000	1.216952
5176.000000	1.217003
5174.000000	1.217028
5172.000000	1.217029
5170.000000	1.217090
5168.000000	1.217081
5166.000000	1.216938
5164.000000	1.216867
5162.000000	1.216892
5160.000000	1.216937
5158.000000	1.216919
5156.000000	1.216999
5154.000000	1.217093
5152.000000	1.217141
5150.000000	1.217158
5148.000000	1.217170
5146.000000	1.217195
5144.000000	1.217244
5142.000000	1.217268
5140.000000	1.217230
5138.000000	1.217113
5136.000000	1.217038
5134.000000	1.217114
5132.000000	1.217268
5130.000000	1.217266
5128.000000	1.217153
5126.000000	1.217104
5124.000000	1.217157
5122.000000	1.217198
5120.000000	1.217107
5118.000000	1.216896
5116.000000	1.216770
5114.000000	1.216821
5112.000000	1.216891
5110.000000	1.216974
5108.000000	1.217001
5106.000000	1.217015
5104.000000	1.217019
5102.000000	1.217091
5100.000000	1.217033
5098.000000	1.216905
5096.000000	1.216898
5094.000000	1.216999
5092.000000	1.216988
5090.000000	1.216901
5088.000000	1.216829
5086.000000	1.216871
5084.000000	1.216856
5082.000000	1.216752
5080.000000	1.216652
5078.000000	1.216615
5076.000000	1.216495
5074.000000	1.216494
5072.000000	1.216729
5070.000000	1.217049
5068.000000	1.217104
5066.000000	1.217003
5064.000000	1.216985
5062.000000	1.216969
5060.000000	1.216844
5058.000000	1.216809
5056.000000	1.216946
5054.000000	1.217026
5052.000000	1.216966
5050.000000	1.216946
5048.000000	1.216979
5046.000000	1.217032
5044.000000	1.217098
5042.000000	1.217184
5040.000000	1.217216
5038.000000	1.217135
5036.000000	1.216929
5034.000000	1.216852
5032.000000	1.216994
5030.000000	1.217132
5028.000000	1.217129
5026.000000	1.217067
5024.000000	1.217131
5022.000000	1.217183
5020.000000	1.217078
5018.000000	1.216847
5016.000000	1.216741
5014.000000	1.216780
5012.000000	1.216760
5010.000000	1.216745
5008.000000	1.216893
5006.000000	1.217003
5004.000000	1.216881
5002.000000	1.216751
5000.000000	1.216890
4998.000000	1.217008
4996.000000	1.216891
4994.000000	1.216756
4992.000000	1.216805
4990.000000	1.216877
4988.000000	1.216924
4986.000000	1.217001
4984.000000	1.216989
4982.000000	1.216817
4980.000000	1.216692
4978.000000	1.216708
4976.000000	1.216745
4974.000000	1.216791
4972.000000	1.216823
4970.000000	1.216786
4968.000000	1.216726
4966.000000	1.216800
4964.000000	1.216867
4962.000000	1.216871
4960.000000	1.216840
4958.000000	1.216861
4956.000000	1.216883
4954.000000	1.216953
4952.000000	1.217034
4950.000000	1.217065
4948.000000	1.217043
4946.000000	1.217019
4944.000000	1.216955
4942.000000	1.216885
4940.000000	1.216857
4938.000000	1.216823
4936.000000	1.216782
4934.000000	1.216865
4932.000000	1.217062
4930.000000	1.217129
4928.000000	1.217024
4926.000000	1.216939
4924.000000	1.216929
4922.000000	1.216884
4920.000000	1.216931
4918.000000	1.217092
4916.000000	1.217198
4914.000000	1.217196
4912.000000	1.217139
4910.000000	1.217098
4908.000000	1.217038
4906.000000	1.216964
4904.000000	1.216929
4902.000000	1.216991
4900.000000	1.217052
4898.000000	1.217040
4896.000000	1.217010
4894.000000	1.216918
4892.000000	1.216794
4890.000000	1.216783
4888.000000	1.216833
4886.000000	1.216831
4884.000000	1.216795
4882.000000	1.216809
4880.000000	1.216837
4878.000000	1.216860
4876.000000	1.216893
4874.000000	1.216940
4872.000000	1.217050
4870.000000	1.217116
4868.000000	1.217083
4866.000000	1.217086
4864.000000	1.217164
4862.000000	1.217204
4860.000000	1.217121
4858.000000	1.217039
4856.000000	1.217058
4854.000000	1.217170
4852.000000	1.217153
4850.000000	1.216996
4848.000000	1.216969
4846.000000	1.217033
4844.000000	1.217044
4842.000000	1.217029
4840.000000	1.217124
4838.000000	1.217209
4836.000000	1.217115
4834.000000	1.216880
4832.000000	1.216773
4830.000000	1.216827
4828.000000	1.216912
4826.000000	1.216949
4824.000000	1.216960
4822.000000	1.216927
4820.000000	1.216875
4818.000000	1.216821
4816.000000	1.216784
4814.000000	1.216764
4812.000000	1.216786
4810.000000	1.216895
4808.000000	1.216972
4806.000000	1.216919
4804.000000	1.216841
4802.000000	1.216938
4800.000000	1.217038
4798.000000	1.216955
4796.000000	1.216807
4794.000000	1.216859
4792.000000	1.217020
4790.000000	1.217027
4788.000000	1.216897
4786.000000	1.216834
4784.000000	1.216899
4782.000000	1.216996
4780.000000	1.217031
4778.000000	1.217052
4776.000000	1.217016
4774.000000	1.216935
4772.000000	1.216928
4770.000000	1.217033
4768.000000	1.217114
4766.000000	1.217137
4764.000000	1.217095
4762.000000	1.217017
4760.000000	1.216956
4758.000000	1.216974
4756.000000	1.216984
4754.000000	1.216933
4752.000000	1.216812
4750.000000	1.216793
4748.000000	1.216854
4746.000000	1.216873
4744.000000	1.216876
4742.000000	1.216929
4740.000000	1.216926
4738.000000	1.216826
4736.000000	1.216719
4734.000000	1.216662
4732.000000	1.216651
4730.000000	1.216670
4728.000000	1.216706
4726.000000	1.216677
4724.000000	1.216623
4722.000000	1.216685
4720.000000	1.216842
4718.000000	1.216951
4716.000000	1.216933
4714.000000	1.216858
4712.000000	1.216752
4710.000000	1.216728
4708.000000	1.216775
4706.000000	1.216794
4704.000000	1.216720
4702.000000	1.216724
4700.000000	1.216791
4698.000000	1.216795
4696.000000	1.216743
4694.000000	1.216668
4692.000000	1.216600
4690.000000	1.216604
4688.000000	1.216708
4686.000000	1.216760
4684.000000	1.216709
4682.000000	1.216696
4680.000000	1.216746
4678.000000	1.216683
4676.000000	1.216527
4674.000000	1.216529
4672.000000	1.216711
4670.000000	1.216840
4668.000000	1.216845
4666.000000	1.216854
4664.000000	1.216981
4662.000000	1.217031
4660.000000	1.216892
4658.000000	1.216733
4656.000000	1.216745
4654.000000	1.216783
4652.000000	1.216757
4650.000000	1.216794
4648.000000	1.216897
4646.000000	1.216854
4644.000000	1.216688
4642.000000	1.216606
4640.000000	1.216731
4638.000000	1.216914
4636.000000	1.216919
4634.000000	1.216842
4632.000000	1.216888
4630.000000	1.216930
4628.000000	1.216786
4626.000000	1.216637
4624.000000	1.216628
4622.000000	1.216737
4620.000000	1.216810
4618.000000	1.216797
4616.000000	1.216747
4614.000000	1.216767
4612.000000	1.216861
4610.000000	1.216930
4608.000000	1.216840
4606.000000	1.216739
4604.000000	1.216726
4602.000000	1.216687
4600.000000	1.216600
4598.000000	1.216595
4596.000000	1.216656
4594.000000	1.216690
4592.000000	1.216748
4590.000000	1.216811
4588.000000	1.216814
4586.000000	1.216812
4584.000000	1.216819
4582.000000	1.216831
4580.000000	1.216871
4578.000000	1.216904
4576.000000	1.216875
4574.000000	1.216896
4572.000000	1.216916
4570.000000	1.216874
4568.000000	1.216843
4566.000000	1.216888
4564.000000	1.216927
4562.000000	1.216901
4560.000000	1.216820
4558.000000	1.216744
4556.000000	1.216789
4554.000000	1.216957
4552.000000	1.217046
4550.000000	1.216985
4548.000000	1.216900
4546.000000	1.216880
4544.000000	1.216878
4542.000000	1.216815
4540.000000	1.216717
4538.000000	1.216690
4536.000000	1.216742
4534.000000	1.216809
4532.000000	1.216824
4530.000000	1.216814
4528.000000	1.216829
4526.000000	1.216839
4524.000000	1.216825
4522.000000	1.216791
4520.000000	1.216761
4518.000000	1.216785
4516.000000	1.216830
4514.000000	1.216735
4512.000000	1.216549
4510.000000	1.216489
4508.000000	1.216546
4506.000000	1.216568
4504.000000	1.216549
4502.000000	1.216599
4500.000000	1.216655
4498.000000	1.216739
4496.000000	1.216839
4494.000000	1.216840
4492.000000	1.216662
4490.000000	1.216540
4488.000000	1.216560
4486.000000	1.216603
4484.000000	1.216626
4482.000000	1.216733
4480.000000	1.216806
4478.000000	1.216741
4476.000000	1.216653
4474.000000	1.216636
4472.000000	1.216632
4470.000000	1.216656
4468.000000	1.216751
4466.000000	1.216850
4464.000000	1.216808
4462.000000	1.216727
4460.000000	1.216716
4458.000000	1.216703
4456.000000	1.216619
4454.000000	1.216589
4452.000000	1.216720
4450.000000	1.216903
4448.000000	1.216923
4446.000000	1.216850
4444.000000	1.216795
4442.000000	1.216727
4440.000000	1.216690
4438.000000	1.216751
4436.000000	1.216776
4434.000000	1.216691
4432.000000	1.216646
4430.000000	1.216726
4428.000000	1.216725
4426.000000	1.216613
4424.000000	1.216530
4422.000000	1.216482
4420.000000	1.216501
4418.000000	1.216574
4416.000000	1.216595
4414.000000	1.216631
4412.000000	1.216662
4410.000000	1.216620
4408.000000	1.216583
4406.000000	1.216592
4404.000000	1.216579
4402.000000	1.216568
4400.000000	1.216520
4398.000000	1.216435
4396.000000	1.216355
4394.000000	1.216397
4392.000000	1.216497
4390.000000	1.216577
4388.000000	1.216630
4386.000000	1.216653
4384.000000	1.216635
4382.000000	1.216663
4380.000000	1.216648
4378.000000	1.216616
4376.000000	1.216654
4374.000000	1.216672
4372.000000	1.216606
4370.000000	1.216547
4368.000000	1.216539
4366.000000	1.216582
4364.000000	1.216562
4362.000000	1.216496
4360.000000	1.216511
4358.000000	1.216509
4356.000000	1.216426
4354.000000	1.216428
4352.000000	1.216478
4350.000000	1.216508
4348.000000	1.216497
4346.000000	1.216393
4344.000000	1.216288
4342.000000	1.216316
4340.000000	1.216332
4338.000000	1.216292
4336.000000	1.216237
4334.000000	1.216224
4332.000000	1.216222
4330.000000	1.216222
4328.000000	1.216233
4326.000000	1.216246
4324.000000	1.216246
4322.000000	1.216261
4320.000000	1.216274
4318.000000	1.216291
4316.000000	1.216277
4314.000000	1.216259
4312.000000	1.216247
4310.000000	1.216144
4308.000000	1.216049
4306.000000	1.216091
4304.000000	1.216163
4302.000000	1.216172
4300.000000	1.216133
4298.000000	1.216151
4296.000000	1.216138
4294.000000	1.216025
4292.000000	1.216036
4290.000000	1.216218
4288.000000	1.216279
4286.000000	1.216208
4284.000000	1.216121
4282.000000	1.216124
4280.000000	1.216213
4278.000000	1.216231
4276.000000	1.216135
4274.000000	1.216098
4272.000000	1.216139
4270.000000	1.216189
4268.000000	1.216154
4266.000000	1.216042
4264.000000	1.216026
4262.000000	1.216077
4260.000000	1.216019
4258.000000	1.215922
4256.000000	1.215905
4254.000000	1.215975
4252.000000	1.216035
4250.000000	1.216000
4248.000000	1.215878
4246.000000	1.215756
4244.000000	1.215725
4242.000000	1.215747
4240.000000	1.215806
4238.000000	1.215896
4236.000000	1.215897
4234.000000	1.215832
4232.000000	1.215778
4230.000000	1.215709
4228.000000	1.215607
4226.000000	1.215566
4224.000000	1.215647
4222.000000	1.215751
4220.000000	1.215767
4218.000000	1.215703
4216.000000	1.215576
4214.000000	1.215523
4212.000000	1.215532
4210.000000	1.215521
4208.000000	1.215505
4206.000000	1.215461
4204.000000	1.215331
4202.000000	1.215274
4200.000000	1.215352
4198.000000	1.215396
4196.000000	1.215377
4194.000000	1.215402
4192.000000	1.215410
4190.000000	1.215401
4188.000000	1.215404
4186.000000	1.215377
4184.000000	1.215337
4182.000000	1.215312
4180.000000	1.215273
4178.000000	1.215224
4176.000000	1.215222
4174.000000	1.215269
4172.000000	1.215246
4170.000000	1.215208
4168.000000	1.215209
4166.000000	1.215237
4164.000000	1.215234
4162.000000	1.215176
4160.000000	1.215113
4158.000000	1.215072
4156.000000	1.215043
4154.000000	1.215040
4152.000000	1.215014
4150.000000	1.215000
4148.000000	1.214973
4146.000000	1.214913
4144.000000	1.214848
4142.000000	1.214805
4140.000000	1.214776
4138.000000	1.214751
4136.000000	1.214723
4134.000000	1.214678
4132.000000	1.214619
4130.000000	1.214585
4128.000000	1.214548
4126.000000	1.214503
4124.000000	1.214494
4122.000000	1.214558
4120.000000	1.214613
4118.000000	1.214523
4116.000000	1.214327
4114.000000	1.214252
4112.000000	1.214287
4110.000000	1.214274
4108.000000	1.214222
4106.000000	1.214244
4104.000000	1.214280
4102.000000	1.214278
4100.000000	1.214285
4098.000000	1.214308
4096.000000	1.214258
4094.000000	1.214185
4092.000000	1.214134
4090.000000	1.214090
4088.000000	1.214078
4086.000000	1.214166
4084.000000	1.214179
4082.000000	1.214062
4080.000000	1.214001
4078.000000	1.214046
4076.000000	1.214068
4074.000000	1.214044
4072.000000	1.213982
4070.000000	1.213946
4068.000000	1.213963
4066.000000	1.213989
4064.000000	1.213974
4062.000000	1.213903
4060.000000	1.213819
4058.000000	1.213767
4056.000000	1.213696
4054.000000	1.213651
4052.000000	1.213627
4050.000000	1.213558
4048.000000	1.213471
4046.000000	1.213437
4044.000000	1.213469
4042.000000	1.213491
4040.000000	1.213422
4038.000000	1.213347
4036.000000	1.213301
4034.000000	1.213248
4032.000000	1.213214
4030.000000	1.213211
4028.000000	1.213178
4026.000000	1.213149
4024.000000	1.213133
4022.000000	1.213112
4020.000000	1.213067
4018.000000	1.213015
4016.000000	1.212980
4014.000000	1.212982
4012.000000	1.212994
4010.000000	1.212950
4008.000000	1.212855
4006.000000	1.212769
4004.000000	1.212747
4002.000000	1.212803
4000.000000	1.212781
3998.000000	1.212678
3996.000000	1.212575
3994.000000	1.212546
3992.000000	1.212641
3990.000000	1.212783
3988.000000	1.212807
3986.000000	1.212719
3984.000000	1.212631
3982.000000	1.212559
3980.000000	1.212497
3978.000000	1.212398
3976.000000	1.212274
3974.000000	1.212301
3972.000000	1.212376
3970.000000	1.212344
3968.000000	1.212302
3966.000000	1.212252
3964.000000	1.212110
3962.000000	1.212010
3960.000000	1.211978
3958.000000	1.211949
3956.000000	1.211888
3954.000000	1.211709
3952.000000	1.211401
3950.000000	1.211274
3948.000000	1.211484
3946.000000	1.211493
3944.000000	1.211238
3942.000000	1.211487
3940.000000	1.211861
3938.000000	1.211720
3936.000000	1.211189
3934.000000	1.210587
3932.000000	1.210642
3930.000000	1.211157
3928.000000	1.211012
3926.000000	1.210570
3924.000000	1.210601
3922.000000	1.210527
3920.000000	1.209999
3918.000000	1.210022
3916.000000	1.210919
3914.000000	1.211472
3912.000000	1.211267
3910.000000	1.210814
3908.000000	1.209573
3906.000000	1.207718
3904.000000	1.207106
3902.000000	1.208032
3900.000000	1.209486
3898.000000	1.210973
3896.000000	1.211001
3894.000000	1.209173
3892.000000	1.208513
3890.000000	1.209486
3888.000000	1.208580
3886.000000	1.207826
3884.000000	1.209222
3882.000000	1.209354
3880.000000	1.209379
3878.000000	1.210059
3876.000000	1.209197
3874.000000	1.207772
3872.000000	1.206195
3870.000000	1.206547
3868.000000	1.208647
3866.000000	1.208589
3864.000000	1.208416
3862.000000	1.209665
3860.000000	1.209723
3858.000000	1.206001
3856.000000	1.199126
3854.000000	1.198731
3852.000000	1.207263
3850.000000	1.212435
3848.000000	1.211045
3846.000000	1.208743
3844.000000	1.207485
3842.000000	1.206115
3840.000000	1.203758
3838.000000	1.204087
3836.000000	1.207520
3834.000000	1.208830
3832.000000	1.208516
3830.000000	1.208890
3828.000000	1.208823
3826.000000	1.208058
3824.000000	1.205864
3822.000000	1.204544
3820.000000	1.205847
3818.000000	1.205247
3816.000000	1.205700
3814.000000	1.209570
3812.000000	1.210083
3810.000000	1.206841
3808.000000	1.205092
3806.000000	1.206279
3804.000000	1.205157
3802.000000	1.203822
3800.000000	1.207115
3798.000000	1.209009
3796.000000	1.208665
3794.000000	1.209157
3792.000000	1.209131
3790.000000	1.208809
3788.000000	1.208564
3786.000000	1.208276
3784.000000	1.208149
3782.000000	1.207625
3780.000000	1.207407
3778.000000	1.208347
3776.000000	1.208814
3774.000000	1.207924
3772.000000	1.206461
3770.000000	1.206233
3768.000000	1.207106
3766.000000	1.207543
3764.000000	1.207674
3762.000000	1.206802
3760.000000	1.205958
3758.000000	1.206500
3756.000000	1.205195
3754.000000	1.200739
3752.000000	1.198622
3750.000000	1.201669
3748.000000	1.202679
3746.000000	1.199333
3744.000000	1.202117
3742.000000	1.208066
3740.000000	1.206347
3738.000000	1.202066
3736.000000	1.201699
3734.000000	1.203558
3732.000000	1.205557
3730.000000	1.206814
3728.000000	1.205925
3726.000000	1.205112
3724.000000	1.205397
3722.000000	1.205728
3720.000000	1.206194
3718.000000	1.206265
3716.000000	1.204828
3714.000000	1.202167
3712.000000	1.201998
3710.000000	1.204838
3708.000000	1.206732
3706.000000	1.206403
3704.000000	1.205047
3702.000000	1.204777
3700.000000	1.205798
3698.000000	1.206082
3696.000000	1.205487
3694.000000	1.204059
3692.000000	1.201296
3690.000000	1.199589
3688.000000	1.202567
3686.000000	1.206394
3684.000000	1.206154
3682.000000	1.204466
3680.000000	1.202390
3678.000000	1.198844
3676.000000	1.198386
3674.000000	1.201343
3672.000000	1.200806
3670.000000	1.201105
3668.000000	1.204626
3666.000000	1.205490
3664.000000	1.204490
3662.000000	1.203876
3660.000000	1.202707
3658.000000	1.201011
3656.000000	1.201397
3654.000000	1.201574
3652.000000	1.198199
3650.000000	1.196821
3648.000000	1.200475
3646.000000	1.203649
3644.000000	1.203621
3642.000000	1.202776
3640.000000	1.202496
3638.000000	1.202268
3636.000000	1.201784
3634.000000	1.200891
3632.000000	1.198189
3630.000000	1.196175
3628.000000	1.199588
3626.000000	1.203037
3624.000000	1.201933
3622.000000	1.199343
3620.000000	1.198412
3618.000000	1.199820
3616.000000	1.200342
3614.000000	1.199383
3612.000000	1.198861
3610.000000	1.198833
3608.000000	1.199949
3606.000000	1.201172
3604.000000	1.200836
3602.000000	1.200123
3600.000000	1.199999
3598.000000	1.199871
3596.000000	1.199610
3594.000000	1.199817
3592.000000	1.199520
3590.000000	1.198113
3588.000000	1.197990
3586.000000	1.199677
3584.000000	1.200531
3582.000000	1.200179
3580.000000	1.199877
3578.000000	1.199854
3576.000000	1.199901
3574.000000	1.199859
3572.000000	1.199307
3570.000000	1.197953
3568.000000	1.197414
3566.000000	1.198827
3564.000000	1.199953
3562.000000	1.199854
3560.000000	1.199742
3558.000000	1.199779
3556.000000	1.199628
3554.000000	1.199451
3552.000000	1.199566
3550.000000	1.199609
3548.000000	1.199301
3546.000000	1.199391
3544.000000	1.199945
3542.000000	1.200230
3540.000000	1.200174
3538.000000	1.200102
3536.000000	1.200239
3534.000000	1.200392
3532.000000	1.200243
3530.000000	1.200071
3528.000000	1.200156
3526.000000	1.200354
3524.000000	1.200571
3522.000000	1.200905
3520.000000	1.201145
3518.000000	1.201271
3516.000000	1.201358
3514.000000	1.201412
3512.000000	1.201474
3510.000000	1.201624
3508.000000	1.201918
3506.000000	1.201968
3504.000000	1.201900
3502.000000	1.202272
3500.000000	1.202740
3498.000000	1.202925
3496.000000	1.203100
3494.000000	1.203380
3492.000000	1.203540
3490.000000	1.203692
3488.000000	1.204062
3486.000000	1.204398
3484.000000	1.204476
3482.000000	1.204638
3480.000000	1.205066
3478.000000	1.205487
3476.000000	1.205839
3474.000000	1.206209
3472.000000	1.206440
3470.000000	1.206612
3468.000000	1.206940
3466.000000	1.207357
3464.000000	1.207743
3462.000000	1.208097
3460.000000	1.208475
3458.000000	1.208950
3456.000000	1.209365
3454.000000	1.209676
3452.000000	1.209989
3450.000000	1.210165
3448.000000	1.210364
3446.000000	1.210870
3444.000000	1.211381
3442.000000	1.211850
3440.000000	1.212368
3438.000000	1.212782
3436.000000	1.213157
3434.000000	1.213582
3432.000000	1.213964
3430.000000	1.214323
3428.000000	1.214749
3426.000000	1.215129
3424.000000	1.215359
3422.000000	1.215594
3420.000000	1.215981
3418.000000	1.216357
3416.000000	1.216591
3414.000000	1.216794
3412.000000	1.216983
3410.000000	1.217131
3408.000000	1.217379
3406.000000	1.217691
3404.000000	1.217824
3402.000000	1.217833
3400.000000	1.217988
3398.000000	1.218294
3396.000000	1.218481
3394.000000	1.218530
3392.000000	1.218685
3390.000000	1.219041
3388.000000	1.219304
3386.000000	1.219360
3384.000000	1.219460
3382.000000	1.219605
3380.000000	1.219690
3378.000000	1.219793
3376.000000	1.219905
3374.000000	1.219969
3372.000000	1.219901
3370.000000	1.219865
3368.000000	1.220041
3366.000000	1.220292
3364.000000	1.220460
3362.000000	1.220554
3360.000000	1.220621
3358.000000	1.220696
3356.000000	1.220779
3354.000000	1.220860
3352.000000	1.220881
3350.000000	1.220877
3348.000000	1.220963
3346.000000	1.221053
3344.000000	1.221068
3342.000000	1.221136
3340.000000	1.221233
3338.000000	1.221269
3336.000000	1.221346
3334.000000	1.221478
3332.000000	1.221557
3330.000000	1.221585
3328.000000	1.221598
3326.000000	1.221642
3324.000000	1.221797
3322.000000	1.221912
3320.000000	1.221874
3318.000000	1.221868
3316.000000	1.221943
3314.000000	1.222029
3312.000000	1.222063
3310.000000	1.222079
3308.000000	1.222108
3306.000000	1.222146
3304.000000	1.222280
3302.000000	1.222421
3300.000000	1.222462
3298.000000	1.222429
3296.000000	1.222378
3294.000000	1.222401
3292.000000	1.222508
3290.000000	1.222579
3288.000000	1.222611
3286.000000	1.222696
3284.000000	1.222810
3282.000000	1.222838
3280.000000	1.222805
3278.000000	1.222798
3276.000000	1.222817
3274.000000	1.222835
3272.000000	1.222896
3270.000000	1.223008
3268.000000	1.223142
3266.000000	1.223236
3264.000000	1.223248
3262.000000	1.223231
3260.000000	1.223179
3258.000000	1.223175
3256.000000	1.223290
3254.000000	1.223444
3252.000000	1.223520
3250.000000	1.223482
3248.000000	1.223445
3246.000000	1.223466
3244.000000	1.223596
3242.000000	1.223764
3240.000000	1.223830
3238.000000	1.223794
3236.000000	1.223717
3234.000000	1.223694
3232.000000	1.223829
3230.000000	1.224055
3228.000000	1.224158
3226.000000	1.224173
3224.000000	1.224239
3222.000000	1.224307
3220.000000	1.224342
3218.000000	1.224383
3216.000000	1.224418
3214.000000	1.224465
3212.000000	1.224500
3210.000000	1.224500
3208.000000	1.224528
3206.000000	1.224620
3204.000000	1.224681
3202.000000	1.224676
3200.000000	1.224680
3198.000000	1.224697
3196.000000	1.224718
3194.000000	1.224734
3192.000000	1.224757
3190.000000	1.224748
3188.000000	1.224728
3186.000000	1.224784
3184.000000	1.224881
3182.000000	1.224894
3180.000000	1.224860
3178.000000	1.224913
3176.000000	1.225039
3174.000000	1.225164
3172.000000	1.225248
3170.000000	1.225254
3168.000000	1.225313
3166.000000	1.225387
3164.000000	1.225398
3162.000000	1.225452
3160.000000	1.225558
3158.000000	1.225579
3156.000000	1.225582
3154.000000	1.225558
3152.000000	1.225567
3150.000000	1.225670
3148.000000	1.225739
3146.000000	1.225793
3144.000000	1.225841
3142.000000	1.225814
3140.000000	1.225836
3138.000000	1.225982
3136.000000	1.226059
3134.000000	1.226072
3132.000000	1.226177
3130.000000	1.226212
3128.000000	1.226195
3126.000000	1.226283
3124.000000	1.226345
3122.000000	1.226295
3120.000000	1.226225
3118.000000	1.226199
3116.000000	1.226276
3114.000000	1.226419
3112.000000	1.226448
3110.000000	1.226350
3108.000000	1.226253
3106.000000	1.226244
3104.000000	1.226282
3102.000000	1.226171
3100.000000	1.226087
3098.000000	1.226118
3096.000000	1.226067
3094.000000	1.226023
3092.000000	1.226009
3090.000000	1.225980
3088.000000	1.225961
3086.000000	1.225887
3084.000000	1.225735
3082.000000	1.225594
3080.000000	1.225554
3078.000000	1.225557
3076.000000	1.225537
3074.000000	1.225527
3072.000000	1.225483
3070.000000	1.225367
3068.000000	1.225253
3066.000000	1.225255
3064.000000	1.225360
3062.000000	1.225421
3060.000000	1.225368
3058.000000	1.225217
3056.000000	1.225112
3054.000000	1.225091
3052.000000	1.225093
3050.000000	1.225042
3048.000000	1.224997
3046.000000	1.224911
3044.000000	1.224783
3042.000000	1.224733
3040.000000	1.224782
3038.000000	1.224811
3036.000000	1.224782
3034.000000	1.224734
3032.000000	1.224614
3030.000000	1.224450
3028.000000	1.224317
3026.000000	1.224214
3024.000000	1.224234
3022.000000	1.224311
3020.000000	1.224405
3018.000000	1.224570
3016.000000	1.224798
3014.000000	1.224990
3012.000000	1.225102
3010.000000	1.225073
3008.000000	1.224923
3006.000000	1.224718
3004.000000	1.224552
3002.000000	1.224419
3000.000000	1.224312
2998.000000	1.224273
2996.000000	1.224239
2994.000000	1.224175
2992.000000	1.224124
2990.000000	1.224082
2988.000000	1.224063
2986.000000	1.224050
2984.000000	1.223991
2982.000000	1.223901
2980.000000	1.223860
2978.000000	1.223871
2976.000000	1.223881
2974.000000	1.223794
2972.000000	1.223725
2970.000000	1.223761
2968.000000	1.223948
2966.000000	1.224453
2964.000000	1.225204
2962.000000	1.225883
2960.000000	1.226234
2958.000000	1.226132
2956.000000	1.225808
2954.000000	1.225399
2952.000000	1.224901
2950.000000	1.224331
2948.000000	1.223759
2946.000000	1.223312
2944.000000	1.222926
2942.000000	1.222523
2940.000000	1.222309
2938.000000	1.222274
2936.000000	1.222326
2934.000000	1.222420
2932.000000	1.222448
2930.000000	1.222495
2928.000000	1.222730
2926.000000	1.223278
2924.000000	1.224151
2922.000000	1.225091
2920.000000	1.225731
2918.000000	1.225948
2916.000000	1.225870
2914.000000	1.225555
2912.000000	1.225124
2910.000000	1.224754
2908.000000	1.224535
2906.000000	1.224394
2904.000000	1.224251
2902.000000	1.224080
2900.000000	1.223950
2898.000000	1.223875
2896.000000	1.223830
2894.000000	1.223719
2892.000000	1.223541
2890.000000	1.223367
2888.000000	1.223249
2886.000000	1.223144
2884.000000	1.223010
2882.000000	1.222873
2880.000000	1.222752
2878.000000	1.222530
2876.000000	1.222224
2874.000000	1.221971
2872.000000	1.221753
2870.000000	1.221448
2868.000000	1.221082
2866.000000	1.220879
2864.000000	1.221036
2862.000000	1.221589
2860.000000	1.222292
2858.000000	1.222852
2856.000000	1.223111
2854.000000	1.223215
2852.000000	1.223342
2850.000000	1.223579
2848.000000	1.223845
2846.000000	1.223801
2844.000000	1.223458
2842.000000	1.223108
2840.000000	1.222924
2838.000000	1.222795
2836.000000	1.222636
2834.000000	1.222490
2832.000000	1.222484
2830.000000	1.222491
2828.000000	1.222441
2826.000000	1.222388
2824.000000	1.222312
2822.000000	1.222214
2820.000000	1.222143
2818.000000	1.222128
2816.000000	1.222124
2814.000000	1.222114
2812.000000	1.222093
2810.000000	1.222041
2808.000000	1.221985
2806.000000	1.221955
2804.000000	1.221947
2802.000000	1.221910
2800.000000	1.221887
2798.000000	1.221853
2796.000000	1.221826
2794.000000	1.221819
2792.000000	1.221808
2790.000000	1.221826
2788.000000	1.221868
2786.000000	1.221885
2784.000000	1.221825
2782.000000	1.221761
2780.000000	1.221791
2778.000000	1.221817
2776.000000	1.221808
2774.000000	1.221732
2772.000000	1.221625
2770.000000	1.221582
2768.000000	1.221604
2766.000000	1.221628
2764.000000	1.221627
2762.000000	1.221616
2760.000000	1.221579
2758.000000	1.221515
2756.000000	1.221522
2754.000000	1.221570
2752.000000	1.221609
2750.000000	1.221634
2748.000000	1.221644
2746.000000	1.221647
2744.000000	1.221662
2742.000000	1.221638
2740.000000	1.221642
2738.000000	1.221763
2736.000000	1.221868
2734.000000	1.221849
2732.000000	1.221776
2730.000000	1.221718
2728.000000	1.221764
2726.000000	1.221874
2724.000000	1.221927
2722.000000	1.221948
2720.000000	1.222013
2718.000000	1.222047
2716.000000	1.222068
2714.000000	1.222083
2712.000000	1.222115
2710.000000	1.222210
2708.000000	1.222335
2706.000000	1.222474
2704.000000	1.222527
2702.000000	1.222509
2700.000000	1.222606
2698.000000	1.222712
2696.000000	1.222796
2694.000000	1.222935
2692.000000	1.223081
2690.000000	1.223102
2688.000000	1.223109
2686.000000	1.223161
2684.000000	1.223227
2682.000000	1.223318
2680.000000	1.223435
2678.000000	1.223525
2676.000000	1.223579
2674.000000	1.223591
2672.000000	1.223648
2670.000000	1.223733
2668.000000	1.223856
2666.000000	1.223951
2664.000000	1.224014
2662.000000	1.224071
2660.000000	1.224096
2658.000000	1.224161
2656.000000	1.224294
2654.000000	1.224374
2652.000000	1.224455
2650.000000	1.224589
2648.000000	1.224668
2646.000000	1.224676
2644.000000	1.224700
2642.000000	1.224691
2640.000000	1.224718
2638.000000	1.224736
2636.000000	1.224747
2634.000000	1.224748
2632.000000	1.224745
2630.000000	1.224737
2628.000000	1.224721
2626.000000	1.224749
2624.000000	1.224839
2622.000000	1.224855
2620.000000	1.224789
2618.000000	1.224804
2616.000000	1.224902
2614.000000	1.224958
2612.000000	1.224938
2610.000000	1.224899
2608.000000	1.224933
2606.000000	1.225006
2604.000000	1.225021
2602.000000	1.225016
2600.000000	1.225077
2598.000000	1.225127
2596.000000	1.225182
2594.000000	1.225205
2592.000000	1.225209
2590.000000	1.225224
2588.000000	1.225257
2586.000000	1.225242
2584.000000	1.225262
2582.000000	1.225295
2580.000000	1.225315
2578.000000	1.225334
2576.000000	1.225346
2574.000000	1.225306
2572.000000	1.225285
2570.000000	1.225336
2568.000000	1.225322
2566.000000	1.225281
2564.000000	1.225323
2562.000000	1.225318
2560.000000	1.225329
2558.000000	1.225382
2556.000000	1.225396
2554.000000	1.225357
2552.000000	1.225349
2550.000000	1.225344
2548.000000	1.225361
2546.000000	1.225369
2544.000000	1.225382
2542.000000	1.225405
2540.000000	1.225433
2538.000000	1.225373
2536.000000	1.225340
2534.000000	1.225394
2532.000000	1.225390
2530.000000	1.225352
2528.000000	1.225371
2526.000000	1.225378
2524.000000	1.225385
2522.000000	1.225317
2520.000000	1.225286
2518.000000	1.225327
2516.000000	1.225366
2514.000000	1.225350
2512.000000	1.225288
2510.000000	1.225278
2508.000000	1.225300
2506.000000	1.225274
2504.000000	1.225245
2502.000000	1.225244
2500.000000	1.225303
2498.000000	1.225295
2496.000000	1.225271
2494.000000	1.225297
2492.000000	1.225336
2490.000000	1.225311
2488.000000	1.225268
2486.000000	1.225238
2484.000000	1.225253
2482.000000	1.225275
2480.000000	1.225305
2478.000000	1.225281
2476.000000	1.225240
2474.000000	1.225246
2472.000000	1.225189
2470.000000	1.225099
2468.000000	1.225140
2466.000000	1.225237
2464.000000	1.225262
2462.000000	1.225275
2460.000000	1.225270
2458.000000	1.225235
2456.000000	1.225168
2454.000000	1.225140
2452.000000	1.225199
2450.000000	1.225220
2448.000000	1.225220
2446.000000	1.225172
2444.000000	1.225207
2442.000000	1.225296
2440.000000	1.225273
2438.000000	1.225188
2436.000000	1.225214
2434.000000	1.225243
2432.000000	1.225222
2430.000000	1.225211
2428.000000	1.225250
2426.000000	1.225249
2424.000000	1.225209
2422.000000	1.225174
2420.000000	1.225194
2418.000000	1.225215
2416.000000	1.225213
2414.000000	1.225150
2412.000000	1.225115
2410.000000	1.225096
2408.000000	1.225081
2406.000000	1.225065
2404.000000	1.225030
2402.000000	1.224975
2400.000000	1.224909
2398.000000	1.224858
2396.000000	1.224875
2394.000000	1.224930
2392.000000	1.224912
2390.000000	1.224876
2388.000000	1.224877
2386.000000	1.224855
2384.000000	1.224815
2382.000000	1.224694
2380.000000	1.224468
2378.000000	1.224188
2376.000000	1.223892
2374.000000	1.223499
2372.000000	1.223104
2370.000000	1.222745
2368.000000	1.222452
2366.000000	1.222263
2364.000000	1.222278
2362.000000	1.222415
2360.000000	1.222698
2358.000000	1.223080
2356.000000	1.223510
2354.000000	1.223962
2352.000000	1.224398
2350.000000	1.224329
2348.000000	1.223638
2346.000000	1.223146
2344.000000	1.223308
2342.000000	1.223910
2340.000000	1.224600
2338.000000	1.224807
2336.000000	1.224449
2334.000000	1.223971
2332.000000	1.223746
2330.000000	1.223789
2328.000000	1.223804
2326.000000	1.223855
2324.000000	1.224062
2322.000000	1.224205
2320.000000	1.224260
2318.000000	1.224286
2316.000000	1.224351
2314.000000	1.224473
2312.000000	1.224614
2310.000000	1.224674
2308.000000	1.224628
2306.000000	1.224542
2304.000000	1.224625
2302.000000	1.224716
2300.000000	1.224731
2298.000000	1.224735
2296.000000	1.224784
2294.000000	1.224764
2292.000000	1.224731
2290.000000	1.224748
2288.000000	1.224791
2286.000000	1.224819
2284.000000	1.224820
2282.000000	1.224786
2280.000000	1.224793
2278.000000	1.224768
2276.000000	1.224747
2274.000000	1.224726
2272.000000	1.224730
2270.000000	1.224747
2268.000000	1.224787
2266.000000	1.224751
2264.000000	1.224718
2262.000000	1.224689
2260.000000	1.224714
2258.000000	1.224750
2256.000000	1.224707
2254.000000	1.224640
2252.000000	1.224710
2250.000000	1.224684
2248.000000	1.224590
2246.000000	1.224571
2244.000000	1.224578
2242.000000	1.224553
2240.000000	1.224579
2238.000000	1.224593
2236.000000	1.224552
2234.000000	1.224457
2232.000000	1.224328
2230.000000	1.224272
2228.000000	1.224286
2226.000000	1.224363
2224.000000	1.224349
2222.000000	1.224174
2220.000000	1.224118
2218.000000	1.224186
2216.000000	1.224223
2214.000000	1.224159
2212.000000	1.224101
2210.000000	1.223969
2208.000000	1.223870
2206.000000	1.223871
2204.000000	1.223972
2202.000000	1.223992
2200.000000	1.223929
2198.000000	1.223786
2196.000000	1.223718
2194.000000	1.223730
2192.000000	1.223729
2190.000000	1.223667
2188.000000	1.223641
2186.000000	1.223617
2184.000000	1.223595
2182.000000	1.223510
2180.000000	1.223490
2178.000000	1.223432
2176.000000	1.223341
2174.000000	1.223340
2172.000000	1.223282
2170.000000	1.223176
2168.000000	1.223165
2166.000000	1.223153
2164.000000	1.223119
2162.000000	1.223034
2160.000000	1.222959
2158.000000	1.222908
2156.000000	1.222920
2154.000000	1.222900
2152.000000	1.222862
2150.000000	1.222776
2148.000000	1.222680
2146.000000	1.222626
2144.000000	1.222607
2142.000000	1.222532
2140.000000	1.222463
2138.000000	1.222397
2136.000000	1.222368
2134.000000	1.222332
2132.000000	1.222309
2130.000000	1.222238
2128.000000	1.222124
2126.000000	1.222053
2124.000000	1.222018
2122.000000	1.221970
2120.000000	1.221978
2118.000000	1.221925
2116.000000	1.221814
2114.000000	1.221720
2112.000000	1.221689
2110.000000	1.221643
2108.000000	1.221615
2106.000000	1.221537
2104.000000	1.221467
2102.000000	1.221427
2100.000000	1.221433
2098.000000	1.221415
2096.000000	1.221372
2094.000000	1.221370
2092.000000	1.221358
2090.000000	1.221297
2088.000000	1.221304
2086.000000	1.221302
2084.000000	1.221241
2082.000000	1.221122
2080.000000	1.221070
2078.000000	1.221004
2076.000000	1.220968
2074.000000	1.220929
2072.000000	1.220909
2070.000000	1.220850
2068.000000	1.220780
2066.000000	1.220626
2064.000000	1.220643
2062.000000	1.220714
2060.000000	1.220724
2058.000000	1.220660
2056.000000	1.220579
2054.000000	1.220494
2052.000000	1.220462
2050.000000	1.220434
2048.000000	1.220429
2046.000000	1.220404
2044.000000	1.220354
2042.000000	1.220250
2040.000000	1.220228
2038.000000	1.220214
2036.000000	1.220176
2034.000000	1.220107
2032.000000	1.220057
2030.000000	1.220034
2028.000000	1.220087
2026.000000	1.219995
2024.000000	1.219911
2022.000000	1.219918
2020.000000	1.219853
2018.000000	1.219724
2016.000000	1.219771
2014.000000	1.219843
2012.000000	1.219858
2010.000000	1.219815
2008.000000	1.219794
2006.000000	1.219766
2004.000000	1.219737
2002.000000	1.219671
2000.000000	1.219628
1998.000000	1.219598
1996.000000	1.219549
1994.000000	1.219264
1992.000000	1.219133
1990.000000	1.219277
1988.000000	1.219391
1986.000000	1.219464
1984.000000	1.219395
1982.000000	1.219289
1980.000000	1.219261
1978.000000	1.219297
1976.000000	1.219282
1974.000000	1.219203
1972.000000	1.219167
1970.000000	1.219078
1968.000000	1.218970
1966.000000	1.219105
1964.000000	1.219234
1962.000000	1.219095
1960.000000	1.219041
1958.000000	1.219312
1956.000000	1.219379
1954.000000	1.219230
1952.000000	1.219228
1950.000000	1.219206
1948.000000	1.219166
1946.000000	1.219000
1944.000000	1.218674
1942.000000	1.218836
1940.000000	1.219275
1938.000000	1.219277
1936.000000	1.219243
1934.000000	1.219237
1932.000000	1.219284
1930.000000	1.219255
1928.000000	1.219215
1926.000000	1.219009
1924.000000	1.218797
1922.000000	1.218912
1920.000000	1.218551
1918.000000	1.218472
1916.000000	1.219331
1914.000000	1.219414
1912.000000	1.219213
1910.000000	1.219091
1908.000000	1.219293
1906.000000	1.219338
1904.000000	1.219350
1902.000000	1.219374
1900.000000	1.219464
1898.000000	1.219355
1896.000000	1.219311
1894.000000	1.219401
1892.000000	1.219157
1890.000000	1.218873
1888.000000	1.219422
1886.000000	1.219499
1884.000000	1.219448
1882.000000	1.219456
1880.000000	1.219488
1878.000000	1.219454
1876.000000	1.219481
1874.000000	1.219371
1872.000000	1.218689
1870.000000	1.217690
1868.000000	1.218394
1866.000000	1.219294
1864.000000	1.219422
1862.000000	1.219264
1860.000000	1.219271
1858.000000	1.219304
1856.000000	1.219416
1854.000000	1.219352
1852.000000	1.219273
1850.000000	1.219010
1848.000000	1.218525
1846.000000	1.216897
1844.000000	1.217130
1842.000000	1.219186
1840.000000	1.219382
1838.000000	1.219126
1836.000000	1.219197
1834.000000	1.219029
1832.000000	1.217999
1830.000000	1.217728
1828.000000	1.218587
1826.000000	1.218352
1824.000000	1.218986
1822.000000	1.219535
1820.000000	1.219449
1818.000000	1.219371
1816.000000	1.219492
1814.000000	1.219282
1812.000000	1.218971
1810.000000	1.219110
1808.000000	1.219475
1806.000000	1.219404
1804.000000	1.218944
1802.000000	1.218271
1800.000000	1.218529
1798.000000	1.219018
1796.000000	1.218520
1794.000000	1.216599
1792.000000	1.217074
1790.000000	1.219188
1788.000000	1.219323
1786.000000	1.218552
1784.000000	1.218842
1782.000000	1.218888
1780.000000	1.219019
1778.000000	1.219186
1776.000000	1.218020
1774.000000	1.215422
1772.000000	1.216102
1770.000000	1.218158
1768.000000	1.218629
1766.000000	1.219612
1764.000000	1.218513
1762.000000	1.217991
1760.000000	1.219121
1758.000000	1.218778
1756.000000	1.219025
1754.000000	1.218315
1752.000000	1.216327
1750.000000	1.217468
1748.000000	1.218838
1746.000000	1.219260
1744.000000	1.219087
1742.000000	1.218263
1740.000000	1.218071
1738.000000	1.218591
1736.000000	1.214361
1734.000000	1.213821
1732.000000	1.219143
1730.000000	1.220380
1728.000000	1.220588
1726.000000	1.220517
1724.000000	1.220455
1722.000000	1.219924
1720.000000	1.216298
1718.000000	1.213718
1716.000000	1.217401
1714.000000	1.220101
1712.000000	1.220873
1710.000000	1.220416
1708.000000	1.219586
1706.000000	1.218769
1704.000000	1.218538
1702.000000	1.213697
1700.000000	1.213705
1698.000000	1.215592
1696.000000	1.215506
1694.000000	1.220862
1692.000000	1.221789
1690.000000	1.220818
1688.000000	1.218794
1686.000000	1.213311
1684.000000	1.215223
1682.000000	1.221073
1680.000000	1.221511
1678.000000	1.220053
1676.000000	1.218179
1674.000000	1.220013
1672.000000	1.219651
1670.000000	1.218689
1668.000000	1.221119
1666.000000	1.221887
1664.000000	1.220285
1662.000000	1.221093
1660.000000	1.222370
1658.000000	1.221592
1656.000000	1.215853
1654.000000	1.209147
1652.000000	1.216153
1650.000000	1.221568
1648.000000	1.218006
1646.000000	1.218881
1644.000000	1.222527
1642.000000	1.222992
1640.000000	1.221963
1638.000000	1.218621
1636.000000	1.216978
1634.000000	1.221567
1632.000000	1.223475
1630.000000	1.222328
1628.000000	1.221904
1626.000000	1.221395
1624.000000	1.220547
1622.000000	1.221961
1620.000000	1.221323
1618.000000	1.217758
1616.000000	1.219691
1614.000000	1.223121
1612.000000	1.222743
1610.000000	1.222759
1608.000000	1.223362
1606.000000	1.224154
1604.000000	1.224308
1602.000000	1.224424
1600.000000	1.224443
1598.000000	1.224411
1596.000000	1.224198
1594.000000	1.224255
1592.000000	1.224298
1590.000000	1.224295
1588.000000	1.224309
1586.000000	1.224321
1584.000000	1.224292
1582.000000	1.224374
1580.000000	1.223429
1578.000000	1.219403
1576.000000	1.219435
1574.000000	1.223970
1572.000000	1.222703
1570.000000	1.221419
1568.000000	1.223159
1566.000000	1.223631
1564.000000	1.222717
1562.000000	1.217474
1560.000000	1.211549
1558.000000	1.216814
1556.000000	1.221661
1554.000000	1.222662
1552.000000	1.223854
1550.000000	1.223932
1548.000000	1.223744
1546.000000	1.221862
1544.000000	1.219421
1542.000000	1.215599
1540.000000	1.215341
1538.000000	1.221844
1536.000000	1.223323
1534.000000	1.221605
1532.000000	1.223357
1530.000000	1.223592
1528.000000	1.222149
1526.000000	1.221381
1524.000000	1.219726
1522.000000	1.217511
1520.000000	1.220237
1518.000000	1.221520
1516.000000	1.222115
1514.000000	1.222813
1512.000000	1.222400
1510.000000	1.220016
1508.000000	1.214842
1506.000000	1.216629
1504.000000	1.222327
1502.000000	1.221710
1500.000000	1.218417
1498.000000	1.215976
1496.000000	1.218630
1494.000000	1.224026
1492.000000	1.225129
1490.000000	1.224968
1488.000000	1.225598
1486.000000	1.225881
1484.000000	1.225652
1482.000000	1.224938
1480.000000	1.224546
1478.000000	1.223178
1476.000000	1.221451
1474.000000	1.219517
1472.000000	1.220994
1470.000000	1.223825
1468.000000	1.223432
1466.000000	1.221834
1464.000000	1.222561
1462.000000	1.223059
1460.000000	1.219580
1458.000000	1.215227
1456.000000	1.218190
1454.000000	1.222426
1452.000000	1.223255
1450.000000	1.224230
1448.000000	1.224791
1446.000000	1.225102
1444.000000	1.224526
1442.000000	1.224136
1440.000000	1.222902
1438.000000	1.220276
1436.000000	1.221370
1434.000000	1.223717
1432.000000	1.223149
1430.000000	1.223012
1428.000000	1.223455
1426.000000	1.223309
1424.000000	1.222928
1422.000000	1.221656
1420.000000	1.219561
1418.000000	1.221643
1416.000000	1.223399
1414.000000	1.223417
1412.000000	1.223034
1410.000000	1.222821
1408.000000	1.222374
1406.000000	1.222103
1404.000000	1.222905
1402.000000	1.223587
1400.000000	1.223066
1398.000000	1.223138
1396.000000	1.222521
1394.000000	1.222911
1392.000000	1.223706
1390.000000	1.222804
1388.000000	1.221710
1386.000000	1.222530
1384.000000	1.223409
1382.000000	1.223569
1380.000000	1.223239
1378.000000	1.222915
1376.000000	1.222378
1374.000000	1.222321
1372.000000	1.222883
1370.000000	1.222914
1368.000000	1.222844
1366.000000	1.222608
1364.000000	1.221829
1362.000000	1.221933
1360.000000	1.222491
1358.000000	1.222591
1356.000000	1.222477
1354.000000	1.222477
1352.000000	1.222465
1350.000000	1.222444
1348.000000	1.222408
1346.000000	1.222270
1344.000000	1.222060
1342.000000	1.221720
1340.000000	1.221486
1338.000000	1.221893
1336.000000	1.222208
1334.000000	1.222207
1332.000000	1.222018
1330.000000	1.221947
1328.000000	1.221865
1326.000000	1.221750
1324.000000	1.221597
1322.000000	1.221442
1320.000000	1.221255
1318.000000	1.221236
1316.000000	1.221209
1314.000000	1.221106
1312.000000	1.221040
1310.000000	1.221021
1308.000000	1.220895
1306.000000	1.220921
1304.000000	1.220993
1302.000000	1.220979
1300.000000	1.220817
1298.000000	1.220688
1296.000000	1.220611
1294.000000	1.220597
1292.000000	1.220530
1290.000000	1.220510
1288.000000	1.220419
1286.000000	1.220410
1284.000000	1.220423
1282.000000	1.220496
1280.000000	1.220521
1278.000000	1.220556
1276.000000	1.220522
1274.000000	1.220515
1272.000000	1.220573
1270.000000	1.220910
1268.000000	1.221491
1266.000000	1.222638
1264.000000	1.224589
1262.000000	1.227245
1260.000000	1.229499
1258.000000	1.230231
1256.000000	1.229163
1254.000000	1.227237
1252.000000	1.225496
1250.000000	1.224447
1248.000000	1.223919
1246.000000	1.223713
1244.000000	1.223676
1242.000000	1.223825
1240.000000	1.224050
1238.000000	1.224313
1236.000000	1.224539
1234.000000	1.224875
1232.000000	1.225181
1230.000000	1.225434
1228.000000	1.225710
1226.000000	1.226104
1224.000000	1.226326
1222.000000	1.226532
1220.000000	1.226661
1218.000000	1.226776
1216.000000	1.226967
1214.000000	1.227246
1212.000000	1.227561
1210.000000	1.227936
1208.000000	1.228205
1206.000000	1.228517
1204.000000	1.228745
1202.000000	1.229040
1200.000000	1.229314
1198.000000	1.229668
1196.000000	1.229977
1194.000000	1.230264
1192.000000	1.230581
1190.000000	1.230958
1188.000000	1.231203
1186.000000	1.231431
1184.000000	1.231487
1182.000000	1.231665
1180.000000	1.232643
1178.000000	1.233620
1176.000000	1.233785
1174.000000	1.233815
1172.000000	1.234041
1170.000000	1.234430
1168.000000	1.234800
1166.000000	1.235359
1164.000000	1.235712
1162.000000	1.236111
1160.000000	1.236623
1158.000000	1.236980
1156.000000	1.237210
1154.000000	1.237521
1152.000000	1.237873
1150.000000	1.238178
1148.000000	1.238478
1146.000000	1.238898
1144.000000	1.239182
1142.000000	1.239572
1140.000000	1.239941
1138.000000	1.240213
1136.000000	1.240232
1134.000000	1.240411
1132.000000	1.240637
1130.000000	1.240795
1128.000000	1.240955
1126.000000	1.241385
1124.000000	1.241849
1122.000000	1.242220
1120.000000	1.242527
1118.000000	1.242745
1116.000000	1.242856
1114.000000	1.243109
1112.000000	1.243514
1110.000000	1.244178
1108.000000	1.244882
1106.000000	1.245107
1104.000000	1.245353
1102.000000	1.246412
1100.000000	1.247251
1098.000000	1.247521
1096.000000	1.247648
1094.000000	1.247731
1092.000000	1.247579
1090.000000	1.247690
1088.000000	1.248085
1086.000000	1.248218
1084.000000	1.247832
1082.000000	1.247691
1080.000000	1.247636
1078.000000	1.247160
1076.000000	1.246861
1074.000000	1.246996
1072.000000	1.246829
1070.000000	1.246533
1068.000000	1.245994
1066.000000	1.245676
1064.000000	1.245368
1062.000000	1.244959
1060.000000	1.244472
1058.000000	1.243525
1056.000000	1.242204
1054.000000	1.241453
1052.000000	1.241296
1050.000000	1.242277
1048.000000	1.243364
1046.000000	1.243160
1044.000000	1.241986
1042.000000	1.240806
1040.000000	1.239765
1038.000000	1.239353
1036.000000	1.238992
1034.000000	1.238654
1032.000000	1.238428
1030.000000	1.237945
1028.000000	1.237294
1026.000000	1.236881
1024.000000	1.236312
1022.000000	1.236065
1020.000000	1.236086
1018.000000	1.235959
1016.000000	1.235248
1014.000000	1.233561
1012.000000	1.231710
1010.000000	1.230350
1008.000000	1.228568
1006.000000	1.226613
1004.000000	1.224964
1002.000000	1.223476
1000.000000	1.222223
