PE IR       SUBTECH     SPECTRUM    ASCII       PEDS        4.00        
   -1
TE110A_022_100K_SB.ASC
20/05/14
12:21:17.00
20/05/14
12:21:17.00
Administrator
TE110A.Thursday, May 14 2020, 005.
1000.000000
#HDR
-1
-1
#GR
cm-1
EGY
1.0
0.0
6000.000000
-2.000000
2501
8
5.656954
0.575536
#DATA
6000.000000	0.872826
5998.000000	0.874204
5996.000000	0.875641
5994.000000	0.876580
5992.000000	0.878602
5990.000000	0.880692
5988.000000	0.882534
5986.000000	0.884249
5984.000000	0.885674
5982.000000	0.886809
5980.000000	0.888283
5978.000000	0.889781
5976.000000	0.891946
5974.000000	0.895384
5972.000000	0.898312
5970.000000	0.901133
5968.000000	0.902465
5966.000000	0.903606
5964.000000	0.905542
5962.000000	0.907226
5960.000000	0.909214
5958.000000	0.911241
5956.000000	0.913005
5954.000000	0.914259
5952.000000	0.915255
5950.000000	0.917199
5948.000000	0.919959
5946.000000	0.921594
5944.000000	0.922641
5942.000000	0.923511
5940.000000	0.925760
5938.000000	0.928519
5936.000000	0.931165
5934.000000	0.933624
5932.000000	0.936061
5930.000000	0.937883
5928.000000	0.938952
5926.000000	0.940343
5924.000000	0.942438
5922.000000	0.945079
5920.000000	0.948000
5918.000000	0.949407
5916.000000	0.950167
5914.000000	0.951915
5912.000000	0.955109
5910.000000	0.958373
5908.000000	0.959415
5906.000000	0.960129
5904.000000	0.961735
5902.000000	0.963328
5900.000000	0.964888
5898.000000	0.966639
5896.000000	0.969932
5894.000000	0.972953
5892.000000	0.974766
5890.000000	0.976441
5888.000000	0.977825
5886.000000	0.979512
5884.000000	0.981758
5882.000000	0.983689
5880.000000	0.986183
5878.000000	0.988659
5876.000000	0.990462
5874.000000	0.992167
5872.000000	0.993692
5870.000000	0.996481
5868.000000	0.999497
5866.000000	1.001335
5864.000000	1.002708
5862.000000	1.003656
5860.000000	1.004649
5858.000000	1.006247
5856.000000	1.008212
5854.000000	1.011456
5852.000000	1.014802
5850.000000	1.017633
5848.000000	1.019772
5846.000000	1.021716
5844.000000	1.024040
5842.000000	1.025660
5840.000000	1.026572
5838.000000	1.028435
5836.000000	1.031246
5834.000000	1.034614
5832.000000	1.036763
5830.000000	1.038823
5828.000000	1.040785
5826.000000	1.042404
5824.000000	1.043978
5822.000000	1.045600
5820.000000	1.047669
5818.000000	1.050198
5816.000000	1.053419
5814.000000	1.057160
5812.000000	1.059775
5810.000000	1.061452
5808.000000	1.063007
5806.000000	1.065216
5804.000000	1.067668
5802.000000	1.069168
5800.000000	1.070718
5798.000000	1.072814
5796.000000	1.075734
5794.000000	1.078104
5792.000000	1.079703
5790.000000	1.082456
5788.000000	1.085183
5786.000000	1.087140
5784.000000	1.088834
5782.000000	1.091488
5780.000000	1.094698
5778.000000	1.097756
5776.000000	1.099821
5774.000000	1.101283
5772.000000	1.103443
5770.000000	1.105640
5768.000000	1.108344
5766.000000	1.110733
5764.000000	1.112839
5762.000000	1.115922
5760.000000	1.118411
5758.000000	1.119731
5756.000000	1.121597
5754.000000	1.123704
5752.000000	1.126421
5750.000000	1.128924
5748.000000	1.131255
5746.000000	1.133665
5744.000000	1.135635
5742.000000	1.137825
5740.000000	1.141011
5738.000000	1.143649
5736.000000	1.144731
5734.000000	1.144974
5732.000000	1.145637
5730.000000	1.147717
5728.000000	1.150944
5726.000000	1.154758
5724.000000	1.158037
5722.000000	1.160382
5720.000000	1.161919
5718.000000	1.164258
5716.000000	1.167273
5714.000000	1.170299
5712.000000	1.172347
5710.000000	1.173843
5708.000000	1.176826
5706.000000	1.179901
5704.000000	1.182024
5702.000000	1.183745
5700.000000	1.186082
5698.000000	1.189185
5696.000000	1.190656
5694.000000	1.191992
5692.000000	1.194253
5690.000000	1.196943
5688.000000	1.200145
5686.000000	1.203281
5684.000000	1.206492
5682.000000	1.209647
5680.000000	1.212205
5678.000000	1.214497
5676.000000	1.216578
5674.000000	1.218956
5672.000000	1.221809
5670.000000	1.224247
5668.000000	1.226377
5666.000000	1.228324
5664.000000	1.230724
5662.000000	1.233965
5660.000000	1.236877
5658.000000	1.238856
5656.000000	1.240554
5654.000000	1.242853
5652.000000	1.245778
5650.000000	1.247733
5648.000000	1.249224
5646.000000	1.251676
5644.000000	1.254209
5642.000000	1.256581
5640.000000	1.258641
5638.000000	1.261133
5636.000000	1.264564
5634.000000	1.268265
5632.000000	1.271632
5630.000000	1.274416
5628.000000	1.276482
5626.000000	1.278680
5624.000000	1.280916
5622.000000	1.282903
5620.000000	1.284701
5618.000000	1.286847
5616.000000	1.289827
5614.000000	1.292479
5612.000000	1.294796
5610.000000	1.296333
5608.000000	1.298294
5606.000000	1.301331
5604.000000	1.305563
5602.000000	1.308877
5600.000000	1.310280
5598.000000	1.311795
5596.000000	1.315278
5594.000000	1.318846
5592.000000	1.321285
5590.000000	1.323780
5588.000000	1.326568
5586.000000	1.329649
5584.000000	1.331663
5582.000000	1.334038
5580.000000	1.335939
5578.000000	1.337667
5576.000000	1.340119
5574.000000	1.342909
5572.000000	1.346628
5570.000000	1.350117
5568.000000	1.353395
5566.000000	1.355598
5564.000000	1.357186
5562.000000	1.359606
5560.000000	1.362201
5558.000000	1.365148
5556.000000	1.367852
5554.000000	1.370470
5552.000000	1.372660
5550.000000	1.374499
5548.000000	1.377358
5546.000000	1.381042
5544.000000	1.384500
5542.000000	1.386909
5540.000000	1.388225
5538.000000	1.389950
5536.000000	1.393030
5534.000000	1.396744
5532.000000	1.399406
5530.000000	1.400305
5528.000000	1.401669
5526.000000	1.404916
5524.000000	1.408814
5522.000000	1.412030
5520.000000	1.414646
5518.000000	1.417176
5516.000000	1.419380
5514.000000	1.421574
5512.000000	1.423592
5510.000000	1.426512
5508.000000	1.429382
5506.000000	1.433101
5504.000000	1.436728
5502.000000	1.439318
5500.000000	1.441590
5498.000000	1.443203
5496.000000	1.445837
5494.000000	1.449006
5492.000000	1.451466
5490.000000	1.453374
5488.000000	1.454971
5486.000000	1.457775
5484.000000	1.461692
5482.000000	1.464953
5480.000000	1.467408
5478.000000	1.469384
5476.000000	1.470815
5474.000000	1.472875
5472.000000	1.476000
5470.000000	1.479547
5468.000000	1.482694
5466.000000	1.484859
5464.000000	1.487838
5462.000000	1.490993
5460.000000	1.493531
5458.000000	1.496059
5456.000000	1.499231
5454.000000	1.502917
5452.000000	1.506805
5450.000000	1.509214
5448.000000	1.510378
5446.000000	1.511718
5444.000000	1.514086
5442.000000	1.517309
5440.000000	1.520592
5438.000000	1.524183
5436.000000	1.527778
5434.000000	1.530402
5432.000000	1.532319
5430.000000	1.533347
5428.000000	1.534675
5426.000000	1.537428
5424.000000	1.542135
5422.000000	1.546171
5420.000000	1.548621
5418.000000	1.550909
5416.000000	1.553401
5414.000000	1.554891
5412.000000	1.555150
5410.000000	1.557491
5408.000000	1.561961
5406.000000	1.566827
5404.000000	1.570724
5402.000000	1.574145
5400.000000	1.577769
5398.000000	1.580220
5396.000000	1.581863
5394.000000	1.582824
5392.000000	1.584811
5390.000000	1.587977
5388.000000	1.591936
5386.000000	1.595016
5384.000000	1.596796
5382.000000	1.599204
5380.000000	1.602969
5378.000000	1.605816
5376.000000	1.607250
5374.000000	1.610050
5372.000000	1.614655
5370.000000	1.618814
5368.000000	1.621490
5366.000000	1.623813
5364.000000	1.625874
5362.000000	1.627892
5360.000000	1.631561
5358.000000	1.635716
5356.000000	1.638295
5354.000000	1.639436
5352.000000	1.641262
5350.000000	1.644410
5348.000000	1.647246
5346.000000	1.648580
5344.000000	1.649822
5342.000000	1.652434
5340.000000	1.655879
5338.000000	1.658694
5336.000000	1.661424
5334.000000	1.665446
5332.000000	1.670029
5330.000000	1.673113
5328.000000	1.675009
5326.000000	1.678039
5324.000000	1.681918
5322.000000	1.685188
5320.000000	1.687650
5318.000000	1.690355
5316.000000	1.693568
5314.000000	1.696200
5312.000000	1.698696
5310.000000	1.702112
5308.000000	1.705271
5306.000000	1.708160
5304.000000	1.710882
5302.000000	1.714122
5300.000000	1.715982
5298.000000	1.717527
5296.000000	1.720511
5294.000000	1.724386
5292.000000	1.727310
5290.000000	1.729534
5288.000000	1.732143
5286.000000	1.735029
5284.000000	1.737979
5282.000000	1.740492
5280.000000	1.743477
5278.000000	1.747034
5276.000000	1.750427
5274.000000	1.753291
5272.000000	1.756167
5270.000000	1.759454
5268.000000	1.762548
5266.000000	1.764802
5264.000000	1.766197
5262.000000	1.767382
5260.000000	1.769825
5258.000000	1.773415
5256.000000	1.776560
5254.000000	1.778879
5252.000000	1.781452
5250.000000	1.784422
5248.000000	1.787027
5246.000000	1.789345
5244.000000	1.791995
5242.000000	1.795151
5240.000000	1.798460
5238.000000	1.802885
5236.000000	1.807493
5234.000000	1.810770
5232.000000	1.812436
5230.000000	1.813293
5228.000000	1.814863
5226.000000	1.817343
5224.000000	1.820142
5222.000000	1.823383
5220.000000	1.828020
5218.000000	1.832525
5216.000000	1.835357
5214.000000	1.837301
5212.000000	1.840520
5210.000000	1.844128
5208.000000	1.846232
5206.000000	1.846494
5204.000000	1.847667
5202.000000	1.852228
5200.000000	1.858207
5198.000000	1.862195
5196.000000	1.864551
5194.000000	1.867817
5192.000000	1.871373
5190.000000	1.873127
5188.000000	1.874726
5186.000000	1.877956
5184.000000	1.881632
5182.000000	1.884655
5180.000000	1.887124
5178.000000	1.889938
5176.000000	1.893246
5174.000000	1.896643
5172.000000	1.899478
5170.000000	1.901905
5168.000000	1.904936
5166.000000	1.907641
5164.000000	1.909484
5162.000000	1.912524
5160.000000	1.917007
5158.000000	1.920730
5156.000000	1.923450
5154.000000	1.926247
5152.000000	1.929016
5150.000000	1.931470
5148.000000	1.934175
5146.000000	1.937718
5144.000000	1.941168
5142.000000	1.944462
5140.000000	1.947735
5138.000000	1.950831
5136.000000	1.953884
5134.000000	1.957103
5132.000000	1.960513
5130.000000	1.963604
5128.000000	1.965862
5126.000000	1.967536
5124.000000	1.970151
5122.000000	1.972924
5120.000000	1.975320
5118.000000	1.977783
5116.000000	1.980968
5114.000000	1.984499
5112.000000	1.988567
5110.000000	1.992979
5108.000000	1.995868
5106.000000	1.997701
5104.000000	1.999656
5102.000000	2.001891
5100.000000	2.005032
5098.000000	2.009199
5096.000000	2.012972
5094.000000	2.015437
5092.000000	2.018571
5090.000000	2.021514
5088.000000	2.024057
5086.000000	2.026619
5084.000000	2.030137
5082.000000	2.033845
5080.000000	2.036912
5078.000000	2.039576
5076.000000	2.042328
5074.000000	2.044960
5072.000000	2.047592
5070.000000	2.051245
5068.000000	2.055495
5066.000000	2.058106
5064.000000	2.059274
5062.000000	2.062002
5060.000000	2.066054
5058.000000	2.069699
5056.000000	2.072932
5054.000000	2.075914
5052.000000	2.078609
5050.000000	2.080554
5048.000000	2.083504
5046.000000	2.086863
5044.000000	2.090132
5042.000000	2.092980
5040.000000	2.095485
5038.000000	2.098353
5036.000000	2.101714
5034.000000	2.105565
5032.000000	2.109264
5030.000000	2.113011
5028.000000	2.116667
5026.000000	2.119543
5024.000000	2.121633
5022.000000	2.124255
5020.000000	2.127452
5018.000000	2.130547
5016.000000	2.133445
5014.000000	2.137368
5012.000000	2.141232
5010.000000	2.143891
5008.000000	2.146129
5006.000000	2.149372
5004.000000	2.152891
5002.000000	2.155455
5000.000000	2.157430
4998.000000	2.160039
4996.000000	2.163214
4994.000000	2.165886
4992.000000	2.168094
4990.000000	2.170808
4988.000000	2.174694
4986.000000	2.178640
4984.000000	2.182057
4982.000000	2.185134
4980.000000	2.188824
4978.000000	2.192510
4976.000000	2.195827
4974.000000	2.199148
4972.000000	2.202659
4970.000000	2.205538
4968.000000	2.207940
4966.000000	2.210393
4964.000000	2.213499
4962.000000	2.216932
4960.000000	2.220665
4958.000000	2.223703
4956.000000	2.226088
4954.000000	2.228905
4952.000000	2.231726
4950.000000	2.233851
4948.000000	2.235889
4946.000000	2.239686
4944.000000	2.244497
4942.000000	2.248911
4940.000000	2.252168
4938.000000	2.255068
4936.000000	2.258026
4934.000000	2.260843
4932.000000	2.263565
4930.000000	2.266521
4928.000000	2.269710
4926.000000	2.272860
4924.000000	2.275844
4922.000000	2.278851
4920.000000	2.281491
4918.000000	2.284107
4916.000000	2.286582
4914.000000	2.289634
4912.000000	2.293084
4910.000000	2.296857
4908.000000	2.300771
4906.000000	2.304272
4904.000000	2.307046
4902.000000	2.309505
4900.000000	2.312617
4898.000000	2.316478
4896.000000	2.319890
4894.000000	2.323112
4892.000000	2.326730
4890.000000	2.330104
4888.000000	2.332685
4886.000000	2.334991
4884.000000	2.336825
4882.000000	2.338818
4880.000000	2.342347
4878.000000	2.347300
4876.000000	2.352284
4874.000000	2.355810
4872.000000	2.357907
4870.000000	2.359643
4868.000000	2.362061
4866.000000	2.364228
4864.000000	2.366737
4862.000000	2.370442
4860.000000	2.374995
4858.000000	2.379920
4856.000000	2.383361
4854.000000	2.384795
4852.000000	2.386742
4850.000000	2.390659
4848.000000	2.395237
4846.000000	2.398801
4844.000000	2.402634
4842.000000	2.406126
4840.000000	2.408188
4838.000000	2.409058
4836.000000	2.411477
4834.000000	2.415119
4832.000000	2.418288
4830.000000	2.421665
4828.000000	2.426256
4826.000000	2.430174
4824.000000	2.432096
4822.000000	2.433993
4820.000000	2.437972
4818.000000	2.443433
4816.000000	2.448290
4814.000000	2.451365
4812.000000	2.453925
4810.000000	2.456620
4808.000000	2.458625
4806.000000	2.460089
4804.000000	2.463717
4802.000000	2.469264
4800.000000	2.473739
4798.000000	2.476549
4796.000000	2.478770
4794.000000	2.480807
4792.000000	2.483064
4790.000000	2.486402
4788.000000	2.490848
4786.000000	2.495196
4784.000000	2.498688
4782.000000	2.500996
4780.000000	2.503212
4778.000000	2.505949
4776.000000	2.509284
4774.000000	2.513344
4772.000000	2.517843
4770.000000	2.520974
4768.000000	2.523154
4766.000000	2.525475
4764.000000	2.528116
4762.000000	2.531238
4760.000000	2.535320
4758.000000	2.539311
4756.000000	2.542797
4754.000000	2.545947
4752.000000	2.548067
4750.000000	2.550003
4748.000000	2.553472
4746.000000	2.557885
4744.000000	2.561812
4742.000000	2.565200
4740.000000	2.568086
4738.000000	2.570544
4736.000000	2.573560
4734.000000	2.577310
4732.000000	2.580878
4730.000000	2.583425
4728.000000	2.585779
4726.000000	2.588801
4724.000000	2.592603
4722.000000	2.596365
4720.000000	2.600067
4718.000000	2.602979
4716.000000	2.605273
4714.000000	2.607672
4712.000000	2.610716
4710.000000	2.614398
4708.000000	2.618178
4706.000000	2.622095
4704.000000	2.626814
4702.000000	2.631418
4700.000000	2.634343
4698.000000	2.636669
4696.000000	2.639273
4694.000000	2.642159
4692.000000	2.645925
4690.000000	2.650351
4688.000000	2.654804
4686.000000	2.658394
4684.000000	2.661675
4682.000000	2.665099
4680.000000	2.668428
4678.000000	2.671120
4676.000000	2.673620
4674.000000	2.676365
4672.000000	2.679377
4670.000000	2.682715
4668.000000	2.686466
4666.000000	2.690735
4664.000000	2.695111
4662.000000	2.698870
4660.000000	2.701867
4658.000000	2.704129
4656.000000	2.706058
4654.000000	2.708002
4652.000000	2.710816
4650.000000	2.714439
4648.000000	2.718159
4646.000000	2.721933
4644.000000	2.725605
4642.000000	2.728760
4640.000000	2.732493
4638.000000	2.737206
4636.000000	2.741033
4634.000000	2.743321
4632.000000	2.746061
4630.000000	2.750452
4628.000000	2.754884
4626.000000	2.757719
4624.000000	2.760201
4622.000000	2.763284
4620.000000	2.766104
4618.000000	2.768462
4616.000000	2.772107
4614.000000	2.777156
4612.000000	2.781282
4610.000000	2.783550
4608.000000	2.785915
4606.000000	2.789596
4604.000000	2.793913
4602.000000	2.797390
4600.000000	2.800466
4598.000000	2.803672
4596.000000	2.807682
4594.000000	2.811675
4592.000000	2.814838
4590.000000	2.817213
4588.000000	2.820859
4586.000000	2.825801
4584.000000	2.831161
4582.000000	2.835119
4580.000000	2.837098
4578.000000	2.838007
4576.000000	2.839524
4574.000000	2.842096
4572.000000	2.846278
4570.000000	2.851425
4568.000000	2.856484
4566.000000	2.860158
4564.000000	2.862649
4562.000000	2.864770
4560.000000	2.867373
4558.000000	2.870955
4556.000000	2.875423
4554.000000	2.879690
4552.000000	2.883263
4550.000000	2.886895
4548.000000	2.890297
4546.000000	2.893279
4544.000000	2.896886
4542.000000	2.901611
4540.000000	2.905369
4538.000000	2.907796
4536.000000	2.910777
4534.000000	2.914590
4532.000000	2.918186
4530.000000	2.921987
4528.000000	2.926159
4526.000000	2.929214
4524.000000	2.931855
4522.000000	2.934979
4520.000000	2.938078
4518.000000	2.941401
4516.000000	2.945579
4514.000000	2.949396
4512.000000	2.953231
4510.000000	2.957573
4508.000000	2.961963
4506.000000	2.965806
4504.000000	2.969032
4502.000000	2.971678
4500.000000	2.974537
4498.000000	2.978132
4496.000000	2.982562
4494.000000	2.986721
4492.000000	2.989644
4490.000000	2.991891
4488.000000	2.994938
4486.000000	2.999551
4484.000000	3.005147
4482.000000	3.008821
4480.000000	3.010526
4478.000000	3.013366
4476.000000	3.017050
4474.000000	3.019682
4472.000000	3.022528
4470.000000	3.026605
4468.000000	3.030061
4466.000000	3.032896
4464.000000	3.036509
4462.000000	3.040379
4460.000000	3.043037
4458.000000	3.045308
4456.000000	3.048932
4454.000000	3.053718
4452.000000	3.058320
4450.000000	3.061592
4448.000000	3.064065
4446.000000	3.066475
4444.000000	3.069603
4442.000000	3.073671
4440.000000	3.077991
4438.000000	3.081400
4436.000000	3.084621
4434.000000	3.089320
4432.000000	3.095065
4430.000000	3.099299
4428.000000	3.100739
4426.000000	3.101860
4424.000000	3.105494
4422.000000	3.110397
4420.000000	3.113739
4418.000000	3.116063
4416.000000	3.119608
4414.000000	3.123579
4412.000000	3.126128
4410.000000	3.128616
4408.000000	3.132621
4406.000000	3.136835
4404.000000	3.140625
4402.000000	3.144961
4400.000000	3.149740
4398.000000	3.153315
4396.000000	3.155416
4394.000000	3.158224
4392.000000	3.162413
4390.000000	3.165580
4388.000000	3.167502
4386.000000	3.170476
4384.000000	3.174587
4382.000000	3.178297
4380.000000	3.181341
4378.000000	3.184483
4376.000000	3.188434
4374.000000	3.192577
4372.000000	3.195075
4370.000000	3.196605
4368.000000	3.199625
4366.000000	3.204029
4364.000000	3.207547
4362.000000	3.209666
4360.000000	3.212742
4358.000000	3.217407
4356.000000	3.221310
4354.000000	3.224467
4352.000000	3.228542
4350.000000	3.232709
4348.000000	3.236036
4346.000000	3.239109
4344.000000	3.241973
4342.000000	3.245326
4340.000000	3.249665
4338.000000	3.254197
4336.000000	3.257989
4334.000000	3.260775
4332.000000	3.263582
4330.000000	3.268479
4328.000000	3.273674
4326.000000	3.276494
4324.000000	3.278914
4322.000000	3.282526
4320.000000	3.286407
4318.000000	3.289820
4316.000000	3.293296
4314.000000	3.297291
4312.000000	3.301579
4310.000000	3.305623
4308.000000	3.309155
4306.000000	3.311879
4304.000000	3.315578
4302.000000	3.319911
4300.000000	3.323644
4298.000000	3.327184
4296.000000	3.330511
4294.000000	3.333534
4292.000000	3.337596
4290.000000	3.341868
4288.000000	3.345255
4286.000000	3.348144
4284.000000	3.351255
4282.000000	3.354491
4280.000000	3.357266
4278.000000	3.360424
4276.000000	3.364666
4274.000000	3.368125
4272.000000	3.371216
4270.000000	3.375516
4268.000000	3.378383
4266.000000	3.380232
4264.000000	3.384684
4262.000000	3.390137
4260.000000	3.393897
4258.000000	3.396706
4256.000000	3.399224
4254.000000	3.401809
4252.000000	3.405810
4250.000000	3.410053
4248.000000	3.413592
4246.000000	3.417516
4244.000000	3.421006
4242.000000	3.424101
4240.000000	3.427858
4238.000000	3.431373
4236.000000	3.435232
4234.000000	3.439718
4232.000000	3.443460
4230.000000	3.446792
4228.000000	3.450279
4226.000000	3.453957
4224.000000	3.457955
4222.000000	3.461873
4220.000000	3.465087
4218.000000	3.467959
4216.000000	3.471113
4214.000000	3.474764
4212.000000	3.479006
4210.000000	3.483323
4208.000000	3.487166
4206.000000	3.491405
4204.000000	3.496582
4202.000000	3.500746
4200.000000	3.503356
4198.000000	3.506459
4196.000000	3.510287
4194.000000	3.513664
4192.000000	3.517121
4190.000000	3.520925
4188.000000	3.524425
4186.000000	3.527551
4184.000000	3.531001
4182.000000	3.535039
4180.000000	3.539722
4178.000000	3.544700
4176.000000	3.548544
4174.000000	3.551141
4172.000000	3.554668
4170.000000	3.559325
4168.000000	3.563437
4166.000000	3.566616
4164.000000	3.569445
4162.000000	3.572575
4160.000000	3.576673
4158.000000	3.581742
4156.000000	3.585694
4154.000000	3.587500
4152.000000	3.590041
4150.000000	3.594746
4148.000000	3.599580
4146.000000	3.603984
4144.000000	3.608750
4142.000000	3.612587
4140.000000	3.615280
4138.000000	3.618169
4136.000000	3.621491
4134.000000	3.625613
4132.000000	3.630068
4130.000000	3.633994
4128.000000	3.637871
4126.000000	3.641980
4124.000000	3.646112
4122.000000	3.649722
4120.000000	3.653223
4118.000000	3.656798
4116.000000	3.661028
4114.000000	3.666710
4112.000000	3.672194
4110.000000	3.675936
4108.000000	3.678552
4106.000000	3.681115
4104.000000	3.684276
4102.000000	3.688107
4100.000000	3.693102
4098.000000	3.697963
4096.000000	3.701610
4094.000000	3.704775
4092.000000	3.707810
4090.000000	3.710736
4088.000000	3.714866
4086.000000	3.719776
4084.000000	3.723366
4082.000000	3.726317
4080.000000	3.730035
4078.000000	3.733380
4076.000000	3.736965
4074.000000	3.741596
4072.000000	3.745882
4070.000000	3.749678
4068.000000	3.753566
4066.000000	3.757537
4064.000000	3.761957
4062.000000	3.766250
4060.000000	3.770084
4058.000000	3.774324
4056.000000	3.778212
4054.000000	3.781319
4052.000000	3.784937
4050.000000	3.788501
4048.000000	3.791211
4046.000000	3.794252
4044.000000	3.798001
4042.000000	3.802393
4040.000000	3.807242
4038.000000	3.811553
4036.000000	3.815943
4034.000000	3.820669
4032.000000	3.824590
4030.000000	3.828090
4028.000000	3.832039
4026.000000	3.836274
4024.000000	3.840632
4022.000000	3.844701
4020.000000	3.848272
4018.000000	3.851727
4016.000000	3.855875
4014.000000	3.860239
4012.000000	3.864147
4010.000000	3.867896
4008.000000	3.872051
4006.000000	3.876362
4004.000000	3.880291
4002.000000	3.883219
4000.000000	3.886254
3998.000000	3.891117
3996.000000	3.896157
3994.000000	3.899525
3992.000000	3.902712
3990.000000	3.906464
3988.000000	3.910519
3986.000000	3.914393
3984.000000	3.918184
3982.000000	3.921663
3980.000000	3.924705
3978.000000	3.928245
3976.000000	3.932202
3974.000000	3.935992
3972.000000	3.940172
3970.000000	3.944188
3968.000000	3.947939
3966.000000	3.952162
3964.000000	3.955576
3962.000000	3.957893
3960.000000	3.961672
3958.000000	3.966911
3956.000000	3.971266
3954.000000	3.974117
3952.000000	3.976923
3950.000000	3.979100
3948.000000	3.980947
3946.000000	3.984852
3944.000000	3.989022
3942.000000	3.991717
3940.000000	3.996588
3938.000000	4.004333
3936.000000	4.010709
3934.000000	4.012295
3932.000000	4.010675
3930.000000	4.012858
3928.000000	4.020302
3926.000000	4.025407
3924.000000	4.026489
3922.000000	4.028864
3920.000000	4.032191
3918.000000	4.032397
3916.000000	4.034206
3914.000000	4.043918
3912.000000	4.055980
3910.000000	4.063113
3908.000000	4.065105
3906.000000	4.058139
3904.000000	4.041665
3902.000000	4.030671
3900.000000	4.034572
3898.000000	4.049364
3896.000000	4.070335
3894.000000	4.084180
3892.000000	4.080302
3890.000000	4.074414
3888.000000	4.078744
3886.000000	4.076077
3884.000000	4.070996
3882.000000	4.082049
3880.000000	4.093330
3878.000000	4.101063
3876.000000	4.111742
3874.000000	4.111861
3872.000000	4.101138
3870.000000	4.086608
3868.000000	4.084160
3866.000000	4.099830
3864.000000	4.110331
3862.000000	4.117544
3860.000000	4.133864
3858.000000	4.144759
3856.000000	4.121150
3854.000000	4.055751
3852.000000	4.019636
3850.000000	4.069026
3848.000000	4.141692
3846.000000	4.173113
3844.000000	4.173568
3842.000000	4.165529
3840.000000	4.150685
3838.000000	4.125808
3836.000000	4.117912
3834.000000	4.144211
3832.000000	4.173163
3830.000000	4.188735
3828.000000	4.200907
3826.000000	4.208237
3824.000000	4.206331
3822.000000	4.189678
3820.000000	4.173189
3818.000000	4.176423
3816.000000	4.176000
3814.000000	4.181159
3812.000000	4.218277
3810.000000	4.244766
3808.000000	4.231801
3806.000000	4.212271
3804.000000	4.213025
3802.000000	4.207303
3800.000000	4.195363
3798.000000	4.217081
3796.000000	4.249105
3794.000000	4.265448
3792.000000	4.278942
3790.000000	4.287424
3788.000000	4.289728
3786.000000	4.291737
3784.000000	4.293597
3782.000000	4.295138
3780.000000	4.294093
3778.000000	4.294189
3776.000000	4.303751
3774.000000	4.314326
3772.000000	4.314017
3770.000000	4.304700
3768.000000	4.300241
3766.000000	4.307436
3764.000000	4.318275
3762.000000	4.327739
3760.000000	4.327644
3758.000000	4.322520
3756.000000	4.325666
3754.000000	4.316569
3752.000000	4.276029
3750.000000	4.240626
3748.000000	4.249688
3746.000000	4.264920
3744.000000	4.248602
3742.000000	4.265018
3740.000000	4.327433
3738.000000	4.352199
3736.000000	4.331193
3734.000000	4.316553
3732.000000	4.326619
3730.000000	4.353283
3728.000000	4.380071
3726.000000	4.389101
3724.000000	4.390460
3722.000000	4.396265
3720.000000	4.404347
3718.000000	4.413986
3716.000000	4.421333
3714.000000	4.415155
3712.000000	4.390521
3710.000000	4.378612
3708.000000	4.400148
3706.000000	4.430659
3704.000000	4.445206
3702.000000	4.442354
3700.000000	4.440703
3698.000000	4.451506
3696.000000	4.462203
3694.000000	4.463913
3692.000000	4.453559
3690.000000	4.425854
3688.000000	4.400613
3686.000000	4.417244
3684.000000	4.462747
3682.000000	4.487900
3680.000000	4.487247
3678.000000	4.468113
3676.000000	4.429641
3674.000000	4.409694
3672.000000	4.426408
3670.000000	4.433918
3668.000000	4.444565
3666.000000	4.484420
3664.000000	4.515358
3662.000000	4.525076
3660.000000	4.526787
3658.000000	4.518895
3656.000000	4.503559
3654.000000	4.501442
3652.000000	4.502040
3650.000000	4.473258
3648.000000	4.448649
3646.000000	4.471812
3644.000000	4.515541
3642.000000	4.541378
3640.000000	4.549309
3638.000000	4.551687
3636.000000	4.551825
3634.000000	4.548657
3632.000000	4.538880
3630.000000	4.509974
3628.000000	4.480697
3626.000000	4.499019
3624.000000	4.541780
3622.000000	4.555408
3620.000000	4.540513
3618.000000	4.527723
3616.000000	4.535360
3614.000000	4.544121
3612.000000	4.541049
3610.000000	4.536283
3608.000000	4.535111
3606.000000	4.545829
3604.000000	4.563066
3602.000000	4.569952
3600.000000	4.568117
3598.000000	4.566491
3596.000000	4.565443
3594.000000	4.563739
3592.000000	4.565882
3590.000000	4.564824
3588.000000	4.551484
3586.000000	4.544234
3584.000000	4.556980
3582.000000	4.571866
3580.000000	4.576996
3578.000000	4.576415
3576.000000	4.574745
3574.000000	4.575100
3572.000000	4.576027
3570.000000	4.571174
3568.000000	4.556522
3566.000000	4.545240
3564.000000	4.551764
3562.000000	4.564392
3560.000000	4.570431
3558.000000	4.572396
3556.000000	4.572796
3554.000000	4.570932
3552.000000	4.567247
3550.000000	4.564617
3548.000000	4.562075
3546.000000	4.557716
3544.000000	4.556041
3542.000000	4.558321
3540.000000	4.560569
3538.000000	4.560782
3536.000000	4.558860
3534.000000	4.556385
3532.000000	4.553709
3530.000000	4.549542
3528.000000	4.545155
3526.000000	4.540731
3524.000000	4.536114
3522.000000	4.532806
3520.000000	4.531154
3518.000000	4.529141
3516.000000	4.526588
3514.000000	4.523767
3512.000000	4.518945
3510.000000	4.512991
3508.000000	4.508157
3506.000000	4.503652
3504.000000	4.496249
3502.000000	4.488634
3500.000000	4.485377
3498.000000	4.481979
3496.000000	4.476488
3494.000000	4.472260
3492.000000	4.467903
3490.000000	4.461953
3488.000000	4.455523
3486.000000	4.449654
3484.000000	4.444298
3482.000000	4.438272
3480.000000	4.433354
3478.000000	4.430962
3476.000000	4.428822
3474.000000	4.425089
3472.000000	4.421307
3470.000000	4.418191
3468.000000	4.415434
3466.000000	4.412885
3464.000000	4.410067
3462.000000	4.407556
3460.000000	4.405103
3458.000000	4.403447
3456.000000	4.402758
3454.000000	4.401386
3452.000000	4.398681
3450.000000	4.394457
3448.000000	4.388928
3446.000000	4.384321
3444.000000	4.381859
3442.000000	4.380303
3440.000000	4.380281
3438.000000	4.381741
3436.000000	4.382262
3434.000000	4.382602
3432.000000	4.385386
3430.000000	4.389572
3428.000000	4.393465
3426.000000	4.396901
3424.000000	4.399536
3422.000000	4.400998
3420.000000	4.403006
3418.000000	4.406690
3416.000000	4.409218
3414.000000	4.410274
3412.000000	4.411191
3410.000000	4.411742
3408.000000	4.412388
3406.000000	4.412826
3404.000000	4.413391
3402.000000	4.414085
3400.000000	4.415277
3398.000000	4.416506
3396.000000	4.417377
3394.000000	4.419245
3392.000000	4.420754
3390.000000	4.422637
3388.000000	4.425405
3386.000000	4.427847
3384.000000	4.429310
3382.000000	4.430163
3380.000000	4.432725
3378.000000	4.434973
3376.000000	4.434899
3374.000000	4.436092
3372.000000	4.438722
3370.000000	4.439456
3368.000000	4.438967
3366.000000	4.439577
3364.000000	4.441397
3362.000000	4.442322
3360.000000	4.443738
3358.000000	4.446596
3356.000000	4.448299
3354.000000	4.448603
3352.000000	4.449898
3350.000000	4.451379
3348.000000	4.452489
3346.000000	4.454222
3344.000000	4.455511
3342.000000	4.456761
3340.000000	4.458542
3338.000000	4.459838
3336.000000	4.461127
3334.000000	4.463277
3332.000000	4.465113
3330.000000	4.465998
3328.000000	4.466144
3326.000000	4.466015
3324.000000	4.466392
3322.000000	4.467964
3320.000000	4.470403
3318.000000	4.472314
3316.000000	4.473786
3314.000000	4.475067
3312.000000	4.475679
3310.000000	4.475563
3308.000000	4.476013
3306.000000	4.477966
3304.000000	4.479887
3302.000000	4.481336
3300.000000	4.483186
3298.000000	4.483893
3296.000000	4.484624
3294.000000	4.486517
3292.000000	4.487932
3290.000000	4.489093
3288.000000	4.489529
3286.000000	4.489685
3284.000000	4.491751
3282.000000	4.494692
3280.000000	4.496454
3278.000000	4.497332
3276.000000	4.498678
3274.000000	4.500671
3272.000000	4.502609
3270.000000	4.504622
3268.000000	4.506584
3266.000000	4.508073
3264.000000	4.509106
3262.000000	4.510314
3260.000000	4.512420
3258.000000	4.515222
3256.000000	4.517878
3254.000000	4.519321
3252.000000	4.520281
3250.000000	4.521840
3248.000000	4.524584
3246.000000	4.527709
3244.000000	4.530627
3242.000000	4.532017
3240.000000	4.532730
3238.000000	4.534839
3236.000000	4.537368
3234.000000	4.540198
3232.000000	4.543168
3230.000000	4.544039
3228.000000	4.544612
3226.000000	4.547021
3224.000000	4.550147
3222.000000	4.552361
3220.000000	4.554180
3218.000000	4.557217
3216.000000	4.560377
3214.000000	4.562657
3212.000000	4.564582
3210.000000	4.566611
3208.000000	4.569756
3206.000000	4.572695
3204.000000	4.575498
3202.000000	4.578823
3200.000000	4.582290
3198.000000	4.586749
3196.000000	4.592110
3194.000000	4.596954
3192.000000	4.600743
3190.000000	4.603127
3188.000000	4.605322
3186.000000	4.609216
3184.000000	4.613882
3182.000000	4.617822
3180.000000	4.621458
3178.000000	4.624827
3176.000000	4.628394
3174.000000	4.632847
3172.000000	4.637350
3170.000000	4.641719
3168.000000	4.645209
3166.000000	4.647334
3164.000000	4.650493
3162.000000	4.654812
3160.000000	4.660169
3158.000000	4.663993
3156.000000	4.666567
3154.000000	4.670140
3152.000000	4.674063
3150.000000	4.677283
3148.000000	4.681075
3146.000000	4.685859
3144.000000	4.689891
3142.000000	4.692260
3140.000000	4.694623
3138.000000	4.698292
3136.000000	4.702674
3134.000000	4.706959
3132.000000	4.710095
3130.000000	4.711799
3128.000000	4.714152
3126.000000	4.717884
3124.000000	4.721589
3122.000000	4.723985
3120.000000	4.726030
3118.000000	4.728189
3116.000000	4.730819
3114.000000	4.734433
3112.000000	4.739155
3110.000000	4.743642
3108.000000	4.747097
3106.000000	4.749417
3104.000000	4.751197
3102.000000	4.753497
3100.000000	4.756173
3098.000000	4.760363
3096.000000	4.765296
3094.000000	4.769498
3092.000000	4.773634
3090.000000	4.778032
3088.000000	4.782636
3086.000000	4.787099
3084.000000	4.790771
3082.000000	4.793639
3080.000000	4.796377
3078.000000	4.799593
3076.000000	4.802844
3074.000000	4.805594
3072.000000	4.807194
3070.000000	4.807779
3068.000000	4.808666
3066.000000	4.810218
3064.000000	4.812024
3062.000000	4.814903
3060.000000	4.818557
3058.000000	4.822224
3056.000000	4.826342
3054.000000	4.830261
3052.000000	4.833845
3050.000000	4.837245
3048.000000	4.841330
3046.000000	4.845029
3044.000000	4.847390
3042.000000	4.849313
3040.000000	4.850848
3038.000000	4.852910
3036.000000	4.855074
3034.000000	4.856734
3032.000000	4.857199
3030.000000	4.856057
3028.000000	4.854263
3026.000000	4.850313
3024.000000	4.843967
3022.000000	4.838494
3020.000000	4.834757
3018.000000	4.833022
3016.000000	4.836863
3014.000000	4.847839
3012.000000	4.862271
3010.000000	4.877262
3008.000000	4.891925
3006.000000	4.903695
3004.000000	4.911565
3002.000000	4.917247
3000.000000	4.921383
2998.000000	4.923707
2996.000000	4.925911
2994.000000	4.928401
2992.000000	4.930411
2990.000000	4.931207
2988.000000	4.931082
2986.000000	4.930252
2984.000000	4.928191
2982.000000	4.924718
2980.000000	4.918814
2978.000000	4.910326
2976.000000	4.899786
2974.000000	4.884962
2972.000000	4.864385
2970.000000	4.838520
2968.000000	4.807792
2966.000000	4.774902
2964.000000	4.747402
2962.000000	4.730881
2960.000000	4.727610
2958.000000	4.736283
2956.000000	4.751812
2954.000000	4.767252
2952.000000	4.779531
2950.000000	4.788411
2948.000000	4.792673
2946.000000	4.790187
2944.000000	4.780337
2942.000000	4.762948
2940.000000	4.739648
2938.000000	4.713338
2936.000000	4.687022
2934.000000	4.662850
2932.000000	4.642249
2930.000000	4.622165
2928.000000	4.601788
2926.000000	4.586478
2924.000000	4.582899
2922.000000	4.595285
2920.000000	4.623728
2918.000000	4.664551
2916.000000	4.710379
2914.000000	4.756081
2912.000000	4.798466
2910.000000	4.832627
2908.000000	4.859321
2906.000000	4.881044
2904.000000	4.899346
2902.000000	4.915343
2900.000000	4.929702
2898.000000	4.944051
2896.000000	4.957510
2894.000000	4.969966
2892.000000	4.982481
2890.000000	4.993609
2888.000000	5.003181
2886.000000	5.012111
2884.000000	5.019111
2882.000000	5.024170
2880.000000	5.026164
2878.000000	5.024623
2876.000000	5.021123
2874.000000	5.015605
2872.000000	5.006271
2870.000000	4.991378
2868.000000	4.969250
2866.000000	4.940631
2864.000000	4.910753
2862.000000	4.885631
2860.000000	4.872958
2858.000000	4.874685
2856.000000	4.887507
2854.000000	4.906676
2852.000000	4.926835
2850.000000	4.949557
2848.000000	4.978822
2846.000000	5.013027
2844.000000	5.045098
2842.000000	5.071637
2840.000000	5.093223
2838.000000	5.110044
2836.000000	5.123482
2834.000000	5.134389
2832.000000	5.144105
2830.000000	5.153338
2828.000000	5.160538
2826.000000	5.165701
2824.000000	5.170553
2822.000000	5.176385
2820.000000	5.183412
2818.000000	5.189419
2816.000000	5.193292
2814.000000	5.196940
2812.000000	5.200468
2810.000000	5.203092
2808.000000	5.206855
2806.000000	5.210584
2804.000000	5.213322
2802.000000	5.215712
2800.000000	5.218970
2798.000000	5.222548
2796.000000	5.225229
2794.000000	5.227560
2792.000000	5.230684
2790.000000	5.233287
2788.000000	5.235884
2786.000000	5.240058
2784.000000	5.245708
2782.000000	5.250791
2780.000000	5.253777
2778.000000	5.256176
2776.000000	5.259722
2774.000000	5.264099
2772.000000	5.268259
2770.000000	5.271777
2768.000000	5.274568
2766.000000	5.277494
2764.000000	5.281113
2762.000000	5.283719
2760.000000	5.285865
2758.000000	5.288505
2756.000000	5.291329
2754.000000	5.293957
2752.000000	5.296106
2750.000000	5.297562
2748.000000	5.298727
2746.000000	5.300933
2744.000000	5.303344
2742.000000	5.305572
2740.000000	5.307302
2738.000000	5.308744
2736.000000	5.309339
2734.000000	5.309864
2732.000000	5.311328
2730.000000	5.313310
2728.000000	5.314923
2726.000000	5.316528
2724.000000	5.317658
2722.000000	5.318144
2720.000000	5.319927
2718.000000	5.320995
2716.000000	5.321393
2714.000000	5.322348
2712.000000	5.323057
2710.000000	5.323558
2708.000000	5.323097
2706.000000	5.322868
2704.000000	5.324674
2702.000000	5.326345
2700.000000	5.326629
2698.000000	5.327310
2696.000000	5.329066
2694.000000	5.330925
2692.000000	5.331938
2690.000000	5.333105
2688.000000	5.334898
2686.000000	5.336113
2684.000000	5.336944
2682.000000	5.338064
2680.000000	5.338585
2678.000000	5.338917
2676.000000	5.340115
2674.000000	5.340555
2672.000000	5.341593
2670.000000	5.342337
2668.000000	5.342249
2666.000000	5.342728
2664.000000	5.343852
2662.000000	5.344504
2660.000000	5.345019
2658.000000	5.345855
2656.000000	5.346159
2654.000000	5.347627
2652.000000	5.350050
2650.000000	5.351034
2648.000000	5.351213
2646.000000	5.352279
2644.000000	5.354058
2642.000000	5.355309
2640.000000	5.356742
2638.000000	5.357534
2636.000000	5.358478
2634.000000	5.360749
2632.000000	5.362756
2630.000000	5.363666
2628.000000	5.364966
2626.000000	5.366675
2624.000000	5.367420
2622.000000	5.367468
2620.000000	5.368175
2618.000000	5.368506
2616.000000	5.370148
2614.000000	5.372491
2612.000000	5.372351
2610.000000	5.371813
2608.000000	5.373139
2606.000000	5.374077
2604.000000	5.374158
2602.000000	5.375051
2600.000000	5.375235
2598.000000	5.374876
2596.000000	5.374883
2594.000000	5.374943
2592.000000	5.374920
2590.000000	5.375880
2588.000000	5.377764
2586.000000	5.379982
2584.000000	5.382953
2582.000000	5.385649
2580.000000	5.388048
2578.000000	5.391074
2576.000000	5.394040
2574.000000	5.396267
2572.000000	5.398745
2570.000000	5.400491
2568.000000	5.401443
2566.000000	5.403024
2564.000000	5.405276
2562.000000	5.407241
2560.000000	5.408599
2558.000000	5.409527
2556.000000	5.410472
2554.000000	5.411706
2552.000000	5.413666
2550.000000	5.414705
2548.000000	5.416143
2546.000000	5.418020
2544.000000	5.418694
2542.000000	5.419757
2540.000000	5.421913
2538.000000	5.424518
2536.000000	5.427142
2534.000000	5.427632
2532.000000	5.428092
2530.000000	5.429138
2528.000000	5.429360
2526.000000	5.429952
2524.000000	5.432026
2522.000000	5.434427
2520.000000	5.436008
2518.000000	5.437680
2516.000000	5.438811
2514.000000	5.439335
2512.000000	5.439632
2510.000000	5.439747
2508.000000	5.441291
2506.000000	5.443331
2504.000000	5.444656
2502.000000	5.445945
2500.000000	5.447267
2498.000000	5.449068
2496.000000	5.451417
2494.000000	5.453393
2492.000000	5.455441
2490.000000	5.457025
2488.000000	5.458499
2486.000000	5.459798
2484.000000	5.461117
2482.000000	5.462389
2480.000000	5.463274
2478.000000	5.464525
2476.000000	5.465858
2474.000000	5.467559
2472.000000	5.468605
2470.000000	5.468882
2468.000000	5.469760
2466.000000	5.470316
2464.000000	5.470223
2462.000000	5.470759
2460.000000	5.471619
2458.000000	5.472540
2456.000000	5.473626
2454.000000	5.474802
2452.000000	5.476321
2450.000000	5.478342
2448.000000	5.479674
2446.000000	5.479716
2444.000000	5.480215
2442.000000	5.481795
2440.000000	5.482376
2438.000000	5.482923
2436.000000	5.483393
2434.000000	5.483251
2432.000000	5.483825
2430.000000	5.485275
2428.000000	5.486278
2426.000000	5.486329
2424.000000	5.487232
2422.000000	5.488599
2420.000000	5.489501
2418.000000	5.490415
2416.000000	5.491872
2414.000000	5.493386
2412.000000	5.493510
2410.000000	5.492634
2408.000000	5.492337
2406.000000	5.492881
2404.000000	5.494619
2402.000000	5.496263
2400.000000	5.498228
2398.000000	5.500348
2396.000000	5.501046
2394.000000	5.500868
2392.000000	5.501319
2390.000000	5.502565
2388.000000	5.503714
2386.000000	5.504432
2384.000000	5.504984
2382.000000	5.502900
2380.000000	5.498663
2378.000000	5.492542
2376.000000	5.484113
2374.000000	5.472736
2372.000000	5.458147
2370.000000	5.441435
2368.000000	5.424872
2366.000000	5.409993
2364.000000	5.399206
2362.000000	5.394816
2360.000000	5.395294
2358.000000	5.402261
2356.000000	5.416945
2354.000000	5.435505
2352.000000	5.457979
2350.000000	5.479971
2348.000000	5.487671
2346.000000	5.475029
2344.000000	5.451766
2342.000000	5.427075
2340.000000	5.407784
2338.000000	5.401880
2336.000000	5.409116
2334.000000	5.420265
2332.000000	5.428826
2330.000000	5.435199
2328.000000	5.442206
2326.000000	5.449359
2324.000000	5.456679
2322.000000	5.465194
2320.000000	5.473339
2318.000000	5.480755
2316.000000	5.487549
2314.000000	5.493566
2312.000000	5.498411
2310.000000	5.502040
2308.000000	5.506583
2306.000000	5.510474
2304.000000	5.513019
2302.000000	5.514391
2300.000000	5.515764
2298.000000	5.516988
2296.000000	5.517750
2294.000000	5.519480
2292.000000	5.520257
2290.000000	5.519659
2288.000000	5.519867
2286.000000	5.521006
2284.000000	5.521789
2282.000000	5.521025
2280.000000	5.520306
2278.000000	5.520817
2276.000000	5.521034
2274.000000	5.520945
2272.000000	5.521207
2270.000000	5.520173
2268.000000	5.518646
2266.000000	5.519750
2264.000000	5.521263
2262.000000	5.520481
2260.000000	5.520368
2258.000000	5.521792
2256.000000	5.523291
2254.000000	5.524690
2252.000000	5.525053
2250.000000	5.524173
2248.000000	5.524632
2246.000000	5.525636
2244.000000	5.526399
2242.000000	5.527446
2240.000000	5.528846
2238.000000	5.530421
2236.000000	5.531552
2234.000000	5.531571
2232.000000	5.534398
2230.000000	5.536774
2228.000000	5.536471
2226.000000	5.537029
2224.000000	5.538939
2222.000000	5.541134
2220.000000	5.542690
2218.000000	5.543230
2216.000000	5.543959
2214.000000	5.545457
2212.000000	5.547077
2210.000000	5.547596
2208.000000	5.547320
2206.000000	5.548331
2204.000000	5.550458
2202.000000	5.551695
2200.000000	5.551725
2198.000000	5.552437
2196.000000	5.553268
2194.000000	5.554273
2192.000000	5.554505
2190.000000	5.553736
2188.000000	5.554785
2186.000000	5.557045
2184.000000	5.557891
2182.000000	5.558008
2180.000000	5.558191
2178.000000	5.558786
2176.000000	5.559241
2174.000000	5.559732
2172.000000	5.559968
2170.000000	5.558796
2168.000000	5.559479
2166.000000	5.563381
2164.000000	5.566070
2162.000000	5.565865
2160.000000	5.564963
2158.000000	5.565112
2156.000000	5.566157
2154.000000	5.567330
2152.000000	5.568889
2150.000000	5.569688
2148.000000	5.569054
2146.000000	5.568650
2144.000000	5.570179
2142.000000	5.572175
2140.000000	5.572982
2138.000000	5.573321
2136.000000	5.572701
2134.000000	5.572336
2132.000000	5.572829
2130.000000	5.574702
2128.000000	5.576388
2126.000000	5.576713
2124.000000	5.577635
2122.000000	5.578269
2120.000000	5.578373
2118.000000	5.579322
2116.000000	5.580313
2114.000000	5.581627
2112.000000	5.582568
2110.000000	5.582904
2108.000000	5.584413
2106.000000	5.585046
2104.000000	5.585332
2102.000000	5.587490
2100.000000	5.588896
2098.000000	5.589186
2096.000000	5.592262
2094.000000	5.594419
2092.000000	5.594454
2090.000000	5.594186
2088.000000	5.595939
2086.000000	5.598877
2084.000000	5.600893
2082.000000	5.601691
2080.000000	5.602557
2078.000000	5.603808
2076.000000	5.605434
2074.000000	5.607452
2072.000000	5.609551
2070.000000	5.610659
2068.000000	5.610487
2066.000000	5.610659
2064.000000	5.611660
2062.000000	5.614821
2060.000000	5.617938
2058.000000	5.619713
2056.000000	5.621148
2054.000000	5.622412
2052.000000	5.624379
2050.000000	5.626460
2048.000000	5.627653
2046.000000	5.629107
2044.000000	5.629088
2042.000000	5.629019
2040.000000	5.630736
2038.000000	5.632691
2036.000000	5.633950
2034.000000	5.635986
2032.000000	5.637523
2030.000000	5.636931
2028.000000	5.636503
2026.000000	5.639591
2024.000000	5.642430
2022.000000	5.643027
2020.000000	5.642933
2018.000000	5.641990
2016.000000	5.641960
2014.000000	5.644847
2012.000000	5.647681
2010.000000	5.649677
2008.000000	5.650760
2006.000000	5.650931
2004.000000	5.651176
2002.000000	5.651676
2000.000000	5.652935
1998.000000	5.653958
1996.000000	5.654668
1994.000000	5.653732
1992.000000	5.649469
1990.000000	5.650399
1988.000000	5.655157
1986.000000	5.656588
1984.000000	5.656710
1982.000000	5.656860
1980.000000	5.656954
1978.000000	5.655841
1976.000000	5.654195
1974.000000	5.653523
1972.000000	5.653416
1970.000000	5.652415
1968.000000	5.648975
1966.000000	5.646271
1964.000000	5.647288
1962.000000	5.646621
1960.000000	5.641571
1958.000000	5.635996
1956.000000	5.638438
1954.000000	5.642601
1952.000000	5.643769
1950.000000	5.641717
1948.000000	5.639392
1946.000000	5.637322
1944.000000	5.631791
1942.000000	5.625063
1940.000000	5.627458
1938.000000	5.632022
1936.000000	5.632525
1934.000000	5.630758
1932.000000	5.628073
1930.000000	5.626010
1928.000000	5.624599
1926.000000	5.622123
1924.000000	5.616348
1922.000000	5.611365
1920.000000	5.607682
1918.000000	5.595963
1916.000000	5.597545
1914.000000	5.606861
1912.000000	5.604665
1910.000000	5.598748
1908.000000	5.595551
1906.000000	5.595339
1904.000000	5.592856
1902.000000	5.590226
1900.000000	5.587951
1898.000000	5.584543
1896.000000	5.579280
1894.000000	5.577425
1892.000000	5.576473
1890.000000	5.568195
1888.000000	5.565038
1886.000000	5.571554
1884.000000	5.572864
1882.000000	5.572008
1880.000000	5.570722
1878.000000	5.569205
1876.000000	5.567930
1874.000000	5.566673
1872.000000	5.561652
1870.000000	5.544184
1868.000000	5.531073
1866.000000	5.542866
1864.000000	5.555826
1862.000000	5.557385
1860.000000	5.553747
1858.000000	5.551631
1856.000000	5.551051
1854.000000	5.550907
1852.000000	5.548965
1850.000000	5.544405
1848.000000	5.536844
1846.000000	5.517184
1844.000000	5.487101
1842.000000	5.498849
1840.000000	5.527113
1838.000000	5.529020
1836.000000	5.523821
1834.000000	5.520388
1832.000000	5.508672
1830.000000	5.486103
1828.000000	5.483559
1826.000000	5.486724
1824.000000	5.482855
1822.000000	5.491797
1820.000000	5.495834
1818.000000	5.491205
1816.000000	5.485702
1814.000000	5.481491
1812.000000	5.472221
1810.000000	5.463615
1808.000000	5.462523
1806.000000	5.462255
1804.000000	5.454399
1802.000000	5.437712
1800.000000	5.424020
1798.000000	5.424858
1796.000000	5.425028
1794.000000	5.400020
1792.000000	5.365757
1790.000000	5.377906
1788.000000	5.401533
1786.000000	5.395372
1784.000000	5.382393
1782.000000	5.377814
1780.000000	5.370032
1778.000000	5.368272
1776.000000	5.360039
1774.000000	5.320211
1772.000000	5.275003
1770.000000	5.289197
1768.000000	5.310376
1766.000000	5.323592
1764.000000	5.327058
1762.000000	5.301183
1760.000000	5.294923
1758.000000	5.297886
1756.000000	5.287164
1754.000000	5.282963
1752.000000	5.247059
1750.000000	5.215208
1748.000000	5.226284
1746.000000	5.237542
1744.000000	5.234541
1742.000000	5.217956
1740.000000	5.193043
1738.000000	5.188298
1736.000000	5.161669
1734.000000	5.082914
1732.000000	5.100659
1730.000000	5.168415
1728.000000	5.190600
1726.000000	5.194616
1724.000000	5.187993
1722.000000	5.180652
1720.000000	5.148304
1718.000000	5.068184
1716.000000	5.043908
1714.000000	5.098781
1712.000000	5.137733
1710.000000	5.145443
1708.000000	5.129446
1706.000000	5.103437
1704.000000	5.088497
1702.000000	5.047213
1700.000000	4.966459
1698.000000	4.975603
1696.000000	4.973919
1694.000000	5.006885
1692.000000	5.087058
1690.000000	5.097181
1688.000000	5.080618
1686.000000	5.007788
1684.000000	4.926179
1682.000000	4.983644
1680.000000	5.059043
1678.000000	5.065175
1676.000000	5.028857
1674.000000	5.008370
1672.000000	5.023001
1670.000000	4.999152
1668.000000	4.997491
1666.000000	5.029236
1664.000000	5.021850
1662.000000	4.998535
1660.000000	5.012231
1658.000000	5.019771
1656.000000	4.975942
1654.000000	4.834473
1652.000000	4.767865
1650.000000	4.884333
1648.000000	4.924227
1646.000000	4.884412
1644.000000	4.912450
1642.000000	4.954458
1640.000000	4.950849
1638.000000	4.913109
1636.000000	4.840429
1634.000000	4.835667
1632.000000	4.893740
1630.000000	4.901330
1628.000000	4.876915
1626.000000	4.855819
1624.000000	4.823208
1622.000000	4.798293
1620.000000	4.792371
1618.000000	4.734842
1616.000000	4.675498
1614.000000	4.696648
1612.000000	4.701642
1610.000000	4.666235
1608.000000	4.642797
1606.000000	4.639556
1604.000000	4.648535
1602.000000	4.659808
1600.000000	4.672663
1598.000000	4.684031
1596.000000	4.692975
1594.000000	4.698602
1592.000000	4.704184
1590.000000	4.706424
1588.000000	4.705146
1586.000000	4.700995
1584.000000	4.695922
1582.000000	4.690907
1580.000000	4.686773
1578.000000	4.647556
1576.000000	4.584769
1574.000000	4.614606
1572.000000	4.660297
1570.000000	4.633084
1568.000000	4.626329
1566.000000	4.639187
1564.000000	4.629898
1562.000000	4.581029
1560.000000	4.455764
1558.000000	4.399987
1556.000000	4.486340
1554.000000	4.549870
1552.000000	4.589675
1550.000000	4.614943
1548.000000	4.627013
1546.000000	4.621800
1544.000000	4.595653
1542.000000	4.551524
1540.000000	4.501215
1538.000000	4.546046
1536.000000	4.647774
1534.000000	4.663876
1532.000000	4.671694
1530.000000	4.701475
1528.000000	4.699104
1526.000000	4.676920
1524.000000	4.657779
1522.000000	4.612226
1520.000000	4.597819
1518.000000	4.631656
1516.000000	4.638005
1514.000000	4.643682
1512.000000	4.636706
1510.000000	4.613091
1508.000000	4.535943
1506.000000	4.460024
1504.000000	4.493023
1502.000000	4.509257
1500.000000	4.403098
1498.000000	4.224561
1496.000000	4.060720
1494.000000	4.015715
1492.000000	4.061908
1490.000000	4.138492
1488.000000	4.241617
1486.000000	4.341606
1484.000000	4.412152
1482.000000	4.447010
1480.000000	4.463449
1478.000000	4.462879
1476.000000	4.439445
1474.000000	4.400927
1472.000000	4.376083
1470.000000	4.402028
1468.000000	4.417119
1466.000000	4.384880
1464.000000	4.354046
1462.000000	4.350481
1460.000000	4.312064
1458.000000	4.205217
1456.000000	4.122661
1454.000000	4.128336
1452.000000	4.122363
1450.000000	4.113861
1448.000000	4.144384
1446.000000	4.200744
1444.000000	4.241016
1442.000000	4.252094
1440.000000	4.247967
1438.000000	4.218333
1436.000000	4.196798
1434.000000	4.232295
1432.000000	4.253768
1430.000000	4.248342
1428.000000	4.250048
1426.000000	4.253980
1424.000000	4.246787
1422.000000	4.236382
1420.000000	4.198453
1418.000000	4.180742
1416.000000	4.206044
1414.000000	4.212957
1412.000000	4.199083
1410.000000	4.174808
1408.000000	4.138850
1406.000000	4.091892
1404.000000	4.058111
1402.000000	4.054187
1400.000000	4.058879
1398.000000	4.074674
1396.000000	4.096031
1394.000000	4.112122
1392.000000	4.139937
1390.000000	4.150810
1388.000000	4.131580
1386.000000	4.114584
1384.000000	4.113497
1382.000000	4.119171
1380.000000	4.125459
1378.000000	4.123827
1376.000000	4.116319
1374.000000	4.106179
1372.000000	4.105014
1370.000000	4.103165
1368.000000	4.096190
1366.000000	4.088763
1364.000000	4.074923
1362.000000	4.061081
1360.000000	4.058424
1358.000000	4.056654
1356.000000	4.048877
1354.000000	4.037033
1352.000000	4.026049
1350.000000	4.015228
1348.000000	4.004018
1346.000000	3.992442
1344.000000	3.979786
1342.000000	3.964600
1340.000000	3.947944
1338.000000	3.938050
1336.000000	3.936245
1334.000000	3.934084
1332.000000	3.927566
1330.000000	3.917858
1328.000000	3.908139
1326.000000	3.896429
1324.000000	3.882452
1322.000000	3.867218
1320.000000	3.850782
1318.000000	3.834930
1316.000000	3.820981
1314.000000	3.804801
1312.000000	3.787304
1310.000000	3.772168
1308.000000	3.757326
1306.000000	3.740955
1304.000000	3.723662
1302.000000	3.704923
1300.000000	3.685520
1298.000000	3.667247
1296.000000	3.648045
1294.000000	3.627606
1292.000000	3.608745
1290.000000	3.588980
1288.000000	3.567510
1286.000000	3.545171
1284.000000	3.522486
1282.000000	3.498490
1280.000000	3.473954
1278.000000	3.447878
1276.000000	3.419321
1274.000000	3.386061
1272.000000	3.345941
1270.000000	3.296172
1268.000000	3.232927
1266.000000	3.153938
1264.000000	3.065050
1262.000000	2.986262
1260.000000	2.941644
1258.000000	2.937994
1256.000000	2.959943
1254.000000	2.985867
1252.000000	2.999941
1250.000000	2.995682
1248.000000	2.978857
1246.000000	2.955310
1244.000000	2.927605
1242.000000	2.899063
1240.000000	2.871335
1238.000000	2.843601
1236.000000	2.815804
1234.000000	2.788061
1232.000000	2.761804
1230.000000	2.736723
1228.000000	2.712066
1226.000000	2.686700
1224.000000	2.660271
1222.000000	2.634102
1220.000000	2.607417
1218.000000	2.578293
1216.000000	2.549277
1214.000000	2.521246
1212.000000	2.494231
1210.000000	2.468964
1208.000000	2.444429
1206.000000	2.421518
1204.000000	2.399789
1202.000000	2.378338
1200.000000	2.356748
1198.000000	2.333140
1196.000000	2.309985
1194.000000	2.288337
1192.000000	2.266804
1190.000000	2.242704
1188.000000	2.216544
1186.000000	2.190466
1184.000000	2.160349
1182.000000	2.121418
1180.000000	2.085912
1178.000000	2.068079
1176.000000	2.056431
1174.000000	2.037651
1172.000000	2.014469
1170.000000	1.990384
1168.000000	1.965107
1166.000000	1.938359
1164.000000	1.912581
1162.000000	1.887362
1160.000000	1.862743
1158.000000	1.837998
1156.000000	1.814048
1154.000000	1.790967
1152.000000	1.768321
1150.000000	1.745266
1148.000000	1.721229
1146.000000	1.696936
1144.000000	1.674029
1142.000000	1.653911
1140.000000	1.636222
1138.000000	1.618294
1136.000000	1.600392
1134.000000	1.580492
1132.000000	1.558181
1130.000000	1.536099
1128.000000	1.514902
1126.000000	1.492130
1124.000000	1.468237
1122.000000	1.444484
1120.000000	1.420662
1118.000000	1.396052
1116.000000	1.371549
1114.000000	1.346782
1112.000000	1.321897
1110.000000	1.297863
1108.000000	1.273851
1106.000000	1.249503
1104.000000	1.227274
1102.000000	1.206602
1100.000000	1.184832
1098.000000	1.162521
1096.000000	1.141441
1094.000000	1.120697
1092.000000	1.101504
1090.000000	1.085211
1088.000000	1.069368
1086.000000	1.052669
1084.000000	1.035531
1082.000000	1.017191
1080.000000	0.999718
1078.000000	0.984621
1076.000000	0.971330
1074.000000	0.961399
1072.000000	0.952871
1070.000000	0.942347
1068.000000	0.930829
1066.000000	0.919567
1064.000000	0.908107
1062.000000	0.896156
1060.000000	0.885252
1058.000000	0.873267
1056.000000	0.856099
1054.000000	0.832454
1052.000000	0.806817
1050.000000	0.789677
1048.000000	0.785974
1046.000000	0.790353
1044.000000	0.793196
1042.000000	0.789500
1040.000000	0.780861
1038.000000	0.770240
1036.000000	0.759067
1034.000000	0.746343
1032.000000	0.734806
1030.000000	0.723615
1028.000000	0.710861
1026.000000	0.697531
1024.000000	0.683622
1022.000000	0.670753
1020.000000	0.658933
1018.000000	0.647784
1016.000000	0.637858
1014.000000	0.629223
1012.000000	0.621822
1010.000000	0.615360
1008.000000	0.610071
1006.000000	0.603690
1004.000000	0.594250
1002.000000	0.584431
1000.000000	0.575536
