PE IR       SUBTECH     SPECTRUM    ASCII       PEDS        4.00        
   -1
TE108B1_043_80K.ASC
20/02/21
17:11:32.00
20/02/21
17:11:32.00
Administrator
Sample 043 By Administrator Date Friday, February 21 2020
1500.000000
#HDR
-1
-1
#GR
cm-1
A
1.0
0.0
4000.000000
-1.000000
2501
8
0.862616
0.811287
#DATA
4000.000000	0.814171
3999.000000	0.814223
3998.000000	0.814279
3997.000000	0.814311
3996.000000	0.814315
3995.000000	0.814306
3994.000000	0.814297
3993.000000	0.814290
3992.000000	0.814282
3991.000000	0.814276
3990.000000	0.814283
3989.000000	0.814309
3988.000000	0.814349
3987.000000	0.814386
3986.000000	0.814403
3985.000000	0.814402
3984.000000	0.814396
3983.000000	0.814402
3982.000000	0.814420
3981.000000	0.814437
3980.000000	0.814437
3979.000000	0.814419
3978.000000	0.814396
3977.000000	0.814383
3976.000000	0.814383
3975.000000	0.814388
3974.000000	0.814390
3973.000000	0.814391
3972.000000	0.814402
3971.000000	0.814424
3970.000000	0.814448
3969.000000	0.814460
3968.000000	0.814459
3967.000000	0.814452
3966.000000	0.814449
3965.000000	0.814453
3964.000000	0.814460
3963.000000	0.814468
3962.000000	0.814476
3961.000000	0.814482
3960.000000	0.814482
3959.000000	0.814473
3958.000000	0.814456
3957.000000	0.814437
3956.000000	0.814421
3955.000000	0.814412
3954.000000	0.814407
3953.000000	0.814405
3952.000000	0.814403
3951.000000	0.814396
3950.000000	0.814380
3949.000000	0.814357
3948.000000	0.814338
3947.000000	0.814333
3946.000000	0.814344
3945.000000	0.814364
3944.000000	0.814386
3943.000000	0.814405
3942.000000	0.814420
3941.000000	0.814428
3940.000000	0.814428
3939.000000	0.814425
3938.000000	0.814423
3937.000000	0.814418
3936.000000	0.814396
3935.000000	0.814345
3934.000000	0.814272
3933.000000	0.814204
3932.000000	0.814174
3931.000000	0.814198
3930.000000	0.814261
3929.000000	0.814329
3928.000000	0.814368
3927.000000	0.814361
3926.000000	0.814313
3925.000000	0.814253
3924.000000	0.814212
3923.000000	0.814209
3922.000000	0.814231
3921.000000	0.814250
3920.000000	0.814243
3919.000000	0.814215
3918.000000	0.814188
3917.000000	0.814185
3916.000000	0.814214
3915.000000	0.814260
3914.000000	0.814299
3913.000000	0.814312
3912.000000	0.814300
3911.000000	0.814280
3910.000000	0.814267
3909.000000	0.814257
3908.000000	0.814226
3907.000000	0.814149
3906.000000	0.814020
3905.000000	0.813864
3904.000000	0.813720
3903.000000	0.813626
3902.000000	0.813597
3901.000000	0.813634
3900.000000	0.813723
3899.000000	0.813847
3898.000000	0.813980
3897.000000	0.814097
3896.000000	0.814177
3895.000000	0.814202
3894.000000	0.814166
3893.000000	0.814084
3892.000000	0.813995
3891.000000	0.813943
3890.000000	0.813944
3889.000000	0.813964
3888.000000	0.813949
3887.000000	0.813876
3886.000000	0.813778
3885.000000	0.813717
3884.000000	0.813727
3883.000000	0.813788
3882.000000	0.813852
3881.000000	0.813892
3880.000000	0.813918
3879.000000	0.813953
3878.000000	0.813998
3877.000000	0.814031
3876.000000	0.814031
3875.000000	0.813994
3874.000000	0.813926
3873.000000	0.813828
3872.000000	0.813702
3871.000000	0.813572
3870.000000	0.813485
3869.000000	0.813478
3868.000000	0.813545
3867.000000	0.813629
3866.000000	0.813673
3865.000000	0.813666
3864.000000	0.813649
3863.000000	0.813673
3862.000000	0.813754
3861.000000	0.813858
3860.000000	0.813929
3859.000000	0.813912
3858.000000	0.813764
3857.000000	0.813460
3856.000000	0.813024
3855.000000	0.812557
3854.000000	0.812214
3853.000000	0.812132
3852.000000	0.812346
3851.000000	0.812765
3850.000000	0.813235
3849.000000	0.813621
3848.000000	0.813856
3847.000000	0.813943
3846.000000	0.813923
3845.000000	0.813843
3844.000000	0.813742
3843.000000	0.813641
3842.000000	0.813536
3841.000000	0.813405
3840.000000	0.813236
3839.000000	0.813057
3838.000000	0.812935
3837.000000	0.812927
3836.000000	0.813036
3835.000000	0.813203
3834.000000	0.813352
3833.000000	0.813444
3832.000000	0.813490
3831.000000	0.813521
3830.000000	0.813557
3829.000000	0.813592
3828.000000	0.813617
3827.000000	0.813624
3826.000000	0.813612
3825.000000	0.813566
3824.000000	0.813466
3823.000000	0.813308
3822.000000	0.813131
3821.000000	0.812997
3820.000000	0.812939
3819.000000	0.812929
3818.000000	0.812906
3817.000000	0.812847
3816.000000	0.812799
3815.000000	0.812845
3814.000000	0.813017
3813.000000	0.813254
3812.000000	0.813443
3811.000000	0.813497
3810.000000	0.813400
3809.000000	0.813205
3808.000000	0.812998
3807.000000	0.812860
3806.000000	0.812825
3805.000000	0.812856
3804.000000	0.812873
3803.000000	0.812816
3802.000000	0.812708
3801.000000	0.812641
3800.000000	0.812691
3799.000000	0.812848
3798.000000	0.813033
3797.000000	0.813172
3796.000000	0.813247
3795.000000	0.813291
3794.000000	0.813332
3793.000000	0.813375
3792.000000	0.813402
3791.000000	0.813405
3790.000000	0.813388
3789.000000	0.813362
3788.000000	0.813333
3787.000000	0.813306
3786.000000	0.813288
3785.000000	0.813283
3784.000000	0.813285
3783.000000	0.813278
3782.000000	0.813247
3781.000000	0.813189
3780.000000	0.813126
3779.000000	0.813090
3778.000000	0.813102
3777.000000	0.813154
3776.000000	0.813216
3775.000000	0.813248
3774.000000	0.813225
3773.000000	0.813143
3772.000000	0.813023
3771.000000	0.812902
3770.000000	0.812818
3769.000000	0.812785
3768.000000	0.812793
3767.000000	0.812815
3766.000000	0.812833
3765.000000	0.812846
3764.000000	0.812858
3763.000000	0.812861
3762.000000	0.812841
3761.000000	0.812791
3760.000000	0.812723
3759.000000	0.812667
3758.000000	0.812641
3757.000000	0.812633
3756.000000	0.812595
3755.000000	0.812472
3754.000000	0.812239
3753.000000	0.811930
3752.000000	0.811626
3751.000000	0.811421
3750.000000	0.811371
3749.000000	0.811454
3748.000000	0.811568
3747.000000	0.811595
3746.000000	0.811488
3745.000000	0.811331
3744.000000	0.811287
3743.000000	0.811462
3742.000000	0.811807
3741.000000	0.812153
3740.000000	0.812345
3739.000000	0.812336
3738.000000	0.812190
3737.000000	0.812010
3736.000000	0.811875
3735.000000	0.811820
3734.000000	0.811844
3733.000000	0.811928
3732.000000	0.812048
3731.000000	0.812184
3730.000000	0.812320
3729.000000	0.812431
3728.000000	0.812494
3727.000000	0.812504
3726.000000	0.812485
3725.000000	0.812470
3724.000000	0.812479
3723.000000	0.812508
3722.000000	0.812548
3721.000000	0.812593
3720.000000	0.812646
3719.000000	0.812702
3718.000000	0.812754
3717.000000	0.812786
3716.000000	0.812771
3715.000000	0.812685
3714.000000	0.812525
3713.000000	0.812333
3712.000000	0.812187
3711.000000	0.812157
3710.000000	0.812258
3709.000000	0.812442
3708.000000	0.812638
3707.000000	0.812794
3706.000000	0.812892
3705.000000	0.812940
3704.000000	0.812950
3703.000000	0.812939
3702.000000	0.812930
3701.000000	0.812945
3700.000000	0.812992
3699.000000	0.813064
3698.000000	0.813137
3697.000000	0.813195
3696.000000	0.813235
3695.000000	0.813261
3694.000000	0.813267
3693.000000	0.813231
3692.000000	0.813126
3691.000000	0.812951
3690.000000	0.812752
3689.000000	0.812617
3688.000000	0.812628
3687.000000	0.812801
3686.000000	0.813076
3685.000000	0.813352
3684.000000	0.813553
3683.000000	0.813661
3682.000000	0.813699
3681.000000	0.813690
3680.000000	0.813628
3679.000000	0.813494
3678.000000	0.813287
3677.000000	0.813056
3676.000000	0.812895
3675.000000	0.812880
3674.000000	0.813012
3673.000000	0.813203
3672.000000	0.813351
3671.000000	0.813431
3670.000000	0.813509
3669.000000	0.813669
3668.000000	0.813927
3667.000000	0.814217
3666.000000	0.814459
3665.000000	0.814616
3664.000000	0.814702
3663.000000	0.814756
3662.000000	0.814804
3661.000000	0.814850
3660.000000	0.814876
3659.000000	0.814859
3658.000000	0.814797
3657.000000	0.814727
3656.000000	0.814704
3655.000000	0.814756
3654.000000	0.814848
3653.000000	0.814900
3652.000000	0.814853
3651.000000	0.814720
3650.000000	0.814583
3649.000000	0.814540
3648.000000	0.814642
3647.000000	0.814872
3646.000000	0.815168
3645.000000	0.815456
3644.000000	0.815684
3643.000000	0.815835
3642.000000	0.815922
3641.000000	0.815974
3640.000000	0.816016
3639.000000	0.816064
3638.000000	0.816122
3637.000000	0.816181
3636.000000	0.816229
3635.000000	0.816257
3634.000000	0.816265
3633.000000	0.816245
3632.000000	0.816176
3631.000000	0.816050
3630.000000	0.815906
3629.000000	0.815831
3628.000000	0.815897
3627.000000	0.816102
3626.000000	0.816372
3625.000000	0.816616
3624.000000	0.816779
3623.000000	0.816854
3622.000000	0.816864
3621.000000	0.816842
3620.000000	0.816828
3619.000000	0.816863
3618.000000	0.816965
3617.000000	0.817111
3616.000000	0.817253
3615.000000	0.817349
3614.000000	0.817395
3613.000000	0.817416
3612.000000	0.817444
3611.000000	0.817496
3610.000000	0.817575
3609.000000	0.817685
3608.000000	0.817833
3607.000000	0.818014
3606.000000	0.818203
3605.000000	0.818374
3604.000000	0.818512
3603.000000	0.818624
3602.000000	0.818722
3601.000000	0.818808
3600.000000	0.818877
3599.000000	0.818933
3598.000000	0.818986
3597.000000	0.819046
3596.000000	0.819116
3595.000000	0.819197
3594.000000	0.819288
3593.000000	0.819383
3592.000000	0.819467
3591.000000	0.819519
3590.000000	0.819531
3589.000000	0.819520
3588.000000	0.819528
3587.000000	0.819594
3586.000000	0.819732
3585.000000	0.819919
3584.000000	0.820111
3583.000000	0.820269
3582.000000	0.820382
3581.000000	0.820461
3580.000000	0.820531
3579.000000	0.820608
3578.000000	0.820695
3577.000000	0.820785
3576.000000	0.820870
3575.000000	0.820949
3574.000000	0.821025
3573.000000	0.821089
3572.000000	0.821133
3571.000000	0.821149
3570.000000	0.821139
3569.000000	0.821114
3568.000000	0.821091
3567.000000	0.821093
3566.000000	0.821147
3565.000000	0.821257
3564.000000	0.821404
3563.000000	0.821553
3562.000000	0.821680
3561.000000	0.821786
3560.000000	0.821877
3559.000000	0.821959
3558.000000	0.822028
3557.000000	0.822083
3556.000000	0.822130
3555.000000	0.822174
3554.000000	0.822222
3553.000000	0.822273
3552.000000	0.822329
3551.000000	0.822386
3550.000000	0.822437
3549.000000	0.822472
3548.000000	0.822492
3547.000000	0.822505
3546.000000	0.822526
3545.000000	0.822567
3544.000000	0.822632
3543.000000	0.822714
3542.000000	0.822798
3541.000000	0.822867
3540.000000	0.822912
3539.000000	0.822936
3538.000000	0.822949
3537.000000	0.822964
3536.000000	0.822987
3535.000000	0.823023
3534.000000	0.823073
3533.000000	0.823133
3532.000000	0.823187
3531.000000	0.823221
3530.000000	0.823234
3529.000000	0.823240
3528.000000	0.823254
3527.000000	0.823277
3526.000000	0.823296
3525.000000	0.823302
3524.000000	0.823304
3523.000000	0.823323
3522.000000	0.823372
3521.000000	0.823443
3520.000000	0.823515
3519.000000	0.823569
3518.000000	0.823605
3517.000000	0.823635
3516.000000	0.823671
3515.000000	0.823721
3514.000000	0.823787
3513.000000	0.823860
3512.000000	0.823930
3511.000000	0.823983
3510.000000	0.824018
3509.000000	0.824054
3508.000000	0.824110
3507.000000	0.824189
3506.000000	0.824273
3505.000000	0.824340
3504.000000	0.824390
3503.000000	0.824443
3502.000000	0.824516
3501.000000	0.824606
3500.000000	0.824699
3499.000000	0.824784
3498.000000	0.824860
3497.000000	0.824929
3496.000000	0.824991
3495.000000	0.825054
3494.000000	0.825132
3493.000000	0.825230
3492.000000	0.825339
3491.000000	0.825442
3490.000000	0.825534
3489.000000	0.825620
3488.000000	0.825709
3487.000000	0.825806
3486.000000	0.825909
3485.000000	0.826008
3484.000000	0.826100
3483.000000	0.826187
3482.000000	0.826277
3481.000000	0.826378
3480.000000	0.826491
3479.000000	0.826617
3478.000000	0.826758
3477.000000	0.826909
3476.000000	0.827055
3475.000000	0.827181
3474.000000	0.827282
3473.000000	0.827372
3472.000000	0.827468
3471.000000	0.827578
3470.000000	0.827699
3469.000000	0.827825
3468.000000	0.827955
3467.000000	0.828094
3466.000000	0.828238
3465.000000	0.828385
3464.000000	0.828531
3463.000000	0.828680
3462.000000	0.828837
3461.000000	0.829002
3460.000000	0.829168
3459.000000	0.829323
3458.000000	0.829458
3457.000000	0.829574
3456.000000	0.829685
3455.000000	0.829816
3454.000000	0.829977
3453.000000	0.830161
3452.000000	0.830342
3451.000000	0.830499
3450.000000	0.830628
3449.000000	0.830746
3448.000000	0.830879
3447.000000	0.831045
3446.000000	0.831238
3445.000000	0.831432
3444.000000	0.831601
3443.000000	0.831743
3442.000000	0.831876
3441.000000	0.832019
3440.000000	0.832166
3439.000000	0.832304
3438.000000	0.832426
3437.000000	0.832540
3436.000000	0.832661
3435.000000	0.832800
3434.000000	0.832954
3433.000000	0.833119
3432.000000	0.833288
3431.000000	0.833455
3430.000000	0.833618
3429.000000	0.833772
3428.000000	0.833916
3427.000000	0.834053
3426.000000	0.834189
3425.000000	0.834327
3424.000000	0.834465
3423.000000	0.834597
3422.000000	0.834717
3421.000000	0.834827
3420.000000	0.834935
3419.000000	0.835049
3418.000000	0.835177
3417.000000	0.835314
3416.000000	0.835449
3415.000000	0.835570
3414.000000	0.835673
3413.000000	0.835763
3412.000000	0.835846
3411.000000	0.835928
3410.000000	0.836017
3409.000000	0.836120
3408.000000	0.836235
3407.000000	0.836351
3406.000000	0.836452
3405.000000	0.836529
3404.000000	0.836585
3403.000000	0.836630
3402.000000	0.836675
3401.000000	0.836730
3400.000000	0.836800
3399.000000	0.836883
3398.000000	0.836973
3397.000000	0.837057
3396.000000	0.837126
3395.000000	0.837180
3394.000000	0.837223
3393.000000	0.837267
3392.000000	0.837326
3391.000000	0.837404
3390.000000	0.837491
3389.000000	0.837565
3388.000000	0.837611
3387.000000	0.837635
3386.000000	0.837659
3385.000000	0.837700
3384.000000	0.837759
3383.000000	0.837822
3382.000000	0.837881
3381.000000	0.837929
3380.000000	0.837962
3379.000000	0.837982
3378.000000	0.837999
3377.000000	0.838030
3376.000000	0.838082
3375.000000	0.838147
3374.000000	0.838205
3373.000000	0.838248
3372.000000	0.838282
3371.000000	0.838323
3370.000000	0.838377
3369.000000	0.838438
3368.000000	0.838498
3367.000000	0.838553
3366.000000	0.838606
3365.000000	0.838653
3364.000000	0.838688
3363.000000	0.838706
3362.000000	0.838714
3361.000000	0.838725
3360.000000	0.838752
3359.000000	0.838797
3358.000000	0.838852
3357.000000	0.838897
3356.000000	0.838919
3355.000000	0.838926
3354.000000	0.838937
3353.000000	0.838963
3352.000000	0.838999
3351.000000	0.839039
3350.000000	0.839081
3349.000000	0.839126
3348.000000	0.839160
3347.000000	0.839172
3346.000000	0.839164
3345.000000	0.839151
3344.000000	0.839144
3343.000000	0.839144
3342.000000	0.839146
3341.000000	0.839157
3340.000000	0.839182
3339.000000	0.839217
3338.000000	0.839254
3337.000000	0.839291
3336.000000	0.839329
3335.000000	0.839366
3334.000000	0.839395
3333.000000	0.839409
3332.000000	0.839411
3331.000000	0.839409
3330.000000	0.839411
3329.000000	0.839423
3328.000000	0.839446
3327.000000	0.839476
3326.000000	0.839501
3325.000000	0.839510
3324.000000	0.839510
3323.000000	0.839517
3322.000000	0.839542
3321.000000	0.839580
3320.000000	0.839621
3319.000000	0.839662
3318.000000	0.839707
3317.000000	0.839752
3316.000000	0.839789
3315.000000	0.839819
3314.000000	0.839858
3313.000000	0.839915
3312.000000	0.839983
3311.000000	0.840040
3310.000000	0.840072
3309.000000	0.840081
3308.000000	0.840080
3307.000000	0.840079
3306.000000	0.840090
3305.000000	0.840114
3304.000000	0.840155
3303.000000	0.840209
3302.000000	0.840269
3301.000000	0.840324
3300.000000	0.840363
3299.000000	0.840386
3298.000000	0.840407
3297.000000	0.840435
3296.000000	0.840470
3295.000000	0.840504
3294.000000	0.840530
3293.000000	0.840549
3292.000000	0.840562
3291.000000	0.840573
3290.000000	0.840594
3289.000000	0.840636
3288.000000	0.840697
3287.000000	0.840766
3286.000000	0.840830
3285.000000	0.840880
3284.000000	0.840917
3283.000000	0.840942
3282.000000	0.840958
3281.000000	0.840974
3280.000000	0.841001
3279.000000	0.841045
3278.000000	0.841099
3277.000000	0.841149
3276.000000	0.841183
3275.000000	0.841204
3274.000000	0.841223
3273.000000	0.841249
3272.000000	0.841279
3271.000000	0.841313
3270.000000	0.841352
3269.000000	0.841401
3268.000000	0.841460
3267.000000	0.841520
3266.000000	0.841573
3265.000000	0.841613
3264.000000	0.841637
3263.000000	0.841652
3262.000000	0.841666
3261.000000	0.841687
3260.000000	0.841718
3259.000000	0.841756
3258.000000	0.841802
3257.000000	0.841852
3256.000000	0.841904
3255.000000	0.841955
3254.000000	0.842010
3253.000000	0.842066
3252.000000	0.842115
3251.000000	0.842151
3250.000000	0.842175
3249.000000	0.842203
3248.000000	0.842243
3247.000000	0.842292
3246.000000	0.842344
3245.000000	0.842396
3244.000000	0.842449
3243.000000	0.842504
3242.000000	0.842560
3241.000000	0.842614
3240.000000	0.842666
3239.000000	0.842719
3238.000000	0.842771
3237.000000	0.842822
3236.000000	0.842866
3235.000000	0.842900
3234.000000	0.842929
3233.000000	0.842962
3232.000000	0.843006
3231.000000	0.843064
3230.000000	0.843130
3229.000000	0.843196
3228.000000	0.843252
3227.000000	0.843298
3226.000000	0.843343
3225.000000	0.843395
3224.000000	0.843453
3223.000000	0.843509
3222.000000	0.843553
3221.000000	0.843587
3220.000000	0.843617
3219.000000	0.843651
3218.000000	0.843691
3217.000000	0.843733
3216.000000	0.843770
3215.000000	0.843795
3214.000000	0.843815
3213.000000	0.843842
3212.000000	0.843880
3211.000000	0.843924
3210.000000	0.843962
3209.000000	0.843987
3208.000000	0.844001
3207.000000	0.844010
3206.000000	0.844022
3205.000000	0.844038
3204.000000	0.844055
3203.000000	0.844068
3202.000000	0.844079
3201.000000	0.844096
3200.000000	0.844123
3199.000000	0.844156
3198.000000	0.844182
3197.000000	0.844199
3196.000000	0.844212
3195.000000	0.844228
3194.000000	0.844253
3193.000000	0.844284
3192.000000	0.844314
3191.000000	0.844332
3190.000000	0.844338
3189.000000	0.844340
3188.000000	0.844352
3187.000000	0.844377
3186.000000	0.844404
3185.000000	0.844423
3184.000000	0.844434
3183.000000	0.844445
3182.000000	0.844457
3181.000000	0.844461
3180.000000	0.844455
3179.000000	0.844446
3178.000000	0.844440
3177.000000	0.844443
3176.000000	0.844458
3175.000000	0.844490
3174.000000	0.844539
3173.000000	0.844590
3172.000000	0.844627
3171.000000	0.844643
3170.000000	0.844642
3169.000000	0.844636
3168.000000	0.844636
3167.000000	0.844655
3166.000000	0.844695
3165.000000	0.844750
3164.000000	0.844801
3163.000000	0.844834
3162.000000	0.844848
3161.000000	0.844853
3160.000000	0.844862
3159.000000	0.844877
3158.000000	0.844895
3157.000000	0.844911
3156.000000	0.844926
3155.000000	0.844942
3154.000000	0.844963
3153.000000	0.844990
3152.000000	0.845025
3151.000000	0.845069
3150.000000	0.845117
3149.000000	0.845159
3148.000000	0.845184
3147.000000	0.845196
3146.000000	0.845208
3145.000000	0.845227
3144.000000	0.845248
3143.000000	0.845265
3142.000000	0.845279
3141.000000	0.845294
3140.000000	0.845311
3139.000000	0.845326
3138.000000	0.845340
3137.000000	0.845360
3136.000000	0.845389
3135.000000	0.845425
3134.000000	0.845462
3133.000000	0.845498
3132.000000	0.845533
3131.000000	0.845568
3130.000000	0.845602
3129.000000	0.845639
3128.000000	0.845688
3127.000000	0.845751
3126.000000	0.845816
3125.000000	0.845863
3124.000000	0.845880
3123.000000	0.845876
3122.000000	0.845875
3121.000000	0.845897
3120.000000	0.845942
3119.000000	0.845994
3118.000000	0.846038
3117.000000	0.846068
3116.000000	0.846089
3115.000000	0.846110
3114.000000	0.846137
3113.000000	0.846171
3112.000000	0.846212
3111.000000	0.846256
3110.000000	0.846301
3109.000000	0.846344
3108.000000	0.846385
3107.000000	0.846420
3106.000000	0.846444
3105.000000	0.846453
3104.000000	0.846451
3103.000000	0.846450
3102.000000	0.846462
3101.000000	0.846491
3100.000000	0.846528
3099.000000	0.846562
3098.000000	0.846589
3097.000000	0.846610
3096.000000	0.846634
3095.000000	0.846666
3094.000000	0.846704
3093.000000	0.846740
3092.000000	0.846766
3091.000000	0.846777
3090.000000	0.846775
3089.000000	0.846766
3088.000000	0.846755
3087.000000	0.846751
3086.000000	0.846760
3085.000000	0.846781
3084.000000	0.846805
3083.000000	0.846829
3082.000000	0.846852
3081.000000	0.846873
3080.000000	0.846891
3079.000000	0.846905
3078.000000	0.846915
3077.000000	0.846923
3076.000000	0.846929
3075.000000	0.846934
3074.000000	0.846945
3073.000000	0.846968
3072.000000	0.846999
3071.000000	0.847026
3070.000000	0.847037
3069.000000	0.847029
3068.000000	0.847012
3067.000000	0.846997
3066.000000	0.846989
3065.000000	0.846981
3064.000000	0.846972
3063.000000	0.846970
3062.000000	0.846987
3061.000000	0.847023
3060.000000	0.847060
3059.000000	0.847078
3058.000000	0.847074
3057.000000	0.847061
3056.000000	0.847052
3055.000000	0.847052
3054.000000	0.847057
3053.000000	0.847063
3052.000000	0.847074
3051.000000	0.847090
3050.000000	0.847107
3049.000000	0.847114
3048.000000	0.847104
3047.000000	0.847078
3046.000000	0.847049
3045.000000	0.847024
3044.000000	0.847006
3043.000000	0.846994
3042.000000	0.846990
3041.000000	0.846996
3040.000000	0.847016
3039.000000	0.847050
3038.000000	0.847090
3037.000000	0.847119
3036.000000	0.847125
3035.000000	0.847112
3034.000000	0.847097
3033.000000	0.847091
3032.000000	0.847092
3031.000000	0.847092
3030.000000	0.847092
3029.000000	0.847099
3028.000000	0.847112
3027.000000	0.847127
3026.000000	0.847138
3025.000000	0.847145
3024.000000	0.847152
3023.000000	0.847159
3022.000000	0.847164
3021.000000	0.847166
3020.000000	0.847161
3019.000000	0.847146
3018.000000	0.847122
3017.000000	0.847094
3016.000000	0.847061
3015.000000	0.847021
3014.000000	0.846978
3013.000000	0.846939
3012.000000	0.846915
3011.000000	0.846909
3010.000000	0.846920
3009.000000	0.846942
3008.000000	0.846970
3007.000000	0.847002
3006.000000	0.847044
3005.000000	0.847098
3004.000000	0.847154
3003.000000	0.847186
3002.000000	0.847176
3001.000000	0.847127
3000.000000	0.847060
2999.000000	0.847004
2998.000000	0.846969
2997.000000	0.846952
2996.000000	0.846945
2995.000000	0.846943
2994.000000	0.846938
2993.000000	0.846924
2992.000000	0.846903
2991.000000	0.846885
2990.000000	0.846879
2989.000000	0.846884
2988.000000	0.846890
2987.000000	0.846890
2986.000000	0.846884
2985.000000	0.846882
2984.000000	0.846888
2983.000000	0.846900
2982.000000	0.846911
2981.000000	0.846915
2980.000000	0.846915
2979.000000	0.846922
2978.000000	0.846942
2977.000000	0.846971
2976.000000	0.846994
2975.000000	0.847000
2974.000000	0.846994
2973.000000	0.846988
2972.000000	0.846995
2971.000000	0.847015
2970.000000	0.847047
2969.000000	0.847086
2968.000000	0.847124
2967.000000	0.847147
2966.000000	0.847145
2965.000000	0.847118
2964.000000	0.847078
2963.000000	0.847039
2962.000000	0.847005
2961.000000	0.846970
2960.000000	0.846928
2959.000000	0.846883
2958.000000	0.846842
2957.000000	0.846804
2956.000000	0.846767
2955.000000	0.846730
2954.000000	0.846697
2953.000000	0.846674
2952.000000	0.846663
2951.000000	0.846660
2950.000000	0.846661
2949.000000	0.846662
2948.000000	0.846661
2947.000000	0.846657
2946.000000	0.846657
2945.000000	0.846661
2944.000000	0.846669
2943.000000	0.846678
2942.000000	0.846687
2941.000000	0.846694
2940.000000	0.846696
2939.000000	0.846692
2938.000000	0.846684
2937.000000	0.846670
2936.000000	0.846651
2935.000000	0.846634
2934.000000	0.846627
2933.000000	0.846631
2932.000000	0.846634
2931.000000	0.846625
2930.000000	0.846608
2929.000000	0.846594
2928.000000	0.846589
2927.000000	0.846581
2926.000000	0.846552
2925.000000	0.846497
2924.000000	0.846423
2923.000000	0.846350
2922.000000	0.846293
2921.000000	0.846254
2920.000000	0.846228
2919.000000	0.846214
2918.000000	0.846212
2917.000000	0.846218
2916.000000	0.846213
2915.000000	0.846187
2914.000000	0.846156
2913.000000	0.846144
2912.000000	0.846160
2911.000000	0.846190
2910.000000	0.846211
2909.000000	0.846220
2908.000000	0.846225
2907.000000	0.846229
2906.000000	0.846225
2905.000000	0.846206
2904.000000	0.846176
2903.000000	0.846150
2902.000000	0.846142
2901.000000	0.846153
2900.000000	0.846169
2899.000000	0.846172
2898.000000	0.846157
2897.000000	0.846130
2896.000000	0.846099
2895.000000	0.846070
2894.000000	0.846046
2893.000000	0.846030
2892.000000	0.846029
2891.000000	0.846041
2890.000000	0.846055
2889.000000	0.846059
2888.000000	0.846048
2887.000000	0.846030
2886.000000	0.846014
2885.000000	0.846004
2884.000000	0.845999
2883.000000	0.845995
2882.000000	0.845988
2881.000000	0.845972
2880.000000	0.845950
2879.000000	0.845928
2878.000000	0.845915
2877.000000	0.845912
2876.000000	0.845906
2875.000000	0.845887
2874.000000	0.845861
2873.000000	0.845838
2872.000000	0.845830
2871.000000	0.845837
2870.000000	0.845854
2869.000000	0.845874
2868.000000	0.845891
2867.000000	0.845900
2866.000000	0.845899
2865.000000	0.845884
2864.000000	0.845849
2863.000000	0.845792
2862.000000	0.845726
2861.000000	0.845664
2860.000000	0.845612
2859.000000	0.845563
2858.000000	0.845516
2857.000000	0.845478
2856.000000	0.845462
2855.000000	0.845464
2854.000000	0.845468
2853.000000	0.845464
2852.000000	0.845455
2851.000000	0.845451
2850.000000	0.845457
2849.000000	0.845462
2848.000000	0.845456
2847.000000	0.845439
2846.000000	0.845422
2845.000000	0.845417
2844.000000	0.845427
2843.000000	0.845443
2842.000000	0.845458
2841.000000	0.845467
2840.000000	0.845472
2839.000000	0.845479
2838.000000	0.845492
2837.000000	0.845514
2836.000000	0.845538
2835.000000	0.845558
2834.000000	0.845573
2833.000000	0.845584
2832.000000	0.845596
2831.000000	0.845610
2830.000000	0.845621
2829.000000	0.845626
2828.000000	0.845624
2827.000000	0.845621
2826.000000	0.845623
2825.000000	0.845629
2824.000000	0.845627
2823.000000	0.845610
2822.000000	0.845581
2821.000000	0.845551
2820.000000	0.845531
2819.000000	0.845524
2818.000000	0.845530
2817.000000	0.845548
2816.000000	0.845571
2815.000000	0.845588
2814.000000	0.845592
2813.000000	0.845585
2812.000000	0.845570
2811.000000	0.845548
2810.000000	0.845518
2809.000000	0.845489
2808.000000	0.845475
2807.000000	0.845487
2806.000000	0.845514
2805.000000	0.845536
2804.000000	0.845538
2803.000000	0.845524
2802.000000	0.845505
2801.000000	0.845490
2800.000000	0.845485
2799.000000	0.845493
2798.000000	0.845511
2797.000000	0.845531
2796.000000	0.845542
2795.000000	0.845539
2794.000000	0.845530
2793.000000	0.845524
2792.000000	0.845521
2791.000000	0.845520
2790.000000	0.845520
2789.000000	0.845526
2788.000000	0.845543
2787.000000	0.845567
2786.000000	0.845593
2785.000000	0.845611
2784.000000	0.845619
2783.000000	0.845624
2782.000000	0.845630
2781.000000	0.845638
2780.000000	0.845645
2779.000000	0.845649
2778.000000	0.845654
2777.000000	0.845662
2776.000000	0.845676
2775.000000	0.845692
2774.000000	0.845707
2773.000000	0.845713
2772.000000	0.845705
2771.000000	0.845689
2770.000000	0.845680
2769.000000	0.845685
2768.000000	0.845702
2767.000000	0.845718
2766.000000	0.845731
2765.000000	0.845742
2764.000000	0.845752
2763.000000	0.845756
2762.000000	0.845751
2761.000000	0.845745
2760.000000	0.845747
2759.000000	0.845763
2758.000000	0.845785
2757.000000	0.845800
2756.000000	0.845805
2755.000000	0.845810
2754.000000	0.845826
2753.000000	0.845855
2752.000000	0.845884
2751.000000	0.845904
2750.000000	0.845912
2749.000000	0.845915
2748.000000	0.845918
2747.000000	0.845924
2746.000000	0.845930
2745.000000	0.845931
2744.000000	0.845929
2743.000000	0.845934
2742.000000	0.845954
2741.000000	0.845984
2740.000000	0.846008
2739.000000	0.846019
2738.000000	0.846027
2737.000000	0.846046
2736.000000	0.846077
2735.000000	0.846107
2734.000000	0.846125
2733.000000	0.846130
2732.000000	0.846128
2731.000000	0.846124
2730.000000	0.846122
2729.000000	0.846122
2728.000000	0.846125
2727.000000	0.846136
2726.000000	0.846159
2725.000000	0.846190
2724.000000	0.846220
2723.000000	0.846240
2722.000000	0.846252
2721.000000	0.846263
2720.000000	0.846278
2719.000000	0.846302
2718.000000	0.846336
2717.000000	0.846372
2716.000000	0.846395
2715.000000	0.846399
2714.000000	0.846391
2713.000000	0.846384
2712.000000	0.846386
2711.000000	0.846399
2710.000000	0.846423
2709.000000	0.846452
2708.000000	0.846476
2707.000000	0.846491
2706.000000	0.846508
2705.000000	0.846537
2704.000000	0.846571
2703.000000	0.846595
2702.000000	0.846602
2701.000000	0.846599
2700.000000	0.846596
2699.000000	0.846598
2698.000000	0.846611
2697.000000	0.846637
2696.000000	0.846673
2695.000000	0.846709
2694.000000	0.846739
2693.000000	0.846763
2692.000000	0.846783
2691.000000	0.846803
2690.000000	0.846822
2689.000000	0.846845
2688.000000	0.846866
2687.000000	0.846879
2686.000000	0.846886
2685.000000	0.846897
2684.000000	0.846917
2683.000000	0.846940
2682.000000	0.846957
2681.000000	0.846970
2680.000000	0.846988
2679.000000	0.847010
2678.000000	0.847031
2677.000000	0.847046
2676.000000	0.847059
2675.000000	0.847077
2674.000000	0.847095
2673.000000	0.847109
2672.000000	0.847119
2671.000000	0.847133
2670.000000	0.847153
2669.000000	0.847177
2668.000000	0.847195
2667.000000	0.847205
2666.000000	0.847213
2665.000000	0.847229
2664.000000	0.847252
2663.000000	0.847280
2662.000000	0.847309
2661.000000	0.847336
2660.000000	0.847361
2659.000000	0.847388
2658.000000	0.847424
2657.000000	0.847471
2656.000000	0.847526
2655.000000	0.847576
2654.000000	0.847610
2653.000000	0.847627
2652.000000	0.847635
2651.000000	0.847648
2650.000000	0.847674
2649.000000	0.847712
2648.000000	0.847748
2647.000000	0.847772
2646.000000	0.847781
2645.000000	0.847781
2644.000000	0.847786
2643.000000	0.847807
2642.000000	0.847846
2641.000000	0.847889
2640.000000	0.847916
2639.000000	0.847916
2638.000000	0.847905
2637.000000	0.847905
2636.000000	0.847925
2635.000000	0.847959
2634.000000	0.847998
2633.000000	0.848034
2632.000000	0.848060
2631.000000	0.848076
2630.000000	0.848088
2629.000000	0.848109
2628.000000	0.848138
2627.000000	0.848163
2626.000000	0.848182
2625.000000	0.848199
2624.000000	0.848217
2623.000000	0.848235
2622.000000	0.848251
2621.000000	0.848272
2620.000000	0.848303
2619.000000	0.848336
2618.000000	0.848360
2617.000000	0.848376
2616.000000	0.848389
2615.000000	0.848406
2614.000000	0.848428
2613.000000	0.848455
2612.000000	0.848486
2611.000000	0.848515
2610.000000	0.848535
2609.000000	0.848546
2608.000000	0.848553
2607.000000	0.848563
2606.000000	0.848577
2605.000000	0.848594
2604.000000	0.848608
2603.000000	0.848615
2602.000000	0.848620
2601.000000	0.848633
2600.000000	0.848661
2599.000000	0.848701
2598.000000	0.848743
2597.000000	0.848779
2596.000000	0.848806
2595.000000	0.848823
2594.000000	0.848834
2593.000000	0.848847
2592.000000	0.848868
2591.000000	0.848895
2590.000000	0.848917
2589.000000	0.848931
2588.000000	0.848940
2587.000000	0.848952
2586.000000	0.848967
2585.000000	0.848981
2584.000000	0.848994
2583.000000	0.849007
2582.000000	0.849023
2581.000000	0.849039
2580.000000	0.849054
2579.000000	0.849071
2578.000000	0.849094
2577.000000	0.849122
2576.000000	0.849149
2575.000000	0.849170
2574.000000	0.849190
2573.000000	0.849215
2572.000000	0.849241
2571.000000	0.849260
2570.000000	0.849273
2569.000000	0.849293
2568.000000	0.849326
2567.000000	0.849365
2566.000000	0.849395
2565.000000	0.849408
2564.000000	0.849413
2563.000000	0.849424
2562.000000	0.849441
2561.000000	0.849462
2560.000000	0.849482
2559.000000	0.849502
2558.000000	0.849524
2557.000000	0.849545
2556.000000	0.849561
2555.000000	0.849576
2554.000000	0.849595
2553.000000	0.849624
2552.000000	0.849660
2551.000000	0.849693
2550.000000	0.849715
2549.000000	0.849721
2548.000000	0.849715
2547.000000	0.849710
2546.000000	0.849717
2545.000000	0.849740
2544.000000	0.849773
2543.000000	0.849803
2542.000000	0.849824
2541.000000	0.849838
2540.000000	0.849853
2539.000000	0.849873
2538.000000	0.849903
2537.000000	0.849938
2536.000000	0.849966
2535.000000	0.849982
2534.000000	0.849989
2533.000000	0.849996
2532.000000	0.850008
2531.000000	0.850021
2530.000000	0.850034
2529.000000	0.850046
2528.000000	0.850059
2527.000000	0.850076
2526.000000	0.850095
2525.000000	0.850115
2524.000000	0.850133
2523.000000	0.850148
2522.000000	0.850159
2521.000000	0.850170
2520.000000	0.850181
2519.000000	0.850192
2518.000000	0.850208
2517.000000	0.850230
2516.000000	0.850251
2515.000000	0.850265
2514.000000	0.850273
2513.000000	0.850287
2512.000000	0.850313
2511.000000	0.850349
2510.000000	0.850388
2509.000000	0.850424
2508.000000	0.850451
2507.000000	0.850465
2506.000000	0.850473
2505.000000	0.850483
2504.000000	0.850500
2503.000000	0.850521
2502.000000	0.850536
2501.000000	0.850545
2500.000000	0.850549
2499.000000	0.850551
2498.000000	0.850554
2497.000000	0.850568
2496.000000	0.850595
2495.000000	0.850630
2494.000000	0.850660
2493.000000	0.850677
2492.000000	0.850684
2491.000000	0.850690
2490.000000	0.850701
2489.000000	0.850716
2488.000000	0.850733
2487.000000	0.850748
2486.000000	0.850759
2485.000000	0.850769
2484.000000	0.850782
2483.000000	0.850801
2482.000000	0.850829
2481.000000	0.850860
2480.000000	0.850887
2479.000000	0.850903
2478.000000	0.850912
2477.000000	0.850920
2476.000000	0.850933
2475.000000	0.850945
2474.000000	0.850955
2473.000000	0.850963
2472.000000	0.850974
2471.000000	0.850989
2470.000000	0.851010
2469.000000	0.851040
2468.000000	0.851075
2467.000000	0.851104
2466.000000	0.851122
2465.000000	0.851135
2464.000000	0.851156
2463.000000	0.851190
2462.000000	0.851228
2461.000000	0.851256
2460.000000	0.851267
2459.000000	0.851269
2458.000000	0.851275
2457.000000	0.851296
2456.000000	0.851324
2455.000000	0.851347
2454.000000	0.851358
2453.000000	0.851368
2452.000000	0.851390
2451.000000	0.851427
2450.000000	0.851473
2449.000000	0.851516
2448.000000	0.851553
2447.000000	0.851584
2446.000000	0.851609
2445.000000	0.851632
2444.000000	0.851657
2443.000000	0.851680
2442.000000	0.851696
2441.000000	0.851704
2440.000000	0.851714
2439.000000	0.851746
2438.000000	0.851801
2437.000000	0.851865
2436.000000	0.851917
2435.000000	0.851951
2434.000000	0.851976
2433.000000	0.852009
2432.000000	0.852055
2431.000000	0.852117
2430.000000	0.852195
2429.000000	0.852290
2428.000000	0.852396
2427.000000	0.852501
2426.000000	0.852596
2425.000000	0.852681
2424.000000	0.852762
2423.000000	0.852845
2422.000000	0.852927
2421.000000	0.853003
2420.000000	0.853070
2419.000000	0.853127
2418.000000	0.853178
2417.000000	0.853222
2416.000000	0.853254
2415.000000	0.853268
2414.000000	0.853265
2413.000000	0.853250
2412.000000	0.853228
2411.000000	0.853194
2410.000000	0.853142
2409.000000	0.853076
2408.000000	0.853009
2407.000000	0.852952
2406.000000	0.852910
2405.000000	0.852876
2404.000000	0.852838
2403.000000	0.852794
2402.000000	0.852749
2401.000000	0.852712
2400.000000	0.852687
2399.000000	0.852669
2398.000000	0.852656
2397.000000	0.852648
2396.000000	0.852646
2395.000000	0.852645
2394.000000	0.852642
2393.000000	0.852636
2392.000000	0.852628
2391.000000	0.852618
2390.000000	0.852604
2389.000000	0.852587
2388.000000	0.852574
2387.000000	0.852569
2386.000000	0.852571
2385.000000	0.852567
2384.000000	0.852544
2383.000000	0.852493
2382.000000	0.852414
2381.000000	0.852319
2380.000000	0.852221
2379.000000	0.852126
2378.000000	0.852023
2377.000000	0.851891
2376.000000	0.851712
2375.000000	0.851489
2374.000000	0.851239
2373.000000	0.850975
2372.000000	0.850703
2371.000000	0.850421
2370.000000	0.850133
2369.000000	0.849848
2368.000000	0.849570
2367.000000	0.849311
2366.000000	0.849082
2365.000000	0.848900
2364.000000	0.848775
2363.000000	0.848702
2362.000000	0.848674
2361.000000	0.848693
2360.000000	0.848766
2359.000000	0.848897
2358.000000	0.849089
2357.000000	0.849340
2356.000000	0.849649
2355.000000	0.850013
2354.000000	0.850420
2353.000000	0.850853
2352.000000	0.851287
2351.000000	0.851684
2350.000000	0.851981
2349.000000	0.852115
2348.000000	0.852059
2347.000000	0.851842
2346.000000	0.851542
2345.000000	0.851234
2344.000000	0.850972
2343.000000	0.850774
2342.000000	0.850635
2341.000000	0.850533
2340.000000	0.850447
2339.000000	0.850370
2338.000000	0.850316
2337.000000	0.850299
2336.000000	0.850315
2335.000000	0.850348
2334.000000	0.850385
2333.000000	0.850436
2332.000000	0.850517
2331.000000	0.850634
2330.000000	0.850777
2329.000000	0.850923
2328.000000	0.851057
2327.000000	0.851179
2326.000000	0.851302
2325.000000	0.851440
2324.000000	0.851592
2323.000000	0.851752
2322.000000	0.851913
2321.000000	0.852074
2320.000000	0.852236
2319.000000	0.852398
2318.000000	0.852553
2317.000000	0.852695
2316.000000	0.852818
2315.000000	0.852923
2314.000000	0.853011
2313.000000	0.853087
2312.000000	0.853158
2311.000000	0.853236
2310.000000	0.853323
2309.000000	0.853413
2308.000000	0.853497
2307.000000	0.853572
2306.000000	0.853642
2305.000000	0.853707
2304.000000	0.853761
2303.000000	0.853799
2302.000000	0.853823
2301.000000	0.853843
2300.000000	0.853871
2299.000000	0.853915
2298.000000	0.853974
2297.000000	0.854035
2296.000000	0.854077
2295.000000	0.854093
2294.000000	0.854099
2293.000000	0.854113
2292.000000	0.854143
2291.000000	0.854179
2290.000000	0.854210
2289.000000	0.854230
2288.000000	0.854238
2287.000000	0.854242
2286.000000	0.854250
2285.000000	0.854269
2284.000000	0.854295
2283.000000	0.854327
2282.000000	0.854366
2281.000000	0.854411
2280.000000	0.854454
2279.000000	0.854480
2278.000000	0.854488
2277.000000	0.854493
2276.000000	0.854505
2275.000000	0.854521
2274.000000	0.854534
2273.000000	0.854547
2272.000000	0.854566
2271.000000	0.854595
2270.000000	0.854625
2269.000000	0.854645
2268.000000	0.854655
2267.000000	0.854666
2266.000000	0.854689
2265.000000	0.854722
2264.000000	0.854751
2263.000000	0.854761
2262.000000	0.854755
2261.000000	0.854748
2260.000000	0.854755
2259.000000	0.854773
2258.000000	0.854789
2257.000000	0.854794
2256.000000	0.854793
2255.000000	0.854807
2254.000000	0.854846
2253.000000	0.854899
2252.000000	0.854945
2251.000000	0.854971
2250.000000	0.854986
2249.000000	0.855006
2248.000000	0.855026
2247.000000	0.855030
2246.000000	0.855011
2245.000000	0.854990
2244.000000	0.854993
2243.000000	0.855022
2242.000000	0.855057
2241.000000	0.855075
2240.000000	0.855071
2239.000000	0.855060
2238.000000	0.855054
2237.000000	0.855059
2236.000000	0.855070
2235.000000	0.855083
2234.000000	0.855097
2233.000000	0.855113
2232.000000	0.855127
2231.000000	0.855139
2230.000000	0.855148
2229.000000	0.855153
2228.000000	0.855157
2227.000000	0.855162
2226.000000	0.855172
2225.000000	0.855188
2224.000000	0.855208
2223.000000	0.855230
2222.000000	0.855247
2221.000000	0.855253
2220.000000	0.855246
2219.000000	0.855237
2218.000000	0.855238
2217.000000	0.855257
2216.000000	0.855285
2215.000000	0.855308
2214.000000	0.855318
2213.000000	0.855319
2212.000000	0.855321
2211.000000	0.855330
2210.000000	0.855343
2209.000000	0.855356
2208.000000	0.855359
2207.000000	0.855347
2206.000000	0.855327
2205.000000	0.855310
2204.000000	0.855302
2203.000000	0.855301
2202.000000	0.855303
2201.000000	0.855303
2200.000000	0.855299
2199.000000	0.855302
2198.000000	0.855318
2197.000000	0.855347
2196.000000	0.855377
2195.000000	0.855394
2194.000000	0.855398
2193.000000	0.855395
2192.000000	0.855386
2191.000000	0.855369
2190.000000	0.855350
2189.000000	0.855346
2188.000000	0.855365
2187.000000	0.855394
2186.000000	0.855414
2185.000000	0.855416
2184.000000	0.855408
2183.000000	0.855398
2182.000000	0.855394
2181.000000	0.855396
2180.000000	0.855404
2179.000000	0.855417
2178.000000	0.855429
2177.000000	0.855435
2176.000000	0.855434
2175.000000	0.855426
2174.000000	0.855415
2173.000000	0.855406
2172.000000	0.855403
2171.000000	0.855409
2170.000000	0.855416
2169.000000	0.855419
2168.000000	0.855413
2167.000000	0.855400
2166.000000	0.855387
2165.000000	0.855377
2164.000000	0.855369
2163.000000	0.855365
2162.000000	0.855363
2161.000000	0.855361
2160.000000	0.855352
2159.000000	0.855339
2158.000000	0.855332
2157.000000	0.855334
2156.000000	0.855336
2155.000000	0.855325
2154.000000	0.855303
2153.000000	0.855281
2152.000000	0.855270
2151.000000	0.855269
2150.000000	0.855268
2149.000000	0.855265
2148.000000	0.855260
2147.000000	0.855252
2146.000000	0.855239
2145.000000	0.855224
2144.000000	0.855216
2143.000000	0.855214
2142.000000	0.855215
2141.000000	0.855210
2140.000000	0.855202
2139.000000	0.855195
2138.000000	0.855193
2137.000000	0.855193
2136.000000	0.855187
2135.000000	0.855172
2134.000000	0.855151
2133.000000	0.855134
2132.000000	0.855127
2131.000000	0.855131
2130.000000	0.855136
2129.000000	0.855132
2128.000000	0.855112
2127.000000	0.855089
2126.000000	0.855078
2125.000000	0.855084
2124.000000	0.855093
2123.000000	0.855093
2122.000000	0.855085
2121.000000	0.855076
2120.000000	0.855066
2119.000000	0.855050
2118.000000	0.855026
2117.000000	0.854997
2116.000000	0.854970
2115.000000	0.854953
2114.000000	0.854951
2113.000000	0.854959
2112.000000	0.854964
2111.000000	0.854954
2110.000000	0.854933
2109.000000	0.854913
2108.000000	0.854907
2107.000000	0.854909
2106.000000	0.854906
2105.000000	0.854887
2104.000000	0.854855
2103.000000	0.854824
2102.000000	0.854809
2101.000000	0.854812
2100.000000	0.854823
2099.000000	0.854827
2098.000000	0.854822
2097.000000	0.854815
2096.000000	0.854810
2095.000000	0.854802
2094.000000	0.854787
2093.000000	0.854764
2092.000000	0.854739
2091.000000	0.854719
2090.000000	0.854713
2089.000000	0.854721
2088.000000	0.854730
2087.000000	0.854727
2086.000000	0.854707
2085.000000	0.854682
2084.000000	0.854664
2083.000000	0.854654
2082.000000	0.854644
2081.000000	0.854624
2080.000000	0.854595
2079.000000	0.854566
2078.000000	0.854547
2077.000000	0.854541
2076.000000	0.854541
2075.000000	0.854543
2074.000000	0.854544
2073.000000	0.854541
2072.000000	0.854532
2071.000000	0.854514
2070.000000	0.854494
2069.000000	0.854482
2068.000000	0.854477
2067.000000	0.854471
2066.000000	0.854455
2065.000000	0.854432
2064.000000	0.854407
2063.000000	0.854384
2062.000000	0.854365
2061.000000	0.854350
2060.000000	0.854340
2059.000000	0.854337
2058.000000	0.854340
2057.000000	0.854341
2056.000000	0.854332
2055.000000	0.854310
2054.000000	0.854286
2053.000000	0.854269
2052.000000	0.854257
2051.000000	0.854239
2050.000000	0.854217
2049.000000	0.854198
2048.000000	0.854188
2047.000000	0.854182
2046.000000	0.854175
2045.000000	0.854165
2044.000000	0.854150
2043.000000	0.854130
2042.000000	0.854104
2041.000000	0.854085
2040.000000	0.854081
2039.000000	0.854090
2038.000000	0.854101
2037.000000	0.854103
2036.000000	0.854095
2035.000000	0.854079
2034.000000	0.854061
2033.000000	0.854045
2032.000000	0.854035
2031.000000	0.854027
2030.000000	0.854016
2029.000000	0.854001
2028.000000	0.853982
2027.000000	0.853963
2026.000000	0.853941
2025.000000	0.853918
2024.000000	0.853893
2023.000000	0.853873
2022.000000	0.853858
2021.000000	0.853848
2020.000000	0.853837
2019.000000	0.853823
2018.000000	0.853819
2017.000000	0.853832
2016.000000	0.853857
2015.000000	0.853873
2014.000000	0.853864
2013.000000	0.853833
2012.000000	0.853800
2011.000000	0.853780
2010.000000	0.853779
2009.000000	0.853796
2008.000000	0.853821
2007.000000	0.853841
2006.000000	0.853853
2005.000000	0.853873
2004.000000	0.853917
2003.000000	0.853973
2002.000000	0.853997
2001.000000	0.853957
2000.000000	0.853871
1999.000000	0.853793
1998.000000	0.853758
1997.000000	0.853754
1996.000000	0.853747
1995.000000	0.853720
1994.000000	0.853681
1993.000000	0.853645
1992.000000	0.853623
1991.000000	0.853618
1990.000000	0.853629
1989.000000	0.853645
1988.000000	0.853656
1987.000000	0.853663
1986.000000	0.853674
1985.000000	0.853687
1984.000000	0.853697
1983.000000	0.853704
1982.000000	0.853717
1981.000000	0.853738
1980.000000	0.853749
1979.000000	0.853741
1978.000000	0.853720
1977.000000	0.853703
1976.000000	0.853697
1975.000000	0.853697
1974.000000	0.853699
1973.000000	0.853705
1972.000000	0.853712
1971.000000	0.853719
1970.000000	0.853723
1969.000000	0.853722
1968.000000	0.853719
1967.000000	0.853724
1966.000000	0.853745
1965.000000	0.853776
1964.000000	0.853802
1963.000000	0.853812
1962.000000	0.853811
1961.000000	0.853811
1960.000000	0.853814
1959.000000	0.853821
1958.000000	0.853837
1957.000000	0.853859
1956.000000	0.853879
1955.000000	0.853887
1954.000000	0.853888
1953.000000	0.853893
1952.000000	0.853907
1951.000000	0.853924
1950.000000	0.853935
1949.000000	0.853940
1948.000000	0.853947
1947.000000	0.853963
1946.000000	0.853985
1945.000000	0.854000
1944.000000	0.853993
1943.000000	0.853972
1942.000000	0.853966
1941.000000	0.853995
1940.000000	0.854045
1939.000000	0.854092
1938.000000	0.854127
1937.000000	0.854156
1936.000000	0.854182
1935.000000	0.854204
1934.000000	0.854224
1933.000000	0.854251
1932.000000	0.854285
1931.000000	0.854317
1930.000000	0.854342
1929.000000	0.854363
1928.000000	0.854378
1927.000000	0.854385
1926.000000	0.854382
1925.000000	0.854375
1924.000000	0.854372
1923.000000	0.854378
1922.000000	0.854395
1921.000000	0.854405
1920.000000	0.854391
1919.000000	0.854359
1918.000000	0.854348
1917.000000	0.854386
1916.000000	0.854457
1915.000000	0.854526
1914.000000	0.854579
1913.000000	0.854625
1912.000000	0.854670
1911.000000	0.854704
1910.000000	0.854723
1909.000000	0.854743
1908.000000	0.854778
1907.000000	0.854823
1906.000000	0.854865
1905.000000	0.854900
1904.000000	0.854929
1903.000000	0.854955
1902.000000	0.854982
1901.000000	0.855009
1900.000000	0.855028
1899.000000	0.855032
1898.000000	0.855025
1897.000000	0.855017
1896.000000	0.855014
1895.000000	0.855018
1894.000000	0.855031
1893.000000	0.855050
1892.000000	0.855062
1891.000000	0.855056
1890.000000	0.855048
1889.000000	0.855061
1888.000000	0.855104
1887.000000	0.855156
1886.000000	0.855197
1885.000000	0.855222
1884.000000	0.855237
1883.000000	0.855243
1882.000000	0.855243
1881.000000	0.855244
1880.000000	0.855254
1879.000000	0.855269
1878.000000	0.855285
1877.000000	0.855304
1876.000000	0.855326
1875.000000	0.855350
1874.000000	0.855373
1873.000000	0.855379
1872.000000	0.855347
1871.000000	0.855268
1870.000000	0.855178
1869.000000	0.855131
1868.000000	0.855160
1867.000000	0.855243
1866.000000	0.855341
1865.000000	0.855421
1864.000000	0.855470
1863.000000	0.855490
1862.000000	0.855496
1861.000000	0.855510
1860.000000	0.855533
1859.000000	0.855550
1858.000000	0.855553
1857.000000	0.855549
1856.000000	0.855545
1855.000000	0.855544
1854.000000	0.855549
1853.000000	0.855564
1852.000000	0.855580
1851.000000	0.855581
1850.000000	0.855567
1849.000000	0.855551
1848.000000	0.855523
1847.000000	0.855449
1846.000000	0.855319
1845.000000	0.855195
1844.000000	0.855169
1843.000000	0.855276
1842.000000	0.855462
1841.000000	0.855633
1840.000000	0.855727
1839.000000	0.855751
1838.000000	0.855744
1837.000000	0.855739
1836.000000	0.855746
1835.000000	0.855757
1834.000000	0.855758
1833.000000	0.855730
1832.000000	0.855662
1831.000000	0.855577
1830.000000	0.855530
1829.000000	0.855561
1828.000000	0.855644
1827.000000	0.855713
1826.000000	0.855741
1825.000000	0.855760
1824.000000	0.855809
1823.000000	0.855883
1822.000000	0.855948
1821.000000	0.855991
1820.000000	0.856018
1819.000000	0.856039
1818.000000	0.856057
1817.000000	0.856079
1816.000000	0.856103
1815.000000	0.856117
1814.000000	0.856105
1813.000000	0.856075
1812.000000	0.856047
1811.000000	0.856038
1810.000000	0.856051
1809.000000	0.856087
1808.000000	0.856137
1807.000000	0.856185
1806.000000	0.856212
1805.000000	0.856209
1804.000000	0.856172
1803.000000	0.856108
1802.000000	0.856042
1801.000000	0.856010
1800.000000	0.856027
1799.000000	0.856077
1798.000000	0.856135
1797.000000	0.856179
1796.000000	0.856175
1795.000000	0.856087
1794.000000	0.855926
1793.000000	0.855775
1792.000000	0.855727
1791.000000	0.855811
1790.000000	0.855972
1789.000000	0.856130
1788.000000	0.856227
1787.000000	0.856250
1786.000000	0.856226
1785.000000	0.856205
1784.000000	0.856216
1783.000000	0.856247
1782.000000	0.856275
1781.000000	0.856302
1780.000000	0.856347
1779.000000	0.856403
1778.000000	0.856442
1777.000000	0.856437
1776.000000	0.856363
1775.000000	0.856199
1774.000000	0.855970
1773.000000	0.855779
1772.000000	0.855744
1771.000000	0.855878
1770.000000	0.856071
1769.000000	0.856219
1768.000000	0.856317
1767.000000	0.856425
1766.000000	0.856550
1765.000000	0.856628
1764.000000	0.856608
1763.000000	0.856524
1762.000000	0.856467
1761.000000	0.856497
1760.000000	0.856586
1759.000000	0.856658
1758.000000	0.856672
1757.000000	0.856662
1756.000000	0.856682
1755.000000	0.856728
1754.000000	0.856731
1753.000000	0.856643
1752.000000	0.856507
1751.000000	0.856420
1750.000000	0.856434
1749.000000	0.856527
1748.000000	0.856643
1747.000000	0.856744
1746.000000	0.856826
1745.000000	0.856890
1744.000000	0.856930
1743.000000	0.856932
1742.000000	0.856883
1741.000000	0.856805
1740.000000	0.856767
1739.000000	0.856824
1738.000000	0.856912
1737.000000	0.856862
1736.000000	0.856575
1735.000000	0.856186
1734.000000	0.855985
1733.000000	0.856143
1732.000000	0.856547
1731.000000	0.856949
1730.000000	0.857208
1729.000000	0.857349
1728.000000	0.857443
1727.000000	0.857513
1726.000000	0.857551
1725.000000	0.857569
1724.000000	0.857588
1723.000000	0.857610
1722.000000	0.857600
1721.000000	0.857488
1720.000000	0.857215
1719.000000	0.856824
1718.000000	0.856498
1717.000000	0.856438
1716.000000	0.856674
1715.000000	0.857047
1714.000000	0.857386
1713.000000	0.857633
1712.000000	0.857802
1711.000000	0.857895
1710.000000	0.857913
1709.000000	0.857878
1708.000000	0.857815
1707.000000	0.857729
1706.000000	0.857652
1705.000000	0.857631
1704.000000	0.857621
1703.000000	0.857457
1702.000000	0.857069
1701.000000	0.856648
1700.000000	0.856483
1699.000000	0.856611
1698.000000	0.856781
1697.000000	0.856806
1696.000000	0.856805
1695.000000	0.857016
1694.000000	0.857463
1693.000000	0.857924
1692.000000	0.858191
1691.000000	0.858261
1690.000000	0.858258
1689.000000	0.858241
1688.000000	0.858127
1687.000000	0.857797
1686.000000	0.857293
1685.000000	0.856871
1684.000000	0.856822
1683.000000	0.857189
1682.000000	0.857731
1681.000000	0.858166
1680.000000	0.858391
1679.000000	0.858453
1678.000000	0.858396
1677.000000	0.858239
1676.000000	0.858063
1675.000000	0.858002
1674.000000	0.858104
1673.000000	0.858260
1672.000000	0.858325
1671.000000	0.858276
1670.000000	0.858222
1669.000000	0.858279
1668.000000	0.858464
1667.000000	0.858692
1666.000000	0.858844
1665.000000	0.858854
1664.000000	0.858758
1663.000000	0.858674
1662.000000	0.858703
1661.000000	0.858840
1660.000000	0.859001
1659.000000	0.859114
1658.000000	0.859137
1657.000000	0.858986
1656.000000	0.858538
1655.000000	0.857786
1654.000000	0.857016
1653.000000	0.856684
1652.000000	0.857022
1651.000000	0.857787
1650.000000	0.858474
1649.000000	0.858752
1648.000000	0.858677
1647.000000	0.858531
1646.000000	0.858547
1645.000000	0.858760
1644.000000	0.859059
1643.000000	0.859310
1642.000000	0.859446
1641.000000	0.859485
1640.000000	0.859459
1639.000000	0.859340
1638.000000	0.859080
1637.000000	0.858736
1636.000000	0.858504
1635.000000	0.858563
1634.000000	0.858897
1633.000000	0.859306
1632.000000	0.859596
1631.000000	0.859703
1630.000000	0.859678
1629.000000	0.859606
1628.000000	0.859556
1627.000000	0.859542
1626.000000	0.859532
1625.000000	0.859485
1624.000000	0.859422
1623.000000	0.859421
1622.000000	0.859524
1621.000000	0.859656
1620.000000	0.859668
1619.000000	0.859478
1618.000000	0.859180
1617.000000	0.858997
1616.000000	0.859099
1615.000000	0.859458
1614.000000	0.859874
1613.000000	0.860158
1612.000000	0.860267
1611.000000	0.860276
1610.000000	0.860267
1609.000000	0.860267
1608.000000	0.860276
1607.000000	0.860294
1606.000000	0.860319
1605.000000	0.860343
1604.000000	0.860365
1603.000000	0.860390
1602.000000	0.860417
1601.000000	0.860437
1600.000000	0.860458
1599.000000	0.860493
1598.000000	0.860537
1597.000000	0.860567
1596.000000	0.860575
1595.000000	0.860582
1594.000000	0.860611
1593.000000	0.860659
1592.000000	0.860706
1591.000000	0.860743
1590.000000	0.860772
1589.000000	0.860798
1588.000000	0.860819
1587.000000	0.860838
1586.000000	0.860860
1585.000000	0.860886
1584.000000	0.860912
1583.000000	0.860939
1582.000000	0.860971
1581.000000	0.860991
1580.000000	0.860940
1579.000000	0.860740
1578.000000	0.860387
1577.000000	0.860032
1576.000000	0.859912
1575.000000	0.860135
1574.000000	0.860550
1573.000000	0.860872
1572.000000	0.860939
1571.000000	0.860825
1570.000000	0.860726
1569.000000	0.860765
1568.000000	0.860921
1567.000000	0.861093
1566.000000	0.861202
1565.000000	0.861235
1564.000000	0.861198
1563.000000	0.861033
1562.000000	0.860625
1561.000000	0.859964
1560.000000	0.859290
1559.000000	0.858980
1558.000000	0.859208
1557.000000	0.859768
1556.000000	0.860304
1555.000000	0.860645
1554.000000	0.860862
1553.000000	0.861061
1552.000000	0.861238
1551.000000	0.861346
1550.000000	0.861402
1549.000000	0.861454
1548.000000	0.861493
1547.000000	0.861460
1546.000000	0.861327
1545.000000	0.861123
1544.000000	0.860874
1543.000000	0.860559
1542.000000	0.860167
1541.000000	0.859789
1540.000000	0.859625
1539.000000	0.859845
1538.000000	0.860401
1537.000000	0.861006
1536.000000	0.861359
1535.000000	0.861398
1534.000000	0.861314
1533.000000	0.861325
1532.000000	0.861477
1531.000000	0.861668
1530.000000	0.861790
1529.000000	0.861809
1528.000000	0.861741
1527.000000	0.861636
1526.000000	0.861546
1525.000000	0.861464
1524.000000	0.861310
1523.000000	0.861046
1522.000000	0.860797
1521.000000	0.860756
1520.000000	0.860966
1519.000000	0.861265
1518.000000	0.861476
1517.000000	0.861587
1516.000000	0.861694
1515.000000	0.861828
1514.000000	0.861932
1513.000000	0.861964
1512.000000	0.861946
1511.000000	0.861883
1510.000000	0.861707
1509.000000	0.861350
1508.000000	0.860884
1507.000000	0.860547
1506.000000	0.860578
1505.000000	0.861014
1504.000000	0.861645
1503.000000	0.862190
1502.000000	0.862505
1501.000000	0.862616
1500.000000	0.862607
