PE IR       SUBTECH     SPECTRUM    ASCII       PEDS        4.00        
   -1
TE110A_042_80K_AFTER_110K_SB.ASC
20/05/14
13:11:18.00
20/05/14
13:11:18.00
Administrator
TE110A.Thursday, May 14 2020, 011.
1000.000000
#HDR
-1
-1
#GR
cm-1
EGY
1.0
0.0
6000.000000
-2.000000
2501
8
6.542912
0.669155
#DATA
6000.000000	1.016880
5998.000000	1.018839
5996.000000	1.020783
5994.000000	1.022720
5992.000000	1.025153
5990.000000	1.027105
5988.000000	1.028602
5986.000000	1.030072
5984.000000	1.032741
5982.000000	1.035866
5980.000000	1.037925
5978.000000	1.038407
5976.000000	1.038918
5974.000000	1.041482
5972.000000	1.044739
5970.000000	1.047002
5968.000000	1.049158
5966.000000	1.050548
5964.000000	1.053161
5962.000000	1.055731
5960.000000	1.057499
5958.000000	1.059793
5956.000000	1.062008
5954.000000	1.064643
5952.000000	1.067743
5950.000000	1.070315
5948.000000	1.073242
5946.000000	1.076315
5944.000000	1.078299
5942.000000	1.079872
5940.000000	1.081468
5938.000000	1.083086
5936.000000	1.085084
5934.000000	1.086635
5932.000000	1.088114
5930.000000	1.089909
5928.000000	1.091630
5926.000000	1.094249
5924.000000	1.097706
5922.000000	1.100845
5920.000000	1.103119
5918.000000	1.105025
5916.000000	1.107047
5914.000000	1.109339
5912.000000	1.111335
5910.000000	1.112872
5908.000000	1.114958
5906.000000	1.117790
5904.000000	1.121627
5902.000000	1.124732
5900.000000	1.127373
5898.000000	1.129557
5896.000000	1.131824
5894.000000	1.134193
5892.000000	1.136613
5890.000000	1.138643
5888.000000	1.139662
5886.000000	1.141880
5884.000000	1.144872
5882.000000	1.147979
5880.000000	1.149944
5878.000000	1.150881
5876.000000	1.153059
5874.000000	1.155005
5872.000000	1.157034
5870.000000	1.159874
5868.000000	1.163180
5866.000000	1.166148
5864.000000	1.168304
5862.000000	1.170280
5860.000000	1.172337
5858.000000	1.174610
5856.000000	1.176309
5854.000000	1.178379
5852.000000	1.182003
5850.000000	1.185893
5848.000000	1.188558
5846.000000	1.189562
5844.000000	1.190787
5842.000000	1.193243
5840.000000	1.195893
5838.000000	1.198834
5836.000000	1.201186
5834.000000	1.203374
5832.000000	1.206035
5830.000000	1.209160
5828.000000	1.211574
5826.000000	1.213850
5824.000000	1.215999
5822.000000	1.219166
5820.000000	1.221927
5818.000000	1.224732
5816.000000	1.227954
5814.000000	1.230664
5812.000000	1.233416
5810.000000	1.236559
5808.000000	1.239812
5806.000000	1.241643
5804.000000	1.242631
5802.000000	1.244361
5800.000000	1.247096
5798.000000	1.250020
5796.000000	1.252281
5794.000000	1.254749
5792.000000	1.257034
5790.000000	1.259643
5788.000000	1.261637
5786.000000	1.263159
5784.000000	1.265482
5782.000000	1.268818
5780.000000	1.273407
5778.000000	1.276374
5776.000000	1.278153
5774.000000	1.279959
5772.000000	1.282526
5770.000000	1.286226
5768.000000	1.289608
5766.000000	1.292488
5764.000000	1.294701
5762.000000	1.296830
5760.000000	1.299691
5758.000000	1.302689
5756.000000	1.305103
5754.000000	1.307786
5752.000000	1.310395
5750.000000	1.313060
5748.000000	1.315848
5746.000000	1.318251
5744.000000	1.321336
5742.000000	1.324240
5740.000000	1.326959
5738.000000	1.329278
5736.000000	1.331319
5734.000000	1.333628
5732.000000	1.336231
5730.000000	1.339556
5728.000000	1.343193
5726.000000	1.346491
5724.000000	1.349510
5722.000000	1.352225
5720.000000	1.354243
5718.000000	1.355738
5716.000000	1.357586
5714.000000	1.360244
5712.000000	1.362949
5710.000000	1.365985
5708.000000	1.368905
5706.000000	1.371008
5704.000000	1.373051
5702.000000	1.375727
5700.000000	1.378677
5698.000000	1.382028
5696.000000	1.385405
5694.000000	1.388606
5692.000000	1.391385
5690.000000	1.393482
5688.000000	1.395644
5686.000000	1.398224
5684.000000	1.401614
5682.000000	1.405597
5680.000000	1.409509
5678.000000	1.413124
5676.000000	1.416459
5674.000000	1.419657
5672.000000	1.421828
5670.000000	1.423495
5668.000000	1.425382
5666.000000	1.427557
5664.000000	1.430850
5662.000000	1.434440
5660.000000	1.437578
5658.000000	1.440083
5656.000000	1.441830
5654.000000	1.444924
5652.000000	1.449682
5650.000000	1.454096
5648.000000	1.456948
5646.000000	1.458514
5644.000000	1.460471
5642.000000	1.463218
5640.000000	1.466282
5638.000000	1.469386
5636.000000	1.471452
5634.000000	1.472934
5632.000000	1.475252
5630.000000	1.478404
5628.000000	1.481886
5626.000000	1.484255
5624.000000	1.487541
5622.000000	1.491270
5620.000000	1.494472
5618.000000	1.496531
5616.000000	1.498797
5614.000000	1.501733
5612.000000	1.504902
5610.000000	1.507670
5608.000000	1.510310
5606.000000	1.513172
5604.000000	1.516897
5602.000000	1.520318
5600.000000	1.523752
5598.000000	1.526825
5596.000000	1.530408
5594.000000	1.533393
5592.000000	1.535893
5590.000000	1.539414
5588.000000	1.543636
5586.000000	1.547062
5584.000000	1.549392
5582.000000	1.551310
5580.000000	1.553598
5578.000000	1.556695
5576.000000	1.559631
5574.000000	1.562476
5572.000000	1.565254
5570.000000	1.568788
5568.000000	1.572550
5566.000000	1.575383
5564.000000	1.578477
5562.000000	1.581969
5560.000000	1.584789
5558.000000	1.586928
5556.000000	1.589006
5554.000000	1.592828
5552.000000	1.596303
5550.000000	1.599240
5548.000000	1.601435
5546.000000	1.603801
5544.000000	1.606910
5542.000000	1.610091
5540.000000	1.612869
5538.000000	1.615656
5536.000000	1.618159
5534.000000	1.621156
5532.000000	1.625138
5530.000000	1.628407
5528.000000	1.630891
5526.000000	1.632981
5524.000000	1.636718
5522.000000	1.640873
5520.000000	1.644348
5518.000000	1.646775
5516.000000	1.650360
5514.000000	1.654114
5512.000000	1.657075
5510.000000	1.659363
5508.000000	1.661433
5506.000000	1.664066
5504.000000	1.667673
5502.000000	1.670858
5500.000000	1.674132
5498.000000	1.677144
5496.000000	1.680677
5494.000000	1.684101
5492.000000	1.686435
5490.000000	1.688578
5488.000000	1.691413
5486.000000	1.694804
5484.000000	1.699177
5482.000000	1.703303
5480.000000	1.706488
5478.000000	1.708453
5476.000000	1.711105
5474.000000	1.714733
5472.000000	1.718289
5470.000000	1.721888
5468.000000	1.725333
5466.000000	1.728197
5464.000000	1.730584
5462.000000	1.733094
5460.000000	1.736049
5458.000000	1.738446
5456.000000	1.741416
5454.000000	1.745776
5452.000000	1.750544
5450.000000	1.754716
5448.000000	1.757147
5446.000000	1.758362
5444.000000	1.759030
5442.000000	1.761625
5440.000000	1.766053
5438.000000	1.770656
5436.000000	1.774341
5434.000000	1.777036
5432.000000	1.779452
5430.000000	1.782732
5428.000000	1.786681
5426.000000	1.790454
5424.000000	1.794001
5422.000000	1.797868
5420.000000	1.801220
5418.000000	1.803341
5416.000000	1.804959
5414.000000	1.806593
5412.000000	1.807951
5410.000000	1.809956
5408.000000	1.813432
5406.000000	1.818800
5404.000000	1.824268
5402.000000	1.828675
5400.000000	1.831785
5398.000000	1.833709
5396.000000	1.835321
5394.000000	1.837404
5392.000000	1.840837
5390.000000	1.845132
5388.000000	1.848245
5386.000000	1.850332
5384.000000	1.853739
5382.000000	1.859282
5380.000000	1.864478
5378.000000	1.866774
5376.000000	1.868753
5374.000000	1.872407
5372.000000	1.876605
5370.000000	1.879589
5368.000000	1.882574
5366.000000	1.886075
5364.000000	1.889307
5362.000000	1.891602
5360.000000	1.894072
5358.000000	1.897231
5356.000000	1.900206
5354.000000	1.902741
5352.000000	1.905308
5350.000000	1.909369
5348.000000	1.913367
5346.000000	1.915325
5344.000000	1.916746
5342.000000	1.919235
5340.000000	1.923144
5338.000000	1.926439
5336.000000	1.929897
5334.000000	1.934397
5332.000000	1.940145
5330.000000	1.944190
5328.000000	1.946500
5326.000000	1.948229
5324.000000	1.951626
5322.000000	1.956488
5320.000000	1.961077
5318.000000	1.964466
5316.000000	1.966693
5314.000000	1.968687
5312.000000	1.971834
5310.000000	1.975381
5308.000000	1.978094
5306.000000	1.980727
5304.000000	1.983892
5302.000000	1.987492
5300.000000	1.990898
5298.000000	1.994153
5296.000000	1.998649
5294.000000	2.002761
5292.000000	2.005105
5290.000000	2.007002
5288.000000	2.010255
5286.000000	2.015112
5284.000000	2.018689
5282.000000	2.021758
5280.000000	2.025557
5278.000000	2.029243
5276.000000	2.032967
5274.000000	2.036591
5272.000000	2.040734
5270.000000	2.043654
5268.000000	2.045868
5266.000000	2.048200
5264.000000	2.050778
5262.000000	2.053353
5260.000000	2.056778
5258.000000	2.060799
5256.000000	2.064016
5254.000000	2.066301
5252.000000	2.068757
5250.000000	2.071276
5248.000000	2.073643
5246.000000	2.076962
5244.000000	2.081146
5242.000000	2.085001
5240.000000	2.089261
5238.000000	2.093447
5236.000000	2.096846
5234.000000	2.099114
5232.000000	2.101876
5230.000000	2.105829
5228.000000	2.109330
5226.000000	2.112026
5224.000000	2.115143
5222.000000	2.119127
5220.000000	2.123434
5218.000000	2.126549
5216.000000	2.129854
5214.000000	2.132852
5212.000000	2.136747
5210.000000	2.140385
5208.000000	2.142798
5206.000000	2.144160
5204.000000	2.147010
5202.000000	2.152209
5200.000000	2.157009
5198.000000	2.159790
5196.000000	2.162645
5194.000000	2.166730
5192.000000	2.170709
5190.000000	2.173687
5188.000000	2.177233
5186.000000	2.181315
5184.000000	2.184790
5182.000000	2.188275
5180.000000	2.192230
5178.000000	2.195670
5176.000000	2.198165
5174.000000	2.200719
5172.000000	2.204371
5170.000000	2.208637
5168.000000	2.212729
5166.000000	2.215490
5164.000000	2.218136
5162.000000	2.221841
5160.000000	2.226371
5158.000000	2.229605
5156.000000	2.232192
5154.000000	2.235188
5152.000000	2.238842
5150.000000	2.242080
5148.000000	2.244943
5146.000000	2.249226
5144.000000	2.253444
5142.000000	2.257253
5140.000000	2.260625
5138.000000	2.264732
5136.000000	2.268102
5134.000000	2.270447
5132.000000	2.273681
5130.000000	2.277929
5128.000000	2.281558
5126.000000	2.283761
5124.000000	2.286074
5122.000000	2.290330
5120.000000	2.295262
5118.000000	2.298995
5116.000000	2.302051
5114.000000	2.305507
5112.000000	2.309540
5110.000000	2.312855
5108.000000	2.315721
5106.000000	2.318485
5104.000000	2.321860
5102.000000	2.325836
5100.000000	2.329262
5098.000000	2.332156
5096.000000	2.335306
5094.000000	2.339035
5092.000000	2.343011
5090.000000	2.346932
5088.000000	2.351315
5086.000000	2.355679
5084.000000	2.360001
5082.000000	2.363938
5080.000000	2.367299
5078.000000	2.369864
5076.000000	2.372267
5074.000000	2.375319
5072.000000	2.378869
5070.000000	2.382694
5068.000000	2.386455
5066.000000	2.389908
5064.000000	2.393423
5062.000000	2.397492
5060.000000	2.401722
5058.000000	2.404863
5056.000000	2.407298
5054.000000	2.409593
5052.000000	2.411929
5050.000000	2.414542
5048.000000	2.418785
5046.000000	2.424317
5044.000000	2.429503
5042.000000	2.433042
5040.000000	2.435431
5038.000000	2.438754
5036.000000	2.442319
5034.000000	2.445816
5032.000000	2.448853
5030.000000	2.451700
5028.000000	2.454314
5026.000000	2.457511
5024.000000	2.461694
5022.000000	2.465583
5020.000000	2.469226
5018.000000	2.473020
5016.000000	2.476624
5014.000000	2.480052
5012.000000	2.483696
5010.000000	2.487480
5008.000000	2.491480
5006.000000	2.494969
5004.000000	2.497734
5002.000000	2.500606
5000.000000	2.504666
4998.000000	2.509063
4996.000000	2.513264
4994.000000	2.517183
4992.000000	2.520122
4990.000000	2.522394
4988.000000	2.525455
4986.000000	2.529469
4984.000000	2.533250
4982.000000	2.537065
4980.000000	2.540714
4978.000000	2.544402
4976.000000	2.548716
4974.000000	2.553074
4972.000000	2.556444
4970.000000	2.559492
4968.000000	2.562870
4966.000000	2.566000
4964.000000	2.568977
4962.000000	2.572543
4960.000000	2.576968
4958.000000	2.581329
4956.000000	2.584816
4954.000000	2.587577
4952.000000	2.590729
4950.000000	2.594004
4948.000000	2.597411
4946.000000	2.601855
4944.000000	2.606055
4942.000000	2.608923
4940.000000	2.611592
4938.000000	2.615303
4936.000000	2.619355
4934.000000	2.622877
4932.000000	2.627134
4930.000000	2.631664
4928.000000	2.635324
4926.000000	2.637402
4924.000000	2.640198
4922.000000	2.644380
4920.000000	2.648346
4918.000000	2.651168
4916.000000	2.654357
4914.000000	2.658098
4912.000000	2.661572
4910.000000	2.665532
4908.000000	2.670096
4906.000000	2.674561
4904.000000	2.678587
4902.000000	2.683051
4900.000000	2.687177
4898.000000	2.690743
4896.000000	2.694105
4894.000000	2.697979
4892.000000	2.701616
4890.000000	2.704863
4888.000000	2.708083
4886.000000	2.711739
4884.000000	2.715326
4882.000000	2.718942
4880.000000	2.722903
4878.000000	2.726552
4876.000000	2.729860
4874.000000	2.733180
4872.000000	2.737712
4870.000000	2.741881
4868.000000	2.744715
4866.000000	2.747047
4864.000000	2.750753
4862.000000	2.754361
4860.000000	2.757107
4858.000000	2.760911
4856.000000	2.765579
4854.000000	2.768900
4852.000000	2.771344
4850.000000	2.774698
4848.000000	2.778603
4846.000000	2.782609
4844.000000	2.786670
4842.000000	2.790301
4840.000000	2.794067
4838.000000	2.798045
4836.000000	2.802087
4834.000000	2.806448
4832.000000	2.810030
4830.000000	2.812633
4828.000000	2.816396
4826.000000	2.821117
4824.000000	2.824491
4822.000000	2.827541
4820.000000	2.831731
4818.000000	2.836001
4816.000000	2.839590
4814.000000	2.843113
4812.000000	2.846640
4810.000000	2.850325
4808.000000	2.853819
4806.000000	2.857381
4804.000000	2.861738
4802.000000	2.866530
4800.000000	2.870418
4798.000000	2.873307
4796.000000	2.876470
4794.000000	2.879992
4792.000000	2.883151
4790.000000	2.886129
4788.000000	2.889276
4786.000000	2.893141
4784.000000	2.897959
4782.000000	2.902938
4780.000000	2.906896
4778.000000	2.910512
4776.000000	2.914108
4774.000000	2.917389
4772.000000	2.920867
4770.000000	2.924689
4768.000000	2.928146
4766.000000	2.931510
4764.000000	2.935801
4762.000000	2.939981
4760.000000	2.943343
4758.000000	2.946190
4756.000000	2.949993
4754.000000	2.953960
4752.000000	2.957628
4750.000000	2.960734
4748.000000	2.964329
4746.000000	2.968124
4744.000000	2.971554
4742.000000	2.974961
4740.000000	2.979418
4738.000000	2.984287
4736.000000	2.988376
4734.000000	2.991354
4732.000000	2.994678
4730.000000	2.998886
4728.000000	3.003242
4726.000000	3.007250
4724.000000	3.011585
4722.000000	3.015203
4720.000000	3.018237
4718.000000	3.021683
4716.000000	3.025736
4714.000000	3.029413
4712.000000	3.033206
4710.000000	3.036996
4708.000000	3.040482
4706.000000	3.044352
4704.000000	3.049304
4702.000000	3.053466
4700.000000	3.056086
4698.000000	3.059643
4696.000000	3.064439
4694.000000	3.068922
4692.000000	3.073032
4690.000000	3.077350
4688.000000	3.080938
4686.000000	3.084238
4684.000000	3.088853
4682.000000	3.094135
4680.000000	3.097324
4678.000000	3.099706
4676.000000	3.102961
4674.000000	3.106518
4672.000000	3.110031
4670.000000	3.114963
4668.000000	3.119781
4666.000000	3.123443
4664.000000	3.126440
4662.000000	3.129705
4660.000000	3.133843
4658.000000	3.137919
4656.000000	3.140807
4654.000000	3.143313
4652.000000	3.146949
4650.000000	3.151513
4648.000000	3.155904
4646.000000	3.159523
4644.000000	3.162655
4642.000000	3.166277
4640.000000	3.170487
4638.000000	3.174683
4636.000000	3.178587
4634.000000	3.182763
4632.000000	3.187098
4630.000000	3.190614
4628.000000	3.194614
4626.000000	3.199369
4624.000000	3.203115
4622.000000	3.205557
4620.000000	3.208628
4618.000000	3.212978
4616.000000	3.217265
4614.000000	3.220904
4612.000000	3.224454
4610.000000	3.228086
4608.000000	3.231121
4606.000000	3.234887
4604.000000	3.240204
4602.000000	3.245333
4600.000000	3.250010
4598.000000	3.254916
4596.000000	3.259688
4594.000000	3.263597
4592.000000	3.267422
4590.000000	3.271742
4588.000000	3.276364
4586.000000	3.279895
4584.000000	3.282117
4582.000000	3.285079
4580.000000	3.289830
4578.000000	3.295145
4576.000000	3.299822
4574.000000	3.303203
4572.000000	3.305521
4570.000000	3.307970
4568.000000	3.311333
4566.000000	3.316151
4564.000000	3.321905
4562.000000	3.326347
4560.000000	3.329115
4558.000000	3.332610
4556.000000	3.337054
4554.000000	3.340749
4552.000000	3.344066
4550.000000	3.348173
4548.000000	3.352567
4546.000000	3.355972
4544.000000	3.359528
4542.000000	3.364220
4540.000000	3.368842
4538.000000	3.372621
4536.000000	3.376667
4534.000000	3.380163
4532.000000	3.383681
4530.000000	3.388066
4528.000000	3.392725
4526.000000	3.397570
4524.000000	3.402660
4522.000000	3.406954
4520.000000	3.410898
4518.000000	3.414238
4516.000000	3.416339
4514.000000	3.418920
4512.000000	3.423563
4510.000000	3.428100
4508.000000	3.431914
4506.000000	3.436376
4504.000000	3.441713
4502.000000	3.446614
4500.000000	3.450922
4498.000000	3.454106
4496.000000	3.456789
4494.000000	3.460558
4492.000000	3.465775
4490.000000	3.470669
4488.000000	3.474841
4486.000000	3.478884
4484.000000	3.482586
4482.000000	3.486280
4480.000000	3.490790
4478.000000	3.494785
4476.000000	3.497383
4474.000000	3.500220
4472.000000	3.504550
4470.000000	3.509502
4468.000000	3.513776
4466.000000	3.517002
4464.000000	3.520033
4462.000000	3.524172
4460.000000	3.529438
4458.000000	3.534476
4456.000000	3.538268
4454.000000	3.541102
4452.000000	3.544613
4450.000000	3.548565
4448.000000	3.552143
4446.000000	3.556051
4444.000000	3.560302
4442.000000	3.564488
4440.000000	3.569028
4438.000000	3.573034
4436.000000	3.576727
4434.000000	3.581557
4432.000000	3.585972
4430.000000	3.589423
4428.000000	3.593658
4426.000000	3.598027
4424.000000	3.601002
4422.000000	3.603755
4420.000000	3.606949
4418.000000	3.611246
4416.000000	3.616407
4414.000000	3.621040
4412.000000	3.625329
4410.000000	3.630476
4408.000000	3.635535
4406.000000	3.639576
4404.000000	3.642681
4402.000000	3.645887
4400.000000	3.650121
4398.000000	3.655038
4396.000000	3.659405
4394.000000	3.662485
4392.000000	3.665598
4390.000000	3.669702
4388.000000	3.673519
4386.000000	3.676992
4384.000000	3.681437
4382.000000	3.685666
4380.000000	3.688394
4378.000000	3.690828
4376.000000	3.694469
4374.000000	3.698788
4372.000000	3.702975
4370.000000	3.707167
4368.000000	3.711683
4366.000000	3.716350
4364.000000	3.720046
4362.000000	3.722705
4360.000000	3.726374
4358.000000	3.730629
4356.000000	3.733717
4354.000000	3.736939
4352.000000	3.741174
4350.000000	3.745850
4348.000000	3.750572
4346.000000	3.754591
4344.000000	3.758078
4342.000000	3.762585
4340.000000	3.767911
4338.000000	3.772285
4336.000000	3.775550
4334.000000	3.779416
4332.000000	3.783707
4330.000000	3.787198
4328.000000	3.790942
4326.000000	3.795584
4324.000000	3.799836
4322.000000	3.803636
4320.000000	3.807929
4318.000000	3.812747
4316.000000	3.817710
4314.000000	3.822584
4312.000000	3.827676
4310.000000	3.832243
4308.000000	3.835953
4306.000000	3.839506
4304.000000	3.843360
4302.000000	3.848117
4300.000000	3.853194
4298.000000	3.857176
4296.000000	3.860432
4294.000000	3.863838
4292.000000	3.867763
4290.000000	3.872249
4288.000000	3.876748
4286.000000	3.880555
4284.000000	3.883781
4282.000000	3.887714
4280.000000	3.891320
4278.000000	3.893857
4276.000000	3.896891
4274.000000	3.900772
4272.000000	3.905010
4270.000000	3.910248
4268.000000	3.915553
4266.000000	3.919669
4264.000000	3.923201
4262.000000	3.926857
4260.000000	3.929918
4258.000000	3.933640
4256.000000	3.939251
4254.000000	3.943890
4252.000000	3.946863
4250.000000	3.950756
4248.000000	3.954646
4246.000000	3.957471
4244.000000	3.961106
4242.000000	3.965981
4240.000000	3.970892
4238.000000	3.974846
4236.000000	3.978578
4234.000000	3.983035
4232.000000	3.987615
4230.000000	3.992382
4228.000000	3.997442
4226.000000	4.002080
4224.000000	4.006321
4222.000000	4.010146
4220.000000	4.013538
4218.000000	4.017263
4216.000000	4.021774
4214.000000	4.025753
4212.000000	4.029490
4210.000000	4.034461
4208.000000	4.039759
4206.000000	4.043770
4204.000000	4.047229
4202.000000	4.051097
4200.000000	4.055521
4198.000000	4.060451
4196.000000	4.065933
4194.000000	4.070470
4192.000000	4.073617
4190.000000	4.077730
4188.000000	4.082973
4186.000000	4.087258
4184.000000	4.091084
4182.000000	4.095353
4180.000000	4.099519
4178.000000	4.103789
4176.000000	4.107935
4174.000000	4.111714
4172.000000	4.116387
4170.000000	4.122155
4168.000000	4.126463
4166.000000	4.128327
4164.000000	4.130833
4162.000000	4.136515
4160.000000	4.143528
4158.000000	4.148308
4156.000000	4.151658
4154.000000	4.156327
4152.000000	4.160956
4150.000000	4.164720
4148.000000	4.168868
4146.000000	4.173389
4144.000000	4.177957
4142.000000	4.182777
4140.000000	4.187131
4138.000000	4.190591
4136.000000	4.193731
4134.000000	4.197925
4132.000000	4.203388
4130.000000	4.208559
4128.000000	4.212495
4126.000000	4.216614
4124.000000	4.221396
4122.000000	4.226249
4120.000000	4.230014
4118.000000	4.233631
4116.000000	4.238420
4114.000000	4.243025
4112.000000	4.246836
4110.000000	4.251359
4108.000000	4.256115
4106.000000	4.260006
4104.000000	4.263967
4102.000000	4.268933
4100.000000	4.273793
4098.000000	4.278233
4096.000000	4.282820
4094.000000	4.286170
4092.000000	4.288170
4090.000000	4.292479
4088.000000	4.298901
4086.000000	4.303602
4084.000000	4.307079
4082.000000	4.311253
4080.000000	4.316263
4078.000000	4.321328
4076.000000	4.325378
4074.000000	4.329654
4072.000000	4.334621
4070.000000	4.338759
4068.000000	4.342501
4066.000000	4.346811
4064.000000	4.351983
4062.000000	4.357566
4060.000000	4.362043
4058.000000	4.365393
4056.000000	4.369846
4054.000000	4.375592
4052.000000	4.380650
4050.000000	4.384839
4048.000000	4.388502
4046.000000	4.392166
4044.000000	4.396658
4042.000000	4.400945
4040.000000	4.404677
4038.000000	4.408687
4036.000000	4.413354
4034.000000	4.419178
4032.000000	4.425271
4030.000000	4.430001
4028.000000	4.433601
4026.000000	4.437443
4024.000000	4.442043
4022.000000	4.446968
4020.000000	4.450822
4018.000000	4.453746
4016.000000	4.457757
4014.000000	4.463827
4012.000000	4.470414
4010.000000	4.475569
4008.000000	4.479265
4006.000000	4.483270
4004.000000	4.488033
4002.000000	4.492445
4000.000000	4.496691
3998.000000	4.501534
3996.000000	4.506219
3994.000000	4.510213
3992.000000	4.514285
3990.000000	4.518423
3988.000000	4.521646
3986.000000	4.525146
3984.000000	4.530279
3982.000000	4.536067
3980.000000	4.541763
3978.000000	4.546053
3976.000000	4.548650
3974.000000	4.551965
3972.000000	4.556644
3970.000000	4.561598
3968.000000	4.566480
3966.000000	4.571104
3964.000000	4.574603
3962.000000	4.577078
3960.000000	4.580755
3958.000000	4.586148
3956.000000	4.592662
3954.000000	4.598943
3952.000000	4.602366
3950.000000	4.603082
3948.000000	4.604361
3946.000000	4.608429
3944.000000	4.612987
3942.000000	4.616719
3940.000000	4.622818
3938.000000	4.630540
3936.000000	4.635123
3934.000000	4.635145
3932.000000	4.633926
3930.000000	4.637797
3928.000000	4.647249
3926.000000	4.653436
3924.000000	4.655012
3922.000000	4.658554
3920.000000	4.662292
3918.000000	4.662828
3916.000000	4.666327
3914.000000	4.677871
3912.000000	4.690334
3910.000000	4.697094
3908.000000	4.698196
3906.000000	4.689393
3904.000000	4.671792
3902.000000	4.660413
3900.000000	4.664864
3898.000000	4.683051
3896.000000	4.707307
3894.000000	4.720259
3892.000000	4.713273
3890.000000	4.707637
3888.000000	4.714864
3886.000000	4.713395
3884.000000	4.708837
3882.000000	4.720100
3880.000000	4.732266
3878.000000	4.742654
3876.000000	4.753682
3874.000000	4.752896
3872.000000	4.741742
3870.000000	4.725570
3868.000000	4.722839
3866.000000	4.739710
3864.000000	4.751742
3862.000000	4.762273
3860.000000	4.781766
3858.000000	4.791494
3856.000000	4.759881
3854.000000	4.687651
3852.000000	4.656085
3850.000000	4.715566
3848.000000	4.794905
3846.000000	4.828325
3844.000000	4.826704
3842.000000	4.814712
3840.000000	4.795985
3838.000000	4.769110
3836.000000	4.763052
3834.000000	4.792775
3832.000000	4.823132
3830.000000	4.840549
3828.000000	4.855713
3826.000000	4.863679
3824.000000	4.860503
3822.000000	4.841915
3820.000000	4.825666
3818.000000	4.829708
3816.000000	4.829556
3814.000000	4.839221
3812.000000	4.880177
3810.000000	4.906858
3808.000000	4.893697
3806.000000	4.874313
3804.000000	4.873578
3802.000000	4.864780
3800.000000	4.855629
3798.000000	4.882539
3796.000000	4.914642
3794.000000	4.931105
3792.000000	4.947064
3790.000000	4.957547
3788.000000	4.960120
3786.000000	4.960660
3784.000000	4.962725
3782.000000	4.965246
3780.000000	4.963566
3778.000000	4.963850
3776.000000	4.973586
3774.000000	4.984365
3772.000000	4.984487
3770.000000	4.974495
3768.000000	4.971423
3766.000000	4.980868
3764.000000	4.991352
3762.000000	4.998577
3760.000000	4.997561
3758.000000	4.995070
3756.000000	4.999863
3754.000000	4.987679
3752.000000	4.942487
3750.000000	4.904958
3748.000000	4.914783
3746.000000	4.928963
3744.000000	4.912990
3742.000000	4.936881
3740.000000	5.003514
3738.000000	5.024087
3736.000000	5.001131
3734.000000	4.990246
3732.000000	5.003800
3730.000000	5.033401
3728.000000	5.062476
3726.000000	5.071000
3724.000000	5.070766
3722.000000	5.076423
3720.000000	5.086325
3718.000000	5.099925
3716.000000	5.109220
3714.000000	5.099063
3712.000000	5.070938
3710.000000	5.060343
3708.000000	5.085591
3706.000000	5.118354
3704.000000	5.132364
3702.000000	5.129061
3700.000000	5.128524
3698.000000	5.141286
3696.000000	5.153880
3694.000000	5.155617
3692.000000	5.142200
3690.000000	5.110073
3688.000000	5.083338
3686.000000	5.104648
3684.000000	5.156220
3682.000000	5.183027
3680.000000	5.180226
3678.000000	5.156742
3676.000000	5.114510
3674.000000	5.096279
3672.000000	5.115056
3670.000000	5.122210
3668.000000	5.135995
3666.000000	5.180438
3664.000000	5.214381
3662.000000	5.225134
3660.000000	5.226217
3658.000000	5.215454
3656.000000	5.197673
3654.000000	5.195994
3652.000000	5.194913
3650.000000	5.163540
3648.000000	5.141068
3646.000000	5.169183
3644.000000	5.215726
3642.000000	5.241240
3640.000000	5.248839
3638.000000	5.251695
3636.000000	5.251809
3634.000000	5.248613
3632.000000	5.238241
3630.000000	5.206342
3628.000000	5.176791
3626.000000	5.201207
3624.000000	5.247279
3622.000000	5.258568
3620.000000	5.241345
3618.000000	5.228138
3616.000000	5.237008
3614.000000	5.247069
3612.000000	5.243917
3610.000000	5.237401
3608.000000	5.235402
3606.000000	5.248065
3604.000000	5.268524
3602.000000	5.276648
3600.000000	5.274361
3598.000000	5.273302
3596.000000	5.272291
3594.000000	5.270487
3592.000000	5.271943
3590.000000	5.267894
3588.000000	5.252855
3586.000000	5.247620
3584.000000	5.263124
3582.000000	5.279655
3580.000000	5.285377
3578.000000	5.285791
3576.000000	5.285348
3574.000000	5.285392
3572.000000	5.284474
3570.000000	5.276511
3568.000000	5.259625
3566.000000	5.249209
3564.000000	5.258765
3562.000000	5.273721
3560.000000	5.279381
3558.000000	5.280561
3556.000000	5.281442
3554.000000	5.279589
3552.000000	5.276091
3550.000000	5.274830
3548.000000	5.272306
3546.000000	5.266002
3544.000000	5.263831
3542.000000	5.268055
3540.000000	5.271487
3538.000000	5.271127
3536.000000	5.269280
3534.000000	5.267503
3532.000000	5.265129
3530.000000	5.260843
3528.000000	5.255312
3526.000000	5.249895
3524.000000	5.245791
3522.000000	5.243996
3520.000000	5.243620
3518.000000	5.242281
3516.000000	5.238954
3514.000000	5.233963
3512.000000	5.228394
3510.000000	5.222534
3508.000000	5.216605
3506.000000	5.212258
3504.000000	5.207024
3502.000000	5.199769
3500.000000	5.195062
3498.000000	5.191982
3496.000000	5.186967
3494.000000	5.182014
3492.000000	5.177822
3490.000000	5.171803
3488.000000	5.164900
3486.000000	5.158527
3484.000000	5.152701
3482.000000	5.146657
3480.000000	5.141642
3478.000000	5.139548
3476.000000	5.137300
3474.000000	5.132812
3472.000000	5.127755
3470.000000	5.123944
3468.000000	5.122064
3466.000000	5.120738
3464.000000	5.118784
3462.000000	5.115600
3460.000000	5.113149
3458.000000	5.112276
3456.000000	5.110885
3454.000000	5.108851
3452.000000	5.107003
3450.000000	5.104404
3448.000000	5.099334
3446.000000	5.093796
3444.000000	5.091382
3442.000000	5.090419
3440.000000	5.089983
3438.000000	5.090481
3436.000000	5.092273
3434.000000	5.094189
3432.000000	5.096823
3430.000000	5.101791
3428.000000	5.106955
3426.000000	5.111133
3424.000000	5.114279
3422.000000	5.116056
3420.000000	5.118495
3418.000000	5.121701
3416.000000	5.124219
3414.000000	5.126998
3412.000000	5.129884
3410.000000	5.131451
3408.000000	5.131494
3406.000000	5.131613
3404.000000	5.131973
3402.000000	5.132486
3400.000000	5.133618
3398.000000	5.136124
3396.000000	5.139423
3394.000000	5.141315
3392.000000	5.142765
3390.000000	5.144171
3388.000000	5.146802
3386.000000	5.150604
3384.000000	5.153397
3382.000000	5.155485
3380.000000	5.157366
3378.000000	5.158197
3376.000000	5.159599
3374.000000	5.162506
3372.000000	5.165263
3370.000000	5.166102
3368.000000	5.165410
3366.000000	5.166914
3364.000000	5.169992
3362.000000	5.171725
3360.000000	5.172460
3358.000000	5.173173
3356.000000	5.175035
3354.000000	5.178385
3352.000000	5.181303
3350.000000	5.182505
3348.000000	5.183438
3346.000000	5.184992
3344.000000	5.186246
3342.000000	5.187187
3340.000000	5.189969
3338.000000	5.192961
3336.000000	5.193695
3334.000000	5.194182
3332.000000	5.196146
3330.000000	5.198547
3328.000000	5.201240
3326.000000	5.202585
3324.000000	5.202748
3322.000000	5.204035
3320.000000	5.205613
3318.000000	5.207561
3316.000000	5.210566
3314.000000	5.212173
3312.000000	5.212109
3310.000000	5.212639
3308.000000	5.213792
3306.000000	5.214438
3304.000000	5.215437
3302.000000	5.217246
3300.000000	5.219983
3298.000000	5.221735
3296.000000	5.223385
3294.000000	5.225241
3292.000000	5.226093
3290.000000	5.226479
3288.000000	5.228445
3286.000000	5.231492
3284.000000	5.234525
3282.000000	5.237146
3280.000000	5.237740
3278.000000	5.237053
3276.000000	5.237600
3274.000000	5.240148
3272.000000	5.243557
3270.000000	5.246284
3268.000000	5.248307
3266.000000	5.249446
3264.000000	5.251613
3262.000000	5.255255
3260.000000	5.258289
3258.000000	5.259046
3256.000000	5.259744
3254.000000	5.262663
3252.000000	5.265930
3250.000000	5.267761
3248.000000	5.269117
3246.000000	5.271569
3244.000000	5.274608
3242.000000	5.277031
3240.000000	5.279947
3238.000000	5.283701
3236.000000	5.287136
3234.000000	5.288352
3232.000000	5.288996
3230.000000	5.290830
3228.000000	5.293867
3226.000000	5.296281
3224.000000	5.297723
3222.000000	5.300066
3220.000000	5.302554
3218.000000	5.304962
3216.000000	5.308202
3214.000000	5.310633
3212.000000	5.312356
3210.000000	5.315409
3208.000000	5.319294
3206.000000	5.322707
3204.000000	5.325984
3202.000000	5.329366
3200.000000	5.333688
3198.000000	5.338760
3196.000000	5.344177
3194.000000	5.349216
3192.000000	5.352691
3190.000000	5.355367
3188.000000	5.358934
3186.000000	5.363324
3184.000000	5.368620
3182.000000	5.374337
3180.000000	5.379221
3178.000000	5.383054
3176.000000	5.386813
3174.000000	5.390821
3172.000000	5.395112
3170.000000	5.399433
3168.000000	5.403739
3166.000000	5.407801
3164.000000	5.411665
3162.000000	5.416033
3160.000000	5.421855
3158.000000	5.427282
3156.000000	5.430867
3154.000000	5.434330
3152.000000	5.438950
3150.000000	5.443181
3148.000000	5.447244
3146.000000	5.452302
3144.000000	5.456793
3142.000000	5.460700
3140.000000	5.464303
3138.000000	5.467376
3136.000000	5.471557
3134.000000	5.475806
3132.000000	5.478505
3130.000000	5.482615
3128.000000	5.487075
3126.000000	5.489356
3124.000000	5.492365
3122.000000	5.495443
3120.000000	5.496788
3118.000000	5.500045
3116.000000	5.504950
3114.000000	5.509397
3112.000000	5.512823
3110.000000	5.515715
3108.000000	5.520380
3106.000000	5.524702
3104.000000	5.526599
3102.000000	5.529612
3100.000000	5.533990
3098.000000	5.538555
3096.000000	5.542684
3094.000000	5.546634
3092.000000	5.551544
3090.000000	5.556535
3088.000000	5.560346
3086.000000	5.564242
3084.000000	5.568651
3082.000000	5.572654
3080.000000	5.575828
3078.000000	5.579514
3076.000000	5.583201
3074.000000	5.585794
3072.000000	5.588336
3070.000000	5.590377
3068.000000	5.591692
3066.000000	5.592560
3064.000000	5.594577
3062.000000	5.598792
3060.000000	5.603048
3058.000000	5.605747
3056.000000	5.609772
3054.000000	5.615103
3052.000000	5.620803
3050.000000	5.625930
3048.000000	5.629689
3046.000000	5.633049
3044.000000	5.636139
3042.000000	5.638250
3040.000000	5.639098
3038.000000	5.641006
3036.000000	5.643773
3034.000000	5.644989
3032.000000	5.645121
3030.000000	5.644292
3028.000000	5.642376
3026.000000	5.638162
3024.000000	5.630952
3022.000000	5.623086
3020.000000	5.617316
3018.000000	5.616522
3016.000000	5.621844
3014.000000	5.633353
3012.000000	5.650883
3010.000000	5.669286
3008.000000	5.684694
3006.000000	5.696529
3004.000000	5.705263
3002.000000	5.713250
3000.000000	5.720165
2998.000000	5.724260
2996.000000	5.727133
2994.000000	5.730041
2992.000000	5.731567
2990.000000	5.731156
2988.000000	5.729843
2986.000000	5.727870
2984.000000	5.725255
2982.000000	5.721051
2980.000000	5.715033
2978.000000	5.705833
2976.000000	5.691204
2974.000000	5.672557
2972.000000	5.649671
2970.000000	5.618845
2968.000000	5.582077
2966.000000	5.544353
2964.000000	5.513394
2962.000000	5.495437
2960.000000	5.492141
2958.000000	5.501685
2956.000000	5.518672
2954.000000	5.536129
2952.000000	5.550912
2950.000000	5.562245
2948.000000	5.567802
2946.000000	5.564495
2944.000000	5.552110
2942.000000	5.531878
2940.000000	5.503551
2938.000000	5.470106
2936.000000	5.438901
2934.000000	5.412266
2932.000000	5.389083
2930.000000	5.365661
2928.000000	5.342069
2926.000000	5.324389
2924.000000	5.320819
2922.000000	5.336544
2920.000000	5.370811
2918.000000	5.417838
2916.000000	5.471329
2914.000000	5.524351
2912.000000	5.571368
2910.000000	5.609730
2908.000000	5.639924
2906.000000	5.664662
2904.000000	5.685004
2902.000000	5.702987
2900.000000	5.720427
2898.000000	5.735733
2896.000000	5.750017
2894.000000	5.765178
2892.000000	5.780579
2890.000000	5.793299
2888.000000	5.804039
2886.000000	5.814235
2884.000000	5.822268
2882.000000	5.827243
2880.000000	5.829058
2878.000000	5.827238
2876.000000	5.822569
2874.000000	5.814869
2872.000000	5.803613
2870.000000	5.786157
2868.000000	5.760273
2866.000000	5.727805
2864.000000	5.692444
2862.000000	5.662751
2860.000000	5.648400
2858.000000	5.651169
2856.000000	5.665478
2854.000000	5.686511
2852.000000	5.712102
2850.000000	5.740598
2848.000000	5.774266
2846.000000	5.812884
2844.000000	5.850264
2842.000000	5.881049
2840.000000	5.904994
2838.000000	5.923631
2836.000000	5.938665
2834.000000	5.951214
2832.000000	5.961813
2830.000000	5.971137
2828.000000	5.979787
2826.000000	5.987255
2824.000000	5.993920
2822.000000	6.000266
2820.000000	6.005839
2818.000000	6.010448
2816.000000	6.015008
2814.000000	6.019329
2812.000000	6.024702
2810.000000	6.029911
2808.000000	6.032646
2806.000000	6.034532
2804.000000	6.037588
2802.000000	6.040619
2800.000000	6.043962
2798.000000	6.046905
2796.000000	6.049638
2794.000000	6.052944
2792.000000	6.055899
2790.000000	6.058863
2788.000000	6.063526
2786.000000	6.068790
2784.000000	6.072822
2782.000000	6.078103
2780.000000	6.084376
2778.000000	6.089048
2776.000000	6.093340
2774.000000	6.097533
2772.000000	6.101079
2770.000000	6.104429
2768.000000	6.108297
2766.000000	6.112136
2764.000000	6.114822
2762.000000	6.116152
2760.000000	6.119251
2758.000000	6.122772
2756.000000	6.125300
2754.000000	6.127301
2752.000000	6.128903
2750.000000	6.131184
2748.000000	6.133662
2746.000000	6.135950
2744.000000	6.137846
2742.000000	6.138796
2740.000000	6.140443
2738.000000	6.142522
2736.000000	6.143600
2734.000000	6.145608
2732.000000	6.148783
2730.000000	6.150339
2728.000000	6.152496
2726.000000	6.154231
2724.000000	6.155466
2722.000000	6.156615
2720.000000	6.157301
2718.000000	6.158029
2716.000000	6.160254
2714.000000	6.162375
2712.000000	6.163116
2710.000000	6.163069
2708.000000	6.163639
2706.000000	6.163561
2704.000000	6.163981
2702.000000	6.165470
2700.000000	6.166077
2698.000000	6.167362
2696.000000	6.170092
2694.000000	6.172946
2692.000000	6.175258
2690.000000	6.177041
2688.000000	6.178748
2686.000000	6.180203
2684.000000	6.181403
2682.000000	6.182522
2680.000000	6.184571
2678.000000	6.185495
2676.000000	6.185603
2674.000000	6.185492
2672.000000	6.185512
2670.000000	6.186817
2668.000000	6.188220
2666.000000	6.189274
2664.000000	6.190145
2662.000000	6.191433
2660.000000	6.192438
2658.000000	6.192198
2656.000000	6.192497
2654.000000	6.194929
2652.000000	6.196842
2650.000000	6.197924
2648.000000	6.200768
2646.000000	6.203107
2644.000000	6.204102
2642.000000	6.204486
2640.000000	6.205814
2638.000000	6.208167
2636.000000	6.209960
2634.000000	6.211761
2632.000000	6.213411
2630.000000	6.214436
2628.000000	6.215728
2626.000000	6.217662
2624.000000	6.219155
2622.000000	6.220776
2620.000000	6.221919
2618.000000	6.221386
2616.000000	6.221769
2614.000000	6.223583
2612.000000	6.225947
2610.000000	6.228101
2608.000000	6.229383
2606.000000	6.228385
2604.000000	6.228113
2602.000000	6.229959
2600.000000	6.231290
2598.000000	6.230047
2596.000000	6.228917
2594.000000	6.229345
2592.000000	6.229986
2590.000000	6.231866
2588.000000	6.234424
2586.000000	6.236706
2584.000000	6.239570
2582.000000	6.243272
2580.000000	6.247529
2578.000000	6.251038
2576.000000	6.253310
2574.000000	6.255620
2572.000000	6.258867
2570.000000	6.260852
2568.000000	6.262125
2566.000000	6.264079
2564.000000	6.266121
2562.000000	6.267769
2560.000000	6.270089
2558.000000	6.270981
2556.000000	6.271602
2554.000000	6.272961
2552.000000	6.274486
2550.000000	6.276802
2548.000000	6.278931
2546.000000	6.279954
2544.000000	6.281588
2542.000000	6.283336
2540.000000	6.284886
2538.000000	6.286389
2536.000000	6.287255
2534.000000	6.289045
2532.000000	6.291770
2530.000000	6.293428
2528.000000	6.294447
2526.000000	6.296116
2524.000000	6.297786
2522.000000	6.298246
2520.000000	6.299750
2518.000000	6.302016
2516.000000	6.303316
2514.000000	6.304224
2512.000000	6.306772
2510.000000	6.309022
2508.000000	6.310502
2506.000000	6.311322
2504.000000	6.311949
2502.000000	6.313737
2500.000000	6.315309
2498.000000	6.315962
2496.000000	6.317210
2494.000000	6.319103
2492.000000	6.320944
2490.000000	6.322458
2488.000000	6.324215
2486.000000	6.326904
2484.000000	6.329282
2482.000000	6.330166
2480.000000	6.330267
2478.000000	6.331392
2476.000000	6.333442
2474.000000	6.334266
2472.000000	6.334575
2470.000000	6.335693
2468.000000	6.337348
2466.000000	6.339201
2464.000000	6.340025
2462.000000	6.340033
2460.000000	6.340363
2458.000000	6.341317
2456.000000	6.342644
2454.000000	6.344324
2452.000000	6.346088
2450.000000	6.347157
2448.000000	6.347356
2446.000000	6.347508
2444.000000	6.348104
2442.000000	6.348901
2440.000000	6.350749
2438.000000	6.352278
2436.000000	6.353286
2434.000000	6.354654
2432.000000	6.355224
2430.000000	6.355243
2428.000000	6.355400
2426.000000	6.356292
2424.000000	6.358205
2422.000000	6.359058
2420.000000	6.358839
2418.000000	6.359989
2416.000000	6.362254
2414.000000	6.363724
2412.000000	6.364240
2410.000000	6.364604
2408.000000	6.364713
2406.000000	6.364224
2404.000000	6.365015
2402.000000	6.366532
2400.000000	6.367651
2398.000000	6.368527
2396.000000	6.370229
2394.000000	6.372376
2392.000000	6.374050
2390.000000	6.374961
2388.000000	6.375355
2386.000000	6.375941
2384.000000	6.376514
2382.000000	6.376168
2380.000000	6.373509
2378.000000	6.366224
2376.000000	6.355259
2374.000000	6.342717
2372.000000	6.327477
2370.000000	6.308848
2368.000000	6.290326
2366.000000	6.275729
2364.000000	6.265760
2362.000000	6.259740
2360.000000	6.259387
2358.000000	6.266901
2356.000000	6.282835
2354.000000	6.305103
2352.000000	6.329220
2350.000000	6.351378
2348.000000	6.358906
2346.000000	6.345467
2344.000000	6.321741
2342.000000	6.296773
2340.000000	6.277138
2338.000000	6.270711
2336.000000	6.277079
2334.000000	6.287008
2332.000000	6.295024
2330.000000	6.303163
2328.000000	6.312145
2326.000000	6.318578
2324.000000	6.326465
2322.000000	6.336921
2320.000000	6.346214
2318.000000	6.354230
2316.000000	6.360655
2314.000000	6.366867
2312.000000	6.373034
2310.000000	6.377299
2308.000000	6.380684
2306.000000	6.384536
2304.000000	6.388383
2302.000000	6.390744
2300.000000	6.391462
2298.000000	6.392551
2296.000000	6.394362
2294.000000	6.394035
2292.000000	6.393686
2290.000000	6.395710
2288.000000	6.397233
2286.000000	6.397373
2284.000000	6.396986
2282.000000	6.396206
2280.000000	6.396401
2278.000000	6.396811
2276.000000	6.396857
2274.000000	6.396792
2272.000000	6.396464
2270.000000	6.396013
2268.000000	6.396183
2266.000000	6.396881
2264.000000	6.397687
2262.000000	6.398458
2260.000000	6.398826
2258.000000	6.398138
2256.000000	6.398706
2254.000000	6.399740
2252.000000	6.400334
2250.000000	6.400863
2248.000000	6.401408
2246.000000	6.401651
2244.000000	6.402929
2242.000000	6.405239
2240.000000	6.406829
2238.000000	6.407740
2236.000000	6.409120
2234.000000	6.411209
2232.000000	6.414265
2230.000000	6.415990
2228.000000	6.415871
2226.000000	6.416852
2224.000000	6.419094
2222.000000	6.421075
2220.000000	6.423596
2218.000000	6.423917
2216.000000	6.423386
2214.000000	6.424865
2212.000000	6.426283
2210.000000	6.427686
2208.000000	6.429058
2206.000000	6.429411
2204.000000	6.430387
2202.000000	6.431311
2200.000000	6.432053
2198.000000	6.433305
2196.000000	6.433918
2194.000000	6.434254
2192.000000	6.435048
2190.000000	6.434959
2188.000000	6.435843
2186.000000	6.436653
2184.000000	6.436830
2182.000000	6.437498
2180.000000	6.439271
2178.000000	6.440325
2176.000000	6.439707
2174.000000	6.439582
2172.000000	6.439855
2170.000000	6.439458
2168.000000	6.439987
2166.000000	6.441970
2164.000000	6.443010
2162.000000	6.443954
2160.000000	6.446045
2158.000000	6.446648
2156.000000	6.446446
2154.000000	6.447299
2152.000000	6.447740
2150.000000	6.448332
2148.000000	6.449458
2146.000000	6.450392
2144.000000	6.450017
2142.000000	6.449458
2140.000000	6.449649
2138.000000	6.451204
2136.000000	6.453298
2134.000000	6.453717
2132.000000	6.453611
2130.000000	6.452745
2128.000000	6.453167
2126.000000	6.455185
2124.000000	6.456764
2122.000000	6.457832
2120.000000	6.458546
2118.000000	6.458989
2116.000000	6.459869
2114.000000	6.460773
2112.000000	6.462361
2110.000000	6.463016
2108.000000	6.463865
2106.000000	6.464532
2104.000000	6.466393
2102.000000	6.467382
2100.000000	6.468647
2098.000000	6.469539
2096.000000	6.469052
2094.000000	6.470914
2092.000000	6.473827
2090.000000	6.474543
2088.000000	6.476875
2086.000000	6.480295
2084.000000	6.480187
2082.000000	6.477851
2080.000000	6.477171
2078.000000	6.480187
2076.000000	6.484963
2074.000000	6.488881
2072.000000	6.491175
2070.000000	6.492722
2068.000000	6.492173
2066.000000	6.491927
2064.000000	6.491606
2062.000000	6.494774
2060.000000	6.500745
2058.000000	6.504488
2056.000000	6.505213
2054.000000	6.504540
2052.000000	6.505634
2050.000000	6.505994
2048.000000	6.507408
2046.000000	6.509722
2044.000000	6.512017
2042.000000	6.514079
2040.000000	6.514243
2038.000000	6.514317
2036.000000	6.516391
2034.000000	6.518007
2032.000000	6.518315
2030.000000	6.517709
2028.000000	6.517524
2026.000000	6.520771
2024.000000	6.524253
2022.000000	6.524518
2020.000000	6.524066
2018.000000	6.523121
2016.000000	6.523551
2014.000000	6.526797
2012.000000	6.530514
2010.000000	6.532499
2008.000000	6.533667
2006.000000	6.535314
2004.000000	6.536245
2002.000000	6.536010
2000.000000	6.536447
1998.000000	6.537233
1996.000000	6.538723
1994.000000	6.537156
1992.000000	6.531669
1990.000000	6.532507
1988.000000	6.537304
1986.000000	6.539430
1984.000000	6.540728
1982.000000	6.541745
1980.000000	6.542912
1978.000000	6.540986
1976.000000	6.537793
1974.000000	6.536704
1972.000000	6.536840
1970.000000	6.535543
1968.000000	6.530885
1966.000000	6.527197
1964.000000	6.529003
1962.000000	6.528801
1960.000000	6.521237
1958.000000	6.515715
1956.000000	6.520947
1954.000000	6.524804
1952.000000	6.523824
1950.000000	6.521068
1948.000000	6.518261
1946.000000	6.516056
1944.000000	6.510308
1942.000000	6.504358
1940.000000	6.509585
1938.000000	6.513934
1936.000000	6.512594
1934.000000	6.510364
1932.000000	6.508201
1930.000000	6.505972
1928.000000	6.503699
1926.000000	6.501261
1924.000000	6.493735
1922.000000	6.486788
1920.000000	6.482485
1918.000000	6.470575
1916.000000	6.472230
1914.000000	6.481587
1912.000000	6.480869
1910.000000	6.475704
1908.000000	6.472171
1906.000000	6.469803
1904.000000	6.465961
1902.000000	6.462115
1900.000000	6.459493
1898.000000	6.456518
1896.000000	6.451169
1894.000000	6.447064
1892.000000	6.444427
1890.000000	6.435858
1888.000000	6.433963
1886.000000	6.441444
1884.000000	6.443242
1882.000000	6.442464
1880.000000	6.441950
1878.000000	6.440744
1876.000000	6.440002
1874.000000	6.438773
1872.000000	6.431766
1870.000000	6.410274
1868.000000	6.396469
1866.000000	6.410901
1864.000000	6.424926
1862.000000	6.426682
1860.000000	6.423650
1858.000000	6.422285
1856.000000	6.422144
1854.000000	6.420192
1852.000000	6.416031
1850.000000	6.412393
1848.000000	6.404690
1846.000000	6.380228
1844.000000	6.347432
1842.000000	6.362814
1840.000000	6.392584
1838.000000	6.393167
1836.000000	6.388271
1834.000000	6.385994
1832.000000	6.373484
1830.000000	6.347670
1828.000000	6.344695
1826.000000	6.347376
1824.000000	6.342943
1822.000000	6.352492
1820.000000	6.356246
1818.000000	6.350679
1816.000000	6.345318
1814.000000	6.340540
1812.000000	6.328312
1810.000000	6.318866
1808.000000	6.319104
1806.000000	6.319555
1804.000000	6.310439
1802.000000	6.291817
1800.000000	6.277092
1798.000000	6.278014
1796.000000	6.276436
1794.000000	6.247102
1792.000000	6.211075
1790.000000	6.225374
1788.000000	6.250212
1786.000000	6.242411
1784.000000	6.228111
1782.000000	6.223340
1780.000000	6.216194
1778.000000	6.214353
1776.000000	6.203204
1774.000000	6.155881
1772.000000	6.105977
1770.000000	6.123023
1768.000000	6.145076
1766.000000	6.159652
1764.000000	6.162878
1762.000000	6.134052
1760.000000	6.129205
1758.000000	6.132669
1756.000000	6.119880
1754.000000	6.114562
1752.000000	6.073912
1750.000000	6.039436
1748.000000	6.051917
1746.000000	6.064082
1744.000000	6.060073
1742.000000	6.041452
1740.000000	6.013040
1738.000000	6.007573
1736.000000	5.976091
1734.000000	5.889386
1732.000000	5.913259
1730.000000	5.987745
1728.000000	6.011257
1726.000000	6.016023
1724.000000	6.009007
1722.000000	6.000430
1720.000000	5.961754
1718.000000	5.871269
1716.000000	5.848428
1714.000000	5.910849
1712.000000	5.952792
1710.000000	5.959142
1708.000000	5.940531
1706.000000	5.912295
1704.000000	5.895951
1702.000000	5.844988
1700.000000	5.755954
1698.000000	5.768286
1696.000000	5.765439
1694.000000	5.806222
1692.000000	5.894976
1690.000000	5.904726
1688.000000	5.884560
1686.000000	5.799995
1684.000000	5.713430
1682.000000	5.781963
1680.000000	5.863884
1678.000000	5.868943
1676.000000	5.827731
1674.000000	5.805663
1672.000000	5.821054
1670.000000	5.795607
1668.000000	5.794204
1666.000000	5.827684
1664.000000	5.819542
1662.000000	5.796272
1660.000000	5.811469
1658.000000	5.817106
1656.000000	5.764545
1654.000000	5.605155
1652.000000	5.537694
1650.000000	5.668904
1648.000000	5.708414
1646.000000	5.664999
1644.000000	5.696498
1642.000000	5.741497
1640.000000	5.737591
1638.000000	5.693997
1636.000000	5.611357
1634.000000	5.608294
1632.000000	5.673386
1630.000000	5.680866
1628.000000	5.652111
1626.000000	5.627813
1624.000000	5.591683
1622.000000	5.564447
1620.000000	5.555935
1618.000000	5.488671
1616.000000	5.423201
1614.000000	5.445813
1612.000000	5.448410
1610.000000	5.408034
1608.000000	5.380793
1606.000000	5.377326
1604.000000	5.389097
1602.000000	5.402887
1600.000000	5.417587
1598.000000	5.430382
1596.000000	5.440142
1594.000000	5.446526
1592.000000	5.452218
1590.000000	5.453299
1588.000000	5.452235
1586.000000	5.449996
1584.000000	5.446143
1582.000000	5.440175
1580.000000	5.433550
1578.000000	5.386584
1576.000000	5.317875
1574.000000	5.354361
1572.000000	5.402282
1570.000000	5.370167
1568.000000	5.363890
1566.000000	5.378999
1564.000000	5.368762
1562.000000	5.310141
1560.000000	5.167619
1558.000000	5.111311
1556.000000	5.209180
1554.000000	5.278603
1552.000000	5.322814
1550.000000	5.349904
1548.000000	5.362971
1546.000000	5.358025
1544.000000	5.328769
1542.000000	5.277206
1540.000000	5.222508
1538.000000	5.276800
1536.000000	5.389733
1534.000000	5.406164
1532.000000	5.416502
1530.000000	5.448600
1528.000000	5.444036
1526.000000	5.419459
1524.000000	5.397841
1522.000000	5.346281
1520.000000	5.332480
1518.000000	5.369585
1516.000000	5.375866
1514.000000	5.380909
1512.000000	5.372564
1510.000000	5.345793
1508.000000	5.255995
1506.000000	5.172475
1504.000000	5.210492
1502.000000	5.222493
1500.000000	5.097722
1498.000000	4.891672
1496.000000	4.704704
1494.000000	4.655014
1492.000000	4.708695
1490.000000	4.799211
1488.000000	4.919395
1486.000000	5.033635
1484.000000	5.114079
1482.000000	5.152868
1480.000000	5.171007
1478.000000	5.171973
1476.000000	5.146455
1474.000000	5.101422
1472.000000	5.073163
1470.000000	5.102498
1468.000000	5.117281
1466.000000	5.079556
1464.000000	5.045566
1462.000000	5.040841
1460.000000	4.994389
1458.000000	4.870953
1456.000000	4.779542
1454.000000	4.784721
1452.000000	4.775149
1450.000000	4.765592
1448.000000	4.802127
1446.000000	4.867893
1444.000000	4.913134
1442.000000	4.926361
1440.000000	4.922685
1438.000000	4.887969
1436.000000	4.863703
1434.000000	4.903794
1432.000000	4.927420
1430.000000	4.922164
1428.000000	4.923936
1426.000000	4.927627
1424.000000	4.920048
1422.000000	4.906674
1420.000000	4.861880
1418.000000	4.843257
1416.000000	4.872061
1414.000000	4.879096
1412.000000	4.861432
1410.000000	4.832118
1408.000000	4.791107
1406.000000	4.737073
1404.000000	4.698216
1402.000000	4.694605
1400.000000	4.701429
1398.000000	4.721769
1396.000000	4.746874
1394.000000	4.763970
1392.000000	4.793532
1390.000000	4.805038
1388.000000	4.783498
1386.000000	4.763131
1384.000000	4.761199
1382.000000	4.768555
1380.000000	4.777908
1378.000000	4.776456
1376.000000	4.764961
1374.000000	4.750688
1372.000000	4.750832
1370.000000	4.750468
1368.000000	4.741224
1366.000000	4.732439
1364.000000	4.716653
1362.000000	4.700320
1360.000000	4.697888
1358.000000	4.695694
1356.000000	4.685650
1354.000000	4.672848
1352.000000	4.660966
1350.000000	4.648026
1348.000000	4.635349
1346.000000	4.622196
1344.000000	4.608104
1342.000000	4.590693
1340.000000	4.571640
1338.000000	4.561066
1336.000000	4.559242
1334.000000	4.556813
1332.000000	4.549500
1330.000000	4.538723
1328.000000	4.526769
1326.000000	4.512021
1324.000000	4.496395
1322.000000	4.479966
1320.000000	4.461228
1318.000000	4.442222
1316.000000	4.425108
1314.000000	4.407314
1312.000000	4.389079
1310.000000	4.370131
1308.000000	4.350473
1306.000000	4.330155
1304.000000	4.309366
1302.000000	4.289100
1300.000000	4.269078
1298.000000	4.248178
1296.000000	4.227798
1294.000000	4.205190
1292.000000	4.181836
1290.000000	4.157351
1288.000000	4.130931
1286.000000	4.105324
1284.000000	4.080816
1282.000000	4.054071
1280.000000	4.025658
1278.000000	3.995496
1276.000000	3.962786
1274.000000	3.923967
1272.000000	3.876501
1270.000000	3.818394
1268.000000	3.744361
1266.000000	3.651772
1264.000000	3.550372
1262.000000	3.462039
1260.000000	3.412171
1258.000000	3.407894
1256.000000	3.434668
1254.000000	3.465367
1252.000000	3.479676
1250.000000	3.473381
1248.000000	3.453179
1246.000000	3.425393
1244.000000	3.393841
1242.000000	3.360522
1240.000000	3.327302
1238.000000	3.294455
1236.000000	3.263613
1234.000000	3.233216
1232.000000	3.203651
1230.000000	3.174487
1228.000000	3.145081
1226.000000	3.115330
1224.000000	3.086177
1222.000000	3.055734
1220.000000	3.023030
1218.000000	2.989079
1216.000000	2.956407
1214.000000	2.924336
1212.000000	2.893062
1210.000000	2.861973
1208.000000	2.832815
1206.000000	2.806819
1204.000000	2.781868
1202.000000	2.755524
1200.000000	2.730051
1198.000000	2.705159
1196.000000	2.679560
1194.000000	2.653220
1192.000000	2.625882
1190.000000	2.597286
1188.000000	2.568494
1186.000000	2.538197
1184.000000	2.503023
1182.000000	2.458128
1180.000000	2.418118
1178.000000	2.397608
1176.000000	2.382746
1174.000000	2.360137
1172.000000	2.333140
1170.000000	2.304481
1168.000000	2.274494
1166.000000	2.243767
1164.000000	2.213351
1162.000000	2.183962
1160.000000	2.155510
1158.000000	2.127218
1156.000000	2.099725
1154.000000	2.072791
1152.000000	2.046192
1150.000000	2.020644
1148.000000	1.994153
1146.000000	1.965829
1144.000000	1.938466
1142.000000	1.913954
1140.000000	1.893451
1138.000000	1.872999
1136.000000	1.852259
1134.000000	1.828872
1132.000000	1.803217
1130.000000	1.776996
1128.000000	1.750294
1126.000000	1.724452
1124.000000	1.699092
1122.000000	1.672789
1120.000000	1.646101
1118.000000	1.618494
1116.000000	1.589740
1114.000000	1.559098
1112.000000	1.528767
1110.000000	1.500720
1108.000000	1.473187
1106.000000	1.445776
1104.000000	1.419928
1102.000000	1.394738
1100.000000	1.369399
1098.000000	1.345040
1096.000000	1.321334
1094.000000	1.298172
1092.000000	1.275692
1090.000000	1.254269
1088.000000	1.235134
1086.000000	1.215860
1084.000000	1.195942
1082.000000	1.176150
1080.000000	1.157163
1078.000000	1.140571
1076.000000	1.126482
1074.000000	1.113610
1072.000000	1.101041
1070.000000	1.087889
1068.000000	1.075069
1066.000000	1.062668
1064.000000	1.050006
1062.000000	1.037207
1060.000000	1.024177
1058.000000	1.009786
1056.000000	0.990142
1054.000000	0.962746
1052.000000	0.933469
1050.000000	0.913588
1048.000000	0.909957
1046.000000	0.916243
1044.000000	0.918099
1042.000000	0.911435
1040.000000	0.901641
1038.000000	0.891044
1036.000000	0.880695
1034.000000	0.868957
1032.000000	0.854376
1030.000000	0.838012
1028.000000	0.822159
1026.000000	0.807320
1024.000000	0.793077
1022.000000	0.777006
1020.000000	0.761436
1018.000000	0.748269
1016.000000	0.737540
1014.000000	0.728910
1012.000000	0.721032
1010.000000	0.713902
1008.000000	0.706943
1006.000000	0.698914
1004.000000	0.689147
1002.000000	0.679945
1000.000000	0.669155
