PE IR       SUBTECH     SPECTRUM    ASCII       PEDS        4.00        
   -1
TE110A_041_80K_AFTER_110K_2MIN.ASC
20/05/14
13:09:41.00
20/05/14
13:09:41.00
Administrator
TE110A.Thursday, May 14 2020, 010.
1000.000000
#HDR
-1
-1
#GR
cm-1
A
1.0
0.0
6000.000000
-2.000000
2501
8
1.238071
1.185500
#DATA
6000.000000	1.217757
5998.000000	1.217958
5996.000000	1.218044
5994.000000	1.218046
5992.000000	1.217750
5990.000000	1.217435
5988.000000	1.217311
5986.000000	1.217352
5984.000000	1.217435
5982.000000	1.217554
5980.000000	1.217401
5978.000000	1.217410
5976.000000	1.217500
5974.000000	1.217545
5972.000000	1.217582
5970.000000	1.217056
5968.000000	1.216830
5966.000000	1.216972
5964.000000	1.217237
5962.000000	1.217299
5960.000000	1.217040
5958.000000	1.216833
5956.000000	1.216833
5954.000000	1.216968
5952.000000	1.217190
5950.000000	1.217264
5948.000000	1.216970
5946.000000	1.216512
5944.000000	1.216399
5942.000000	1.216513
5940.000000	1.216643
5938.000000	1.216544
5936.000000	1.216273
5934.000000	1.216061
5932.000000	1.215961
5930.000000	1.216224
5928.000000	1.216506
5926.000000	1.216524
5924.000000	1.216398
5922.000000	1.216159
5920.000000	1.216053
5918.000000	1.215944
5916.000000	1.215928
5914.000000	1.216005
5912.000000	1.215944
5910.000000	1.215847
5908.000000	1.215709
5906.000000	1.215717
5904.000000	1.215763
5902.000000	1.215899
5900.000000	1.216015
5898.000000	1.215896
5896.000000	1.215764
5894.000000	1.215639
5892.000000	1.215641
5890.000000	1.215568
5888.000000	1.215619
5886.000000	1.215669
5884.000000	1.215624
5882.000000	1.215454
5880.000000	1.215324
5878.000000	1.215391
5876.000000	1.215348
5874.000000	1.215182
5872.000000	1.215127
5870.000000	1.215133
5868.000000	1.215194
5866.000000	1.215082
5864.000000	1.214670
5862.000000	1.214465
5860.000000	1.214847
5858.000000	1.215186
5856.000000	1.215145
5854.000000	1.214779
5852.000000	1.214536
5850.000000	1.214656
5848.000000	1.214824
5846.000000	1.214756
5844.000000	1.214727
5842.000000	1.214805
5840.000000	1.214921
5838.000000	1.215105
5836.000000	1.215144
5834.000000	1.214999
5832.000000	1.215075
5830.000000	1.215264
5828.000000	1.215444
5826.000000	1.215318
5824.000000	1.214824
5822.000000	1.214481
5820.000000	1.214606
5818.000000	1.214785
5816.000000	1.214941
5814.000000	1.214979
5812.000000	1.214846
5810.000000	1.214610
5808.000000	1.214483
5806.000000	1.214531
5804.000000	1.214805
5802.000000	1.214983
5800.000000	1.214931
5798.000000	1.214642
5796.000000	1.214359
5794.000000	1.214317
5792.000000	1.214309
5790.000000	1.214082
5788.000000	1.213791
5786.000000	1.213809
5784.000000	1.214192
5782.000000	1.214391
5780.000000	1.214280
5778.000000	1.214050
5776.000000	1.213980
5774.000000	1.214082
5772.000000	1.213985
5770.000000	1.213754
5768.000000	1.213728
5766.000000	1.213903
5764.000000	1.213931
5762.000000	1.213881
5760.000000	1.213803
5758.000000	1.213825
5756.000000	1.213746
5754.000000	1.213554
5752.000000	1.213589
5750.000000	1.213601
5748.000000	1.213574
5746.000000	1.213316
5744.000000	1.213240
5742.000000	1.213420
5740.000000	1.213760
5738.000000	1.213841
5736.000000	1.213516
5734.000000	1.213089
5732.000000	1.212819
5730.000000	1.213019
5728.000000	1.213381
5726.000000	1.213568
5724.000000	1.213384
5722.000000	1.213186
5720.000000	1.213047
5718.000000	1.212959
5716.000000	1.212973
5714.000000	1.213143
5712.000000	1.213303
5710.000000	1.213220
5708.000000	1.213180
5706.000000	1.213156
5704.000000	1.213137
5702.000000	1.213035
5700.000000	1.212958
5698.000000	1.212794
5696.000000	1.212579
5694.000000	1.212557
5692.000000	1.212575
5690.000000	1.212698
5688.000000	1.212769
5686.000000	1.212889
5684.000000	1.212889
5682.000000	1.212711
5680.000000	1.212542
5678.000000	1.212404
5676.000000	1.212379
5674.000000	1.212465
5672.000000	1.212654
5670.000000	1.212786
5668.000000	1.212802
5666.000000	1.212443
5664.000000	1.212032
5662.000000	1.211918
5660.000000	1.212052
5658.000000	1.212178
5656.000000	1.212232
5654.000000	1.212378
5652.000000	1.212488
5650.000000	1.212356
5648.000000	1.212130
5646.000000	1.212100
5644.000000	1.212166
5642.000000	1.212136
5640.000000	1.212067
5638.000000	1.212072
5636.000000	1.212075
5634.000000	1.211961
5632.000000	1.211855
5630.000000	1.211855
5628.000000	1.211983
5626.000000	1.212105
5624.000000	1.212230
5622.000000	1.212304
5620.000000	1.212400
5618.000000	1.212416
5616.000000	1.212167
5614.000000	1.211963
5612.000000	1.211965
5610.000000	1.212051
5608.000000	1.212095
5606.000000	1.211967
5604.000000	1.211851
5602.000000	1.211683
5600.000000	1.211651
5598.000000	1.211809
5596.000000	1.211863
5594.000000	1.211606
5592.000000	1.211357
5590.000000	1.211234
5588.000000	1.211145
5586.000000	1.211034
5584.000000	1.210980
5582.000000	1.210935
5580.000000	1.211040
5578.000000	1.211177
5576.000000	1.211377
5574.000000	1.211402
5572.000000	1.211168
5570.000000	1.210872
5568.000000	1.210760
5566.000000	1.210893
5564.000000	1.211065
5562.000000	1.211068
5560.000000	1.210948
5558.000000	1.210937
5556.000000	1.211026
5554.000000	1.211102
5552.000000	1.211068
5550.000000	1.211005
5548.000000	1.210973
5546.000000	1.210962
5544.000000	1.210890
5542.000000	1.210843
5540.000000	1.210788
5538.000000	1.210800
5536.000000	1.210835
5534.000000	1.210992
5532.000000	1.211019
5530.000000	1.210910
5528.000000	1.210644
5526.000000	1.210382
5524.000000	1.210279
5522.000000	1.210430
5520.000000	1.210595
5518.000000	1.210520
5516.000000	1.210474
5514.000000	1.210494
5512.000000	1.210566
5510.000000	1.210449
5508.000000	1.210437
5506.000000	1.210498
5504.000000	1.210427
5502.000000	1.210162
5500.000000	1.210019
5498.000000	1.210102
5496.000000	1.210185
5494.000000	1.210026
5492.000000	1.209783
5490.000000	1.209754
5488.000000	1.210044
5486.000000	1.210385
5484.000000	1.210607
5482.000000	1.210395
5480.000000	1.210002
5478.000000	1.209595
5476.000000	1.209525
5474.000000	1.209700
5472.000000	1.209701
5470.000000	1.209504
5468.000000	1.209289
5466.000000	1.209381
5464.000000	1.209427
5462.000000	1.209391
5460.000000	1.209417
5458.000000	1.209486
5456.000000	1.209543
5454.000000	1.209481
5452.000000	1.209364
5450.000000	1.209332
5448.000000	1.209249
5446.000000	1.209186
5444.000000	1.209156
5442.000000	1.209388
5440.000000	1.209597
5438.000000	1.209279
5436.000000	1.208894
5434.000000	1.208887
5432.000000	1.209066
5430.000000	1.209218
5428.000000	1.209419
5426.000000	1.209828
5424.000000	1.209968
5422.000000	1.209718
5420.000000	1.209336
5418.000000	1.208869
5416.000000	1.208527
5414.000000	1.208469
5412.000000	1.208737
5410.000000	1.209127
5408.000000	1.209377
5406.000000	1.209478
5404.000000	1.209360
5402.000000	1.209109
5400.000000	1.208717
5398.000000	1.208346
5396.000000	1.208292
5394.000000	1.208768
5392.000000	1.209301
5390.000000	1.209334
5388.000000	1.208941
5386.000000	1.208753
5384.000000	1.208817
5382.000000	1.208770
5380.000000	1.208464
5378.000000	1.208290
5376.000000	1.208329
5374.000000	1.208570
5372.000000	1.208729
5370.000000	1.208734
5368.000000	1.208581
5366.000000	1.208455
5364.000000	1.208441
5362.000000	1.208483
5360.000000	1.208582
5358.000000	1.208542
5356.000000	1.208312
5354.000000	1.208266
5352.000000	1.208399
5350.000000	1.208452
5348.000000	1.208025
5346.000000	1.207907
5344.000000	1.208126
5342.000000	1.208172
5340.000000	1.207994
5338.000000	1.208025
5336.000000	1.208407
5334.000000	1.208547
5332.000000	1.208417
5330.000000	1.208316
5328.000000	1.208370
5326.000000	1.208539
5324.000000	1.208619
5322.000000	1.208471
5320.000000	1.208257
5318.000000	1.208162
5316.000000	1.208285
5314.000000	1.208373
5312.000000	1.208289
5310.000000	1.208048
5308.000000	1.207970
5306.000000	1.207997
5304.000000	1.207936
5302.000000	1.207729
5300.000000	1.207767
5298.000000	1.207925
5296.000000	1.207946
5294.000000	1.207770
5292.000000	1.207728
5290.000000	1.207837
5288.000000	1.207901
5286.000000	1.207878
5284.000000	1.207896
5282.000000	1.207868
5280.000000	1.207851
5278.000000	1.207712
5276.000000	1.207606
5274.000000	1.207580
5272.000000	1.207583
5270.000000	1.207449
5268.000000	1.207146
5266.000000	1.206914
5264.000000	1.206924
5262.000000	1.207150
5260.000000	1.207371
5258.000000	1.207314
5256.000000	1.207179
5254.000000	1.207266
5252.000000	1.207273
5250.000000	1.207129
5248.000000	1.207124
5246.000000	1.207408
5244.000000	1.207604
5242.000000	1.207547
5240.000000	1.207387
5238.000000	1.207313
5236.000000	1.207339
5234.000000	1.207438
5232.000000	1.207566
5230.000000	1.207553
5228.000000	1.207392
5226.000000	1.207329
5224.000000	1.207517
5222.000000	1.207627
5220.000000	1.207510
5218.000000	1.207380
5216.000000	1.207375
5214.000000	1.207307
5212.000000	1.207104
5210.000000	1.206737
5208.000000	1.206569
5206.000000	1.206909
5204.000000	1.207461
5202.000000	1.207517
5200.000000	1.207156
5198.000000	1.206900
5196.000000	1.206969
5194.000000	1.207081
5192.000000	1.207050
5190.000000	1.206961
5188.000000	1.206876
5186.000000	1.206824
5184.000000	1.206766
5182.000000	1.206738
5180.000000	1.206779
5178.000000	1.206815
5176.000000	1.206855
5174.000000	1.206853
5172.000000	1.206864
5170.000000	1.207015
5168.000000	1.207172
5166.000000	1.207137
5164.000000	1.207002
5162.000000	1.206933
5160.000000	1.207021
5158.000000	1.207002
5156.000000	1.207022
5154.000000	1.206988
5152.000000	1.206929
5150.000000	1.206952
5148.000000	1.207052
5146.000000	1.207134
5144.000000	1.207141
5142.000000	1.207130
5140.000000	1.207067
5138.000000	1.206968
5136.000000	1.206984
5134.000000	1.207117
5132.000000	1.207212
5130.000000	1.207176
5128.000000	1.207021
5126.000000	1.206967
5124.000000	1.207081
5122.000000	1.207171
5120.000000	1.207065
5118.000000	1.206890
5116.000000	1.206732
5114.000000	1.206600
5112.000000	1.206593
5110.000000	1.206800
5108.000000	1.206885
5106.000000	1.206731
5104.000000	1.206614
5102.000000	1.206667
5100.000000	1.206705
5098.000000	1.206625
5096.000000	1.206544
5094.000000	1.206511
5092.000000	1.206573
5090.000000	1.206670
5088.000000	1.206757
5086.000000	1.206817
5084.000000	1.206811
5082.000000	1.206778
5080.000000	1.206790
5078.000000	1.206823
5076.000000	1.206712
5074.000000	1.206555
5072.000000	1.206528
5070.000000	1.206595
5068.000000	1.206679
5066.000000	1.206668
5064.000000	1.206607
5062.000000	1.206665
5060.000000	1.206829
5058.000000	1.206862
5056.000000	1.206722
5054.000000	1.206727
5052.000000	1.206875
5050.000000	1.207016
5048.000000	1.206874
5046.000000	1.206669
5044.000000	1.206595
5042.000000	1.206694
5040.000000	1.206783
5038.000000	1.206854
5036.000000	1.206901
5034.000000	1.206765
5032.000000	1.206640
5030.000000	1.206751
5028.000000	1.206943
5026.000000	1.206899
5024.000000	1.206709
5022.000000	1.206547
5020.000000	1.206592
5018.000000	1.206725
5016.000000	1.206791
5014.000000	1.206637
5012.000000	1.206458
5010.000000	1.206400
5008.000000	1.206485
5006.000000	1.206674
5004.000000	1.206808
5002.000000	1.206764
5000.000000	1.206634
4998.000000	1.206530
4996.000000	1.206557
4994.000000	1.206619
4992.000000	1.206694
4990.000000	1.206752
4988.000000	1.206702
4986.000000	1.206558
4984.000000	1.206399
4982.000000	1.206363
4980.000000	1.206344
4978.000000	1.206436
4976.000000	1.206563
4974.000000	1.206544
4972.000000	1.206482
4970.000000	1.206534
4968.000000	1.206677
4966.000000	1.206727
4964.000000	1.206671
4962.000000	1.206564
4960.000000	1.206543
4958.000000	1.206659
4956.000000	1.206695
4954.000000	1.206572
4952.000000	1.206556
4950.000000	1.206697
4948.000000	1.206725
4946.000000	1.206575
4944.000000	1.206591
4942.000000	1.206701
4940.000000	1.206698
4938.000000	1.206648
4936.000000	1.206658
4934.000000	1.206595
4932.000000	1.206543
4930.000000	1.206546
4928.000000	1.206519
4926.000000	1.206501
4924.000000	1.206573
4922.000000	1.206680
4920.000000	1.206640
4918.000000	1.206538
4916.000000	1.206412
4914.000000	1.206399
4912.000000	1.206454
4910.000000	1.206495
4908.000000	1.206566
4906.000000	1.206680
4904.000000	1.206715
4902.000000	1.206647
4900.000000	1.206549
4898.000000	1.206555
4896.000000	1.206593
4894.000000	1.206587
4892.000000	1.206513
4890.000000	1.206480
4888.000000	1.206423
4886.000000	1.206395
4884.000000	1.206437
4882.000000	1.206562
4880.000000	1.206658
4878.000000	1.206718
4876.000000	1.206649
4874.000000	1.206510
4872.000000	1.206453
4870.000000	1.206462
4868.000000	1.206539
4866.000000	1.206648
4864.000000	1.206684
4862.000000	1.206568
4860.000000	1.206429
4858.000000	1.206461
4856.000000	1.206611
4854.000000	1.206750
4852.000000	1.206806
4850.000000	1.206772
4848.000000	1.206664
4846.000000	1.206580
4844.000000	1.206641
4842.000000	1.206724
4840.000000	1.206695
4838.000000	1.206577
4836.000000	1.206531
4834.000000	1.206578
4832.000000	1.206667
4830.000000	1.206717
4828.000000	1.206686
4826.000000	1.206608
4824.000000	1.206565
4822.000000	1.206507
4820.000000	1.206428
4818.000000	1.206473
4816.000000	1.206601
4814.000000	1.206566
4812.000000	1.206437
4810.000000	1.206444
4808.000000	1.206502
4806.000000	1.206480
4804.000000	1.206441
4802.000000	1.206433
4800.000000	1.206416
4798.000000	1.206382
4796.000000	1.206364
4794.000000	1.206342
4792.000000	1.206337
4790.000000	1.206341
4788.000000	1.206383
4786.000000	1.206431
4784.000000	1.206411
4782.000000	1.206402
4780.000000	1.206446
4778.000000	1.206484
4776.000000	1.206390
4774.000000	1.206252
4772.000000	1.206211
4770.000000	1.206296
4768.000000	1.206389
4766.000000	1.206399
4764.000000	1.206512
4762.000000	1.206630
4760.000000	1.206596
4758.000000	1.206468
4756.000000	1.206477
4754.000000	1.206536
4752.000000	1.206527
4750.000000	1.206471
4748.000000	1.206437
4746.000000	1.206430
4744.000000	1.206398
4742.000000	1.206382
4740.000000	1.206403
4738.000000	1.206387
4736.000000	1.206341
4734.000000	1.206323
4732.000000	1.206339
4730.000000	1.206347
4728.000000	1.206341
4726.000000	1.206300
4724.000000	1.206179
4722.000000	1.206154
4720.000000	1.206314
4718.000000	1.206381
4716.000000	1.206200
4714.000000	1.206089
4712.000000	1.206151
4710.000000	1.206195
4708.000000	1.206169
4706.000000	1.206162
4704.000000	1.206172
4702.000000	1.206187
4700.000000	1.206161
4698.000000	1.206147
4696.000000	1.206169
4694.000000	1.206185
4692.000000	1.206167
4690.000000	1.206130
4688.000000	1.206106
4686.000000	1.206105
4684.000000	1.206192
4682.000000	1.206296
4680.000000	1.206260
4678.000000	1.206129
4676.000000	1.206100
4674.000000	1.206195
4672.000000	1.206255
4670.000000	1.206224
4668.000000	1.206210
4666.000000	1.206256
4664.000000	1.206265
4662.000000	1.206216
4660.000000	1.206203
4658.000000	1.206239
4656.000000	1.206260
4654.000000	1.206279
4652.000000	1.206268
4650.000000	1.206196
4648.000000	1.206115
4646.000000	1.206149
4644.000000	1.206200
4642.000000	1.206156
4640.000000	1.206086
4638.000000	1.206064
4636.000000	1.206084
4634.000000	1.206112
4632.000000	1.206135
4630.000000	1.206105
4628.000000	1.206076
4626.000000	1.206093
4624.000000	1.206113
4622.000000	1.206159
4620.000000	1.206227
4618.000000	1.206212
4616.000000	1.206139
4614.000000	1.206146
4612.000000	1.206195
4610.000000	1.206210
4608.000000	1.206117
4606.000000	1.205976
4604.000000	1.205936
4602.000000	1.205957
4600.000000	1.205977
4598.000000	1.205989
4596.000000	1.205929
4594.000000	1.205858
4592.000000	1.205924
4590.000000	1.206013
4588.000000	1.205996
4586.000000	1.205971
4584.000000	1.206010
4582.000000	1.206027
4580.000000	1.206022
4578.000000	1.206160
4576.000000	1.206347
4574.000000	1.206361
4572.000000	1.206237
4570.000000	1.206147
4568.000000	1.206186
4566.000000	1.206247
4564.000000	1.206165
4562.000000	1.206087
4560.000000	1.206186
4558.000000	1.206233
4556.000000	1.206092
4554.000000	1.205972
4552.000000	1.206004
4550.000000	1.206078
4548.000000	1.206070
4546.000000	1.205991
4544.000000	1.205981
4542.000000	1.206017
4540.000000	1.206022
4538.000000	1.206026
4536.000000	1.206035
4534.000000	1.206014
4532.000000	1.206016
4530.000000	1.206071
4528.000000	1.206084
4526.000000	1.206019
4524.000000	1.205938
4522.000000	1.205969
4520.000000	1.206061
4518.000000	1.206054
4516.000000	1.205970
4514.000000	1.205982
4512.000000	1.206075
4510.000000	1.206042
4508.000000	1.205912
4506.000000	1.205929
4504.000000	1.206026
4502.000000	1.206020
4500.000000	1.205964
4498.000000	1.205956
4496.000000	1.205938
4494.000000	1.205955
4492.000000	1.206009
4490.000000	1.206030
4488.000000	1.206001
4486.000000	1.206036
4484.000000	1.206131
4482.000000	1.206189
4480.000000	1.206160
4478.000000	1.206064
4476.000000	1.205992
4474.000000	1.206031
4472.000000	1.206063
4470.000000	1.206034
4468.000000	1.206050
4466.000000	1.206075
4464.000000	1.206002
4462.000000	1.205920
4460.000000	1.205904
4458.000000	1.205940
4456.000000	1.206015
4454.000000	1.206113
4452.000000	1.206143
4450.000000	1.206083
4448.000000	1.206029
4446.000000	1.206012
4444.000000	1.205933
4442.000000	1.205817
4440.000000	1.205787
4438.000000	1.205817
4436.000000	1.205814
4434.000000	1.205771
4432.000000	1.205756
4430.000000	1.205774
4428.000000	1.205861
4426.000000	1.205954
4424.000000	1.205933
4422.000000	1.205855
4420.000000	1.205859
4418.000000	1.205896
4416.000000	1.205864
4414.000000	1.205785
4412.000000	1.205706
4410.000000	1.205664
4408.000000	1.205675
4406.000000	1.205712
4404.000000	1.205735
4402.000000	1.205726
4400.000000	1.205683
4398.000000	1.205713
4396.000000	1.205771
4394.000000	1.205788
4392.000000	1.205802
4390.000000	1.205767
4388.000000	1.205686
4386.000000	1.205670
4384.000000	1.205649
4382.000000	1.205662
4380.000000	1.205802
4378.000000	1.205963
4376.000000	1.205988
4374.000000	1.205877
4372.000000	1.205819
4370.000000	1.205855
4368.000000	1.205839
4366.000000	1.205826
4364.000000	1.205862
4362.000000	1.205856
4360.000000	1.205798
4358.000000	1.205734
4356.000000	1.205712
4354.000000	1.205780
4352.000000	1.205821
4350.000000	1.205792
4348.000000	1.205766
4346.000000	1.205725
4344.000000	1.205623
4342.000000	1.205591
4340.000000	1.205588
4338.000000	1.205563
4336.000000	1.205548
4334.000000	1.205537
4332.000000	1.205513
4330.000000	1.205535
4328.000000	1.205493
4326.000000	1.205423
4324.000000	1.205438
4322.000000	1.205491
4320.000000	1.205474
4318.000000	1.205429
4316.000000	1.205417
4314.000000	1.205434
4312.000000	1.205446
4310.000000	1.205470
4308.000000	1.205482
4306.000000	1.205428
4304.000000	1.205310
4302.000000	1.205225
4300.000000	1.205234
4298.000000	1.205296
4296.000000	1.205358
4294.000000	1.205361
4292.000000	1.205322
4290.000000	1.205352
4288.000000	1.205410
4286.000000	1.205410
4284.000000	1.205338
4282.000000	1.205239
4280.000000	1.205219
4278.000000	1.205262
4276.000000	1.205247
4274.000000	1.205242
4272.000000	1.205307
4270.000000	1.205343
4268.000000	1.205225
4266.000000	1.205063
4264.000000	1.205053
4262.000000	1.205209
4260.000000	1.205333
4258.000000	1.205346
4256.000000	1.205303
4254.000000	1.205252
4252.000000	1.205225
4250.000000	1.205206
4248.000000	1.205094
4246.000000	1.204952
4244.000000	1.204890
4242.000000	1.204896
4240.000000	1.204923
4238.000000	1.204948
4236.000000	1.204987
4234.000000	1.205011
4232.000000	1.204922
4230.000000	1.204818
4228.000000	1.204771
4226.000000	1.204725
4224.000000	1.204684
4222.000000	1.204687
4220.000000	1.204650
4218.000000	1.204584
4216.000000	1.204592
4214.000000	1.204667
4212.000000	1.204672
4210.000000	1.204583
4208.000000	1.204524
4206.000000	1.204553
4204.000000	1.204559
4202.000000	1.204573
4200.000000	1.204623
4198.000000	1.204622
4196.000000	1.204541
4194.000000	1.204462
4192.000000	1.204459
4190.000000	1.204528
4188.000000	1.204562
4186.000000	1.204594
4184.000000	1.204650
4182.000000	1.204694
4180.000000	1.204650
4178.000000	1.204554
4176.000000	1.204513
4174.000000	1.204509
4172.000000	1.204461
4170.000000	1.204441
4168.000000	1.204422
4166.000000	1.204357
4164.000000	1.204298
4162.000000	1.204329
4160.000000	1.204329
4158.000000	1.204274
4156.000000	1.204268
4154.000000	1.204276
4152.000000	1.204200
4150.000000	1.204089
4148.000000	1.203992
4146.000000	1.203992
4144.000000	1.204046
4142.000000	1.204017
4140.000000	1.203957
4138.000000	1.203974
4136.000000	1.203923
4134.000000	1.203789
4132.000000	1.203707
4130.000000	1.203751
4128.000000	1.203825
4126.000000	1.203772
4124.000000	1.203628
4122.000000	1.203549
4120.000000	1.203547
4118.000000	1.203537
4116.000000	1.203464
4114.000000	1.203431
4112.000000	1.203424
4110.000000	1.203366
4108.000000	1.203274
4106.000000	1.203249
4104.000000	1.203310
4102.000000	1.203368
4100.000000	1.203341
4098.000000	1.203287
4096.000000	1.203241
4094.000000	1.203213
4092.000000	1.203194
4090.000000	1.203220
4088.000000	1.203337
4086.000000	1.203436
4084.000000	1.203385
4082.000000	1.203303
4080.000000	1.203275
4078.000000	1.203271
4076.000000	1.203225
4074.000000	1.203118
4072.000000	1.203005
4070.000000	1.202928
4068.000000	1.202883
4066.000000	1.202889
4064.000000	1.202906
4062.000000	1.202914
4060.000000	1.202920
4058.000000	1.202905
4056.000000	1.202834
4054.000000	1.202705
4052.000000	1.202626
4050.000000	1.202636
4048.000000	1.202593
4046.000000	1.202488
4044.000000	1.202424
4042.000000	1.202430
4040.000000	1.202443
4038.000000	1.202413
4036.000000	1.202339
4034.000000	1.202260
4032.000000	1.202206
4030.000000	1.202171
4028.000000	1.202135
4026.000000	1.202166
4024.000000	1.202171
4022.000000	1.202035
4020.000000	1.201942
4018.000000	1.201992
4016.000000	1.201983
4014.000000	1.201887
4012.000000	1.201754
4010.000000	1.201708
4008.000000	1.201870
4006.000000	1.202020
4004.000000	1.201933
4002.000000	1.201827
4000.000000	1.201859
3998.000000	1.201847
3996.000000	1.201723
3994.000000	1.201702
3992.000000	1.201735
3990.000000	1.201708
3988.000000	1.201657
3986.000000	1.201597
3984.000000	1.201571
3982.000000	1.201581
3980.000000	1.201492
3978.000000	1.201345
3976.000000	1.201331
3974.000000	1.201450
3972.000000	1.201493
3970.000000	1.201433
3968.000000	1.201354
3966.000000	1.201249
3964.000000	1.201074
3962.000000	1.200995
3960.000000	1.201055
3958.000000	1.201042
3956.000000	1.200911
3954.000000	1.200758
3952.000000	1.200557
3950.000000	1.200440
3948.000000	1.200550
3946.000000	1.200535
3944.000000	1.200361
3942.000000	1.200546
3940.000000	1.200783
3938.000000	1.200641
3936.000000	1.200189
3934.000000	1.199691
3932.000000	1.199785
3930.000000	1.200273
3928.000000	1.200159
3926.000000	1.199735
3924.000000	1.199745
3922.000000	1.199614
3920.000000	1.199017
3918.000000	1.199032
3916.000000	1.199933
3914.000000	1.200492
3912.000000	1.200299
3910.000000	1.199855
3908.000000	1.198612
3906.000000	1.196702
3904.000000	1.196098
3902.000000	1.197115
3900.000000	1.198626
3898.000000	1.200083
3896.000000	1.200043
3894.000000	1.198190
3892.000000	1.197472
3890.000000	1.198345
3888.000000	1.197469
3886.000000	1.196844
3884.000000	1.198365
3882.000000	1.198595
3880.000000	1.198696
3878.000000	1.199406
3876.000000	1.198444
3874.000000	1.196892
3872.000000	1.195345
3870.000000	1.195740
3868.000000	1.197715
3866.000000	1.197570
3864.000000	1.197450
3862.000000	1.198743
3860.000000	1.198835
3858.000000	1.195138
3856.000000	1.188436
3854.000000	1.188297
3852.000000	1.196842
3850.000000	1.201826
3848.000000	1.200179
3846.000000	1.197724
3844.000000	1.196534
3842.000000	1.195247
3840.000000	1.192936
3838.000000	1.193376
3836.000000	1.196910
3834.000000	1.198209
3832.000000	1.197828
3830.000000	1.198081
3828.000000	1.197853
3826.000000	1.197004
3824.000000	1.194904
3822.000000	1.193773
3820.000000	1.195113
3818.000000	1.194455
3816.000000	1.194969
3814.000000	1.198817
3812.000000	1.199157
3810.000000	1.195876
3808.000000	1.194235
3806.000000	1.195519
3804.000000	1.194529
3802.000000	1.193365
3800.000000	1.196674
3798.000000	1.198436
3796.000000	1.197928
3794.000000	1.198315
3792.000000	1.198303
3790.000000	1.197936
3788.000000	1.197584
3786.000000	1.197272
3784.000000	1.197221
3782.000000	1.196742
3780.000000	1.196499
3778.000000	1.197466
3776.000000	1.197945
3774.000000	1.196951
3772.000000	1.195458
3770.000000	1.195321
3768.000000	1.196231
3766.000000	1.196666
3764.000000	1.196770
3762.000000	1.195947
3760.000000	1.195195
3758.000000	1.195666
3756.000000	1.194339
3754.000000	1.190083
3752.000000	1.188098
3750.000000	1.191150
3748.000000	1.192191
3746.000000	1.188864
3744.000000	1.191663
3742.000000	1.197580
3740.000000	1.195767
3738.000000	1.191462
3736.000000	1.191129
3734.000000	1.192990
3732.000000	1.194915
3730.000000	1.196058
3728.000000	1.195138
3726.000000	1.194371
3724.000000	1.194660
3722.000000	1.194968
3720.000000	1.195415
3718.000000	1.195454
3716.000000	1.193967
3714.000000	1.191320
3712.000000	1.191286
3710.000000	1.194178
3708.000000	1.195985
3706.000000	1.195596
3704.000000	1.194287
3702.000000	1.194111
3700.000000	1.195158
3698.000000	1.195389
3696.000000	1.194742
3694.000000	1.193349
3692.000000	1.190681
3690.000000	1.189077
3688.000000	1.192146
3686.000000	1.195923
3684.000000	1.195462
3682.000000	1.193621
3680.000000	1.191642
3678.000000	1.188256
3676.000000	1.187853
3674.000000	1.190793
3672.000000	1.190213
3670.000000	1.190529
3668.000000	1.194003
3666.000000	1.194666
3664.000000	1.193612
3662.000000	1.193083
3660.000000	1.191975
3658.000000	1.190363
3656.000000	1.190802
3654.000000	1.190987
3652.000000	1.187636
3650.000000	1.186314
3648.000000	1.190012
3646.000000	1.193156
3644.000000	1.192999
3642.000000	1.192062
3640.000000	1.191780
3638.000000	1.191540
3636.000000	1.191048
3634.000000	1.190201
3632.000000	1.187516
3630.000000	1.185500
3628.000000	1.188964
3626.000000	1.192424
3624.000000	1.191269
3622.000000	1.188736
3620.000000	1.187916
3618.000000	1.189334
3616.000000	1.189911
3614.000000	1.188972
3612.000000	1.188393
3610.000000	1.188332
3608.000000	1.189367
3606.000000	1.190518
3604.000000	1.190212
3602.000000	1.189533
3600.000000	1.189405
3598.000000	1.189309
3596.000000	1.189104
3594.000000	1.189284
3592.000000	1.188855
3590.000000	1.187319
3588.000000	1.187166
3586.000000	1.188986
3584.000000	1.189915
3582.000000	1.189528
3580.000000	1.189272
3578.000000	1.189238
3576.000000	1.189137
3574.000000	1.189073
3572.000000	1.188528
3570.000000	1.187157
3568.000000	1.186712
3566.000000	1.188130
3564.000000	1.189169
3562.000000	1.189019
3560.000000	1.188878
3558.000000	1.188958
3556.000000	1.188817
3554.000000	1.188586
3552.000000	1.188651
3550.000000	1.188595
3548.000000	1.188155
3546.000000	1.188240
3544.000000	1.188880
3542.000000	1.189218
3540.000000	1.189151
3538.000000	1.189004
3536.000000	1.189022
3534.000000	1.189111
3532.000000	1.189032
3530.000000	1.188881
3528.000000	1.188902
3526.000000	1.189029
3524.000000	1.189161
3522.000000	1.189490
3520.000000	1.189753
3518.000000	1.189906
3516.000000	1.190002
3514.000000	1.189947
3512.000000	1.189892
3510.000000	1.190068
3508.000000	1.190359
3506.000000	1.190302
3504.000000	1.190197
3502.000000	1.190591
3500.000000	1.191071
3498.000000	1.191200
3496.000000	1.191268
3494.000000	1.191538
3492.000000	1.191756
3490.000000	1.191856
3488.000000	1.192056
3486.000000	1.192339
3484.000000	1.192560
3482.000000	1.192836
3480.000000	1.193190
3478.000000	1.193446
3476.000000	1.193653
3474.000000	1.193946
3472.000000	1.194282
3470.000000	1.194567
3468.000000	1.194815
3466.000000	1.195140
3464.000000	1.195531
3462.000000	1.195946
3460.000000	1.196342
3458.000000	1.196696
3456.000000	1.197017
3454.000000	1.197347
3452.000000	1.197657
3450.000000	1.197917
3448.000000	1.198283
3446.000000	1.198860
3444.000000	1.199350
3442.000000	1.199688
3440.000000	1.200069
3438.000000	1.200522
3436.000000	1.201022
3434.000000	1.201548
3432.000000	1.202033
3430.000000	1.202405
3428.000000	1.202803
3426.000000	1.203225
3424.000000	1.203502
3422.000000	1.203741
3420.000000	1.204114
3418.000000	1.204539
3416.000000	1.204866
3414.000000	1.205114
3412.000000	1.205343
3410.000000	1.205577
3408.000000	1.205785
3406.000000	1.206013
3404.000000	1.206214
3402.000000	1.206349
3400.000000	1.206552
3398.000000	1.206895
3396.000000	1.207178
3394.000000	1.207237
3392.000000	1.207365
3390.000000	1.207663
3388.000000	1.207850
3386.000000	1.207974
3384.000000	1.208157
3382.000000	1.208295
3380.000000	1.208405
3378.000000	1.208509
3376.000000	1.208587
3374.000000	1.208688
3372.000000	1.208755
3370.000000	1.208759
3368.000000	1.208858
3366.000000	1.209031
3364.000000	1.209180
3362.000000	1.209330
3360.000000	1.209462
3358.000000	1.209567
3356.000000	1.209692
3354.000000	1.209783
3352.000000	1.209783
3350.000000	1.209797
3348.000000	1.209887
3346.000000	1.209951
3344.000000	1.209967
3342.000000	1.210023
3340.000000	1.210085
3338.000000	1.210155
3336.000000	1.210297
3334.000000	1.210448
3332.000000	1.210503
3330.000000	1.210549
3328.000000	1.210622
3326.000000	1.210673
3324.000000	1.210717
3322.000000	1.210761
3320.000000	1.210791
3318.000000	1.210826
3316.000000	1.210872
3314.000000	1.210940
3312.000000	1.210991
3310.000000	1.210987
3308.000000	1.210978
3306.000000	1.210972
3304.000000	1.211049
3302.000000	1.211175
3300.000000	1.211233
3298.000000	1.211317
3296.000000	1.211436
3294.000000	1.211493
3292.000000	1.211544
3290.000000	1.211646
3288.000000	1.211723
3286.000000	1.211754
3284.000000	1.211786
3282.000000	1.211850
3280.000000	1.211865
3278.000000	1.211809
3276.000000	1.211839
3274.000000	1.211913
3272.000000	1.211905
3270.000000	1.212000
3268.000000	1.212176
3266.000000	1.212239
3264.000000	1.212258
3262.000000	1.212290
3260.000000	1.212328
3258.000000	1.212345
3256.000000	1.212325
3254.000000	1.212345
3252.000000	1.212446
3250.000000	1.212514
3248.000000	1.212496
3246.000000	1.212492
3244.000000	1.212604
3242.000000	1.212698
3240.000000	1.212689
3238.000000	1.212736
3236.000000	1.212797
3234.000000	1.212827
3232.000000	1.212924
3230.000000	1.213059
3228.000000	1.213211
3226.000000	1.213326
3224.000000	1.213362
3222.000000	1.213320
3220.000000	1.213335
3218.000000	1.213461
3216.000000	1.213489
3214.000000	1.213414
3212.000000	1.213405
3210.000000	1.213498
3208.000000	1.213638
3206.000000	1.213683
3204.000000	1.213674
3202.000000	1.213728
3200.000000	1.213793
3198.000000	1.213782
3196.000000	1.213787
3194.000000	1.213753
3192.000000	1.213684
3190.000000	1.213723
3188.000000	1.213792
3186.000000	1.213826
3184.000000	1.213844
3182.000000	1.213828
3180.000000	1.213827
3178.000000	1.213871
3176.000000	1.213913
3174.000000	1.213906
3172.000000	1.213930
3170.000000	1.213959
3168.000000	1.213982
3166.000000	1.214071
3164.000000	1.214177
3162.000000	1.214181
3160.000000	1.214146
3158.000000	1.214172
3156.000000	1.214195
3154.000000	1.214182
3152.000000	1.214218
3150.000000	1.214360
3148.000000	1.214449
3146.000000	1.214448
3144.000000	1.214436
3142.000000	1.214411
3140.000000	1.214395
3138.000000	1.214479
3136.000000	1.214582
3134.000000	1.214606
3132.000000	1.214599
3130.000000	1.214602
3128.000000	1.214668
3126.000000	1.214744
3124.000000	1.214741
3122.000000	1.214741
3120.000000	1.214765
3118.000000	1.214738
3116.000000	1.214737
3114.000000	1.214803
3112.000000	1.214854
3110.000000	1.214846
3108.000000	1.214829
3106.000000	1.214866
3104.000000	1.214879
3102.000000	1.214766
3100.000000	1.214628
3098.000000	1.214601
3096.000000	1.214629
3094.000000	1.214675
3092.000000	1.214668
3090.000000	1.214569
3088.000000	1.214466
3086.000000	1.214354
3084.000000	1.214256
3082.000000	1.214141
3080.000000	1.214049
3078.000000	1.214048
3076.000000	1.214043
3074.000000	1.213993
3072.000000	1.213918
3070.000000	1.213790
3068.000000	1.213656
3066.000000	1.213615
3064.000000	1.213668
3062.000000	1.213639
3060.000000	1.213488
3058.000000	1.213385
3056.000000	1.213379
3054.000000	1.213369
3052.000000	1.213299
3050.000000	1.213194
3048.000000	1.213108
3046.000000	1.213051
3044.000000	1.212990
3042.000000	1.212923
3040.000000	1.212892
3038.000000	1.212834
3036.000000	1.212713
3034.000000	1.212654
3032.000000	1.212632
3030.000000	1.212625
3028.000000	1.212536
3026.000000	1.212342
3024.000000	1.212221
3022.000000	1.212209
3020.000000	1.212315
3018.000000	1.212574
3016.000000	1.212877
3014.000000	1.212998
3012.000000	1.213030
3010.000000	1.213007
3008.000000	1.212848
3006.000000	1.212644
3004.000000	1.212445
3002.000000	1.212240
3000.000000	1.212109
2998.000000	1.212066
2996.000000	1.212043
2994.000000	1.211962
2992.000000	1.211927
2990.000000	1.211938
2988.000000	1.211869
2986.000000	1.211775
2984.000000	1.211668
2982.000000	1.211555
2980.000000	1.211550
2978.000000	1.211591
2976.000000	1.211543
2974.000000	1.211472
2972.000000	1.211490
2970.000000	1.211553
2968.000000	1.211788
2966.000000	1.212299
2964.000000	1.212984
2962.000000	1.213588
2960.000000	1.213953
2958.000000	1.213948
2956.000000	1.213570
2954.000000	1.213051
2952.000000	1.212591
2950.000000	1.212164
2948.000000	1.211641
2946.000000	1.211067
2944.000000	1.210594
2942.000000	1.210240
2940.000000	1.210021
2938.000000	1.210001
2936.000000	1.210125
2934.000000	1.210205
2932.000000	1.210226
2930.000000	1.210295
2928.000000	1.210594
2926.000000	1.211181
2924.000000	1.211990
2922.000000	1.212829
2920.000000	1.213371
2918.000000	1.213562
2916.000000	1.213561
2914.000000	1.213339
2912.000000	1.212993
2910.000000	1.212594
2908.000000	1.212243
2906.000000	1.212097
2904.000000	1.211971
2902.000000	1.211802
2900.000000	1.211666
2898.000000	1.211568
2896.000000	1.211481
2894.000000	1.211364
2892.000000	1.211268
2890.000000	1.211187
2888.000000	1.211055
2886.000000	1.210897
2884.000000	1.210748
2882.000000	1.210576
2880.000000	1.210406
2878.000000	1.210243
2876.000000	1.210018
2874.000000	1.209689
2872.000000	1.209360
2870.000000	1.209045
2868.000000	1.208712
2866.000000	1.208533
2864.000000	1.208679
2862.000000	1.209218
2860.000000	1.209973
2858.000000	1.210545
2856.000000	1.210815
2854.000000	1.210948
2852.000000	1.211069
2850.000000	1.211319
2848.000000	1.211617
2846.000000	1.211610
2844.000000	1.211288
2842.000000	1.210964
2840.000000	1.210710
2838.000000	1.210540
2836.000000	1.210476
2834.000000	1.210408
2832.000000	1.210317
2830.000000	1.210203
2828.000000	1.210150
2826.000000	1.210133
2824.000000	1.210086
2822.000000	1.210050
2820.000000	1.209998
2818.000000	1.209950
2816.000000	1.209919
2814.000000	1.209873
2812.000000	1.209837
2810.000000	1.209820
2808.000000	1.209788
2806.000000	1.209738
2804.000000	1.209707
2802.000000	1.209664
2800.000000	1.209631
2798.000000	1.209638
2796.000000	1.209675
2794.000000	1.209642
2792.000000	1.209604
2790.000000	1.209606
2788.000000	1.209596
2786.000000	1.209579
2784.000000	1.209563
2782.000000	1.209540
2780.000000	1.209530
2778.000000	1.209499
2776.000000	1.209496
2774.000000	1.209519
2772.000000	1.209549
2770.000000	1.209516
2768.000000	1.209491
2766.000000	1.209450
2764.000000	1.209397
2762.000000	1.209372
2760.000000	1.209417
2758.000000	1.209419
2756.000000	1.209365
2754.000000	1.209345
2752.000000	1.209404
2750.000000	1.209468
2748.000000	1.209455
2746.000000	1.209438
2744.000000	1.209481
2742.000000	1.209474
2740.000000	1.209472
2738.000000	1.209494
2736.000000	1.209539
2734.000000	1.209611
2732.000000	1.209654
2730.000000	1.209645
2728.000000	1.209664
2726.000000	1.209708
2724.000000	1.209728
2722.000000	1.209745
2720.000000	1.209779
2718.000000	1.209819
2716.000000	1.209849
2714.000000	1.209899
2712.000000	1.209953
2710.000000	1.210013
2708.000000	1.210112
2706.000000	1.210216
2704.000000	1.210279
2702.000000	1.210281
2700.000000	1.210342
2698.000000	1.210427
2696.000000	1.210514
2694.000000	1.210622
2692.000000	1.210758
2690.000000	1.210849
2688.000000	1.210890
2686.000000	1.210906
2684.000000	1.210912
2682.000000	1.210945
2680.000000	1.211020
2678.000000	1.211111
2676.000000	1.211208
2674.000000	1.211305
2672.000000	1.211403
2670.000000	1.211429
2668.000000	1.211440
2666.000000	1.211495
2664.000000	1.211561
2662.000000	1.211646
2660.000000	1.211771
2658.000000	1.211852
2656.000000	1.211882
2654.000000	1.211955
2652.000000	1.212030
2650.000000	1.212110
2648.000000	1.212188
2646.000000	1.212195
2644.000000	1.212204
2642.000000	1.212216
2640.000000	1.212245
2638.000000	1.212293
2636.000000	1.212346
2634.000000	1.212363
2632.000000	1.212379
2630.000000	1.212380
2628.000000	1.212402
2626.000000	1.212434
2624.000000	1.212416
2622.000000	1.212397
2620.000000	1.212464
2618.000000	1.212515
2616.000000	1.212485
2614.000000	1.212492
2612.000000	1.212575
2610.000000	1.212621
2608.000000	1.212615
2606.000000	1.212617
2604.000000	1.212682
2602.000000	1.212713
2600.000000	1.212747
2598.000000	1.212814
2596.000000	1.212856
2594.000000	1.212850
2592.000000	1.212888
2590.000000	1.212947
2588.000000	1.212978
2586.000000	1.212949
2584.000000	1.213028
2582.000000	1.213108
2580.000000	1.213084
2578.000000	1.213038
2576.000000	1.213019
2574.000000	1.213028
2572.000000	1.213057
2570.000000	1.213070
2568.000000	1.213122
2566.000000	1.213165
2564.000000	1.213212
2562.000000	1.213221
2560.000000	1.213180
2558.000000	1.213127
2556.000000	1.213081
2554.000000	1.213038
2552.000000	1.213101
2550.000000	1.213201
2548.000000	1.213244
2546.000000	1.213257
2544.000000	1.213251
2542.000000	1.213230
2540.000000	1.213223
2538.000000	1.213205
2536.000000	1.213193
2534.000000	1.213190
2532.000000	1.213190
2530.000000	1.213183
2528.000000	1.213139
2526.000000	1.213113
2524.000000	1.213132
2522.000000	1.213155
2520.000000	1.213154
2518.000000	1.213146
2516.000000	1.213155
2514.000000	1.213153
2512.000000	1.213195
2510.000000	1.213199
2508.000000	1.213155
2506.000000	1.213098
2504.000000	1.213112
2502.000000	1.213111
2500.000000	1.213126
2498.000000	1.213151
2496.000000	1.213132
2494.000000	1.213077
2492.000000	1.213075
2490.000000	1.213091
2488.000000	1.213093
2486.000000	1.213066
2484.000000	1.213053
2482.000000	1.213073
2480.000000	1.213067
2478.000000	1.212998
2476.000000	1.212948
2474.000000	1.212985
2472.000000	1.213042
2470.000000	1.213022
2468.000000	1.213051
2466.000000	1.213079
2464.000000	1.213065
2462.000000	1.213035
2460.000000	1.213075
2458.000000	1.213110
2456.000000	1.213056
2454.000000	1.213043
2452.000000	1.213098
2450.000000	1.213078
2448.000000	1.213040
2446.000000	1.213050
2444.000000	1.213091
2442.000000	1.213089
2440.000000	1.213055
2438.000000	1.213040
2436.000000	1.213012
2434.000000	1.212983
2432.000000	1.212986
2430.000000	1.212971
2428.000000	1.212961
2426.000000	1.212990
2424.000000	1.213016
2422.000000	1.213033
2420.000000	1.213029
2418.000000	1.212996
2416.000000	1.212950
2414.000000	1.212877
2412.000000	1.212880
2410.000000	1.212920
2408.000000	1.212934
2406.000000	1.212875
2404.000000	1.212817
2402.000000	1.212821
2400.000000	1.212853
2398.000000	1.212818
2396.000000	1.212777
2394.000000	1.212785
2392.000000	1.212775
2390.000000	1.212692
2388.000000	1.212681
2386.000000	1.212712
2384.000000	1.212634
2382.000000	1.212436
2380.000000	1.212267
2378.000000	1.212088
2376.000000	1.211831
2374.000000	1.211539
2372.000000	1.211214
2370.000000	1.210915
2368.000000	1.210838
2366.000000	1.210811
2364.000000	1.210786
2362.000000	1.210875
2360.000000	1.211128
2358.000000	1.211439
2356.000000	1.211792
2354.000000	1.212232
2352.000000	1.212627
2350.000000	1.212503
2348.000000	1.211805
2346.000000	1.211378
2344.000000	1.211632
2342.000000	1.212306
2340.000000	1.213060
2338.000000	1.213297
2336.000000	1.212869
2334.000000	1.212273
2332.000000	1.212005
2330.000000	1.211994
2328.000000	1.212098
2326.000000	1.212177
2324.000000	1.212219
2322.000000	1.212217
2320.000000	1.212243
2318.000000	1.212342
2316.000000	1.212507
2314.000000	1.212585
2312.000000	1.212594
2310.000000	1.212600
2308.000000	1.212629
2306.000000	1.212604
2304.000000	1.212573
2302.000000	1.212596
2300.000000	1.212640
2298.000000	1.212657
2296.000000	1.212694
2294.000000	1.212720
2292.000000	1.212745
2290.000000	1.212746
2288.000000	1.212745
2286.000000	1.212702
2284.000000	1.212695
2282.000000	1.212691
2280.000000	1.212708
2278.000000	1.212725
2276.000000	1.212756
2274.000000	1.212693
2272.000000	1.212639
2270.000000	1.212644
2268.000000	1.212667
2266.000000	1.212632
2264.000000	1.212549
2262.000000	1.212502
2260.000000	1.212503
2258.000000	1.212437
2256.000000	1.212392
2254.000000	1.212381
2252.000000	1.212375
2250.000000	1.212326
2248.000000	1.212268
2246.000000	1.212192
2244.000000	1.212140
2242.000000	1.212109
2240.000000	1.212081
2238.000000	1.212003
2236.000000	1.211980
2234.000000	1.211946
2232.000000	1.211856
2230.000000	1.211745
2228.000000	1.211684
2226.000000	1.211653
2224.000000	1.211640
2222.000000	1.211584
2220.000000	1.211546
2218.000000	1.211524
2216.000000	1.211501
2214.000000	1.211419
2212.000000	1.211341
2210.000000	1.211310
2208.000000	1.211297
2206.000000	1.211233
2204.000000	1.211180
2202.000000	1.211059
2200.000000	1.210923
2198.000000	1.210894
2196.000000	1.210906
2194.000000	1.210891
2192.000000	1.210868
2190.000000	1.210818
2188.000000	1.210792
2186.000000	1.210737
2184.000000	1.210685
2182.000000	1.210638
2180.000000	1.210603
2178.000000	1.210527
2176.000000	1.210446
2174.000000	1.210372
2172.000000	1.210305
2170.000000	1.210266
2168.000000	1.210303
2166.000000	1.210261
2164.000000	1.210174
2162.000000	1.210086
2160.000000	1.210031
2158.000000	1.210001
2156.000000	1.210008
2154.000000	1.209961
2152.000000	1.209861
2150.000000	1.209736
2148.000000	1.209709
2146.000000	1.209713
2144.000000	1.209645
2142.000000	1.209546
2140.000000	1.209490
2138.000000	1.209456
2136.000000	1.209480
2134.000000	1.209422
2132.000000	1.209424
2130.000000	1.209406
2128.000000	1.209310
2126.000000	1.209197
2124.000000	1.209109
2122.000000	1.209097
2120.000000	1.209107
2118.000000	1.209045
2116.000000	1.208972
2114.000000	1.208929
2112.000000	1.208957
2110.000000	1.208856
2108.000000	1.208756
2106.000000	1.208809
2104.000000	1.208870
2102.000000	1.208826
2100.000000	1.208765
2098.000000	1.208704
2096.000000	1.208699
2094.000000	1.208656
2092.000000	1.208590
2090.000000	1.208591
2088.000000	1.208634
2086.000000	1.208600
2084.000000	1.208803
2082.000000	1.208723
2080.000000	1.208399
2078.000000	1.208342
2076.000000	1.208408
2074.000000	1.208298
2072.000000	1.208249
2070.000000	1.208263
2068.000000	1.208270
2066.000000	1.208174
2064.000000	1.208276
2062.000000	1.208285
2060.000000	1.208121
2058.000000	1.208008
2056.000000	1.207972
2054.000000	1.207933
2052.000000	1.207954
2050.000000	1.207898
2048.000000	1.207912
2046.000000	1.207946
2044.000000	1.207810
2042.000000	1.207755
2040.000000	1.207873
2038.000000	1.207693
2036.000000	1.207493
2034.000000	1.207494
2032.000000	1.207540
2030.000000	1.207561
2028.000000	1.207574
2026.000000	1.207516
2024.000000	1.207438
2022.000000	1.207423
2020.000000	1.207389
2018.000000	1.207350
2016.000000	1.207486
2014.000000	1.207500
2012.000000	1.207376
2010.000000	1.207252
2008.000000	1.207257
2006.000000	1.207253
2004.000000	1.207255
2002.000000	1.207264
2000.000000	1.207288
1998.000000	1.207250
1996.000000	1.207147
1994.000000	1.206880
1992.000000	1.206816
1990.000000	1.206950
1988.000000	1.206998
1986.000000	1.207045
1984.000000	1.207087
1982.000000	1.207068
1980.000000	1.207027
1978.000000	1.206973
1976.000000	1.206950
1974.000000	1.206963
1972.000000	1.206969
1970.000000	1.206864
1968.000000	1.206709
1966.000000	1.206764
1964.000000	1.206884
1962.000000	1.206831
1960.000000	1.206789
1958.000000	1.207014
1956.000000	1.207071
1954.000000	1.206954
1952.000000	1.206929
1950.000000	1.206885
1948.000000	1.206805
1946.000000	1.206617
1944.000000	1.206381
1942.000000	1.206602
1940.000000	1.207017
1938.000000	1.206964
1936.000000	1.206930
1934.000000	1.206928
1932.000000	1.206950
1930.000000	1.206960
1928.000000	1.207008
1926.000000	1.206853
1924.000000	1.206619
1922.000000	1.206704
1920.000000	1.206312
1918.000000	1.206230
1916.000000	1.207091
1914.000000	1.207162
1912.000000	1.206977
1910.000000	1.206870
1908.000000	1.207041
1906.000000	1.207077
1904.000000	1.207144
1902.000000	1.207188
1900.000000	1.207252
1898.000000	1.207100
1896.000000	1.207026
1894.000000	1.207163
1892.000000	1.206949
1890.000000	1.206666
1888.000000	1.207222
1886.000000	1.207345
1884.000000	1.207324
1882.000000	1.207315
1880.000000	1.207318
1878.000000	1.207264
1876.000000	1.207289
1874.000000	1.207190
1872.000000	1.206558
1870.000000	1.205673
1868.000000	1.206394
1866.000000	1.207194
1864.000000	1.207233
1862.000000	1.207082
1860.000000	1.207114
1858.000000	1.207124
1856.000000	1.207216
1854.000000	1.207166
1852.000000	1.207171
1850.000000	1.206980
1848.000000	1.206501
1846.000000	1.204888
1844.000000	1.205183
1842.000000	1.207209
1840.000000	1.207303
1838.000000	1.207020
1836.000000	1.207170
1834.000000	1.207014
1832.000000	1.205979
1830.000000	1.205763
1828.000000	1.206602
1826.000000	1.206351
1824.000000	1.206937
1822.000000	1.207398
1820.000000	1.207292
1818.000000	1.207208
1816.000000	1.207364
1814.000000	1.207213
1812.000000	1.206956
1810.000000	1.207109
1808.000000	1.207436
1806.000000	1.207296
1804.000000	1.206813
1802.000000	1.206241
1800.000000	1.206559
1798.000000	1.206950
1796.000000	1.206420
1794.000000	1.204640
1792.000000	1.205178
1790.000000	1.207177
1788.000000	1.207188
1786.000000	1.206493
1784.000000	1.206825
1782.000000	1.206802
1780.000000	1.206962
1778.000000	1.207175
1776.000000	1.206014
1774.000000	1.203526
1772.000000	1.204296
1770.000000	1.206225
1768.000000	1.206547
1766.000000	1.207500
1764.000000	1.206413
1762.000000	1.205976
1760.000000	1.207058
1758.000000	1.206661
1756.000000	1.206945
1754.000000	1.206247
1752.000000	1.204395
1750.000000	1.205609
1748.000000	1.206924
1746.000000	1.207264
1744.000000	1.207057
1742.000000	1.206286
1740.000000	1.206137
1738.000000	1.206614
1736.000000	1.202475
1734.000000	1.202191
1732.000000	1.207398
1730.000000	1.208388
1728.000000	1.208540
1726.000000	1.208476
1724.000000	1.208369
1722.000000	1.207786
1720.000000	1.204262
1718.000000	1.201958
1716.000000	1.205677
1714.000000	1.208182
1712.000000	1.208829
1710.000000	1.208269
1708.000000	1.207398
1706.000000	1.206751
1704.000000	1.206585
1702.000000	1.201859
1700.000000	1.202211
1698.000000	1.204009
1696.000000	1.203762
1694.000000	1.209003
1692.000000	1.209671
1690.000000	1.208621
1688.000000	1.206656
1686.000000	1.201426
1684.000000	1.203572
1682.000000	1.209236
1680.000000	1.209482
1678.000000	1.208015
1676.000000	1.206221
1674.000000	1.208029
1672.000000	1.207616
1670.000000	1.206747
1668.000000	1.209100
1666.000000	1.209730
1664.000000	1.208125
1662.000000	1.208992
1660.000000	1.210283
1658.000000	1.209498
1656.000000	1.203896
1654.000000	1.197598
1652.000000	1.204689
1650.000000	1.209652
1648.000000	1.205988
1646.000000	1.207017
1644.000000	1.210546
1642.000000	1.210865
1640.000000	1.209830
1638.000000	1.206609
1636.000000	1.205168
1634.000000	1.209661
1632.000000	1.211337
1630.000000	1.210203
1628.000000	1.209849
1626.000000	1.209393
1624.000000	1.208524
1622.000000	1.209840
1620.000000	1.209111
1618.000000	1.205689
1616.000000	1.207785
1614.000000	1.211058
1612.000000	1.210551
1610.000000	1.210624
1608.000000	1.211258
1606.000000	1.211955
1604.000000	1.212052
1602.000000	1.212171
1600.000000	1.212206
1598.000000	1.212287
1596.000000	1.212191
1594.000000	1.212209
1592.000000	1.212113
1590.000000	1.212069
1588.000000	1.212067
1586.000000	1.212099
1584.000000	1.212100
1582.000000	1.212222
1580.000000	1.211316
1578.000000	1.207452
1576.000000	1.207657
1574.000000	1.211995
1572.000000	1.210568
1570.000000	1.209335
1568.000000	1.211044
1566.000000	1.211516
1564.000000	1.210570
1562.000000	1.205417
1560.000000	1.199895
1558.000000	1.205315
1556.000000	1.209861
1554.000000	1.210660
1552.000000	1.211838
1550.000000	1.211866
1548.000000	1.211570
1546.000000	1.209759
1544.000000	1.207383
1542.000000	1.203803
1540.000000	1.203863
1538.000000	1.210195
1536.000000	1.211351
1534.000000	1.209629
1532.000000	1.211332
1530.000000	1.211447
1528.000000	1.210042
1526.000000	1.209349
1524.000000	1.207716
1522.000000	1.205683
1520.000000	1.208419
1518.000000	1.209551
1516.000000	1.210146
1514.000000	1.210840
1512.000000	1.210338
1510.000000	1.207972
1508.000000	1.203120
1506.000000	1.205127
1504.000000	1.210567
1502.000000	1.209729
1500.000000	1.206419
1498.000000	1.204046
1496.000000	1.206702
1494.000000	1.211989
1492.000000	1.212979
1490.000000	1.212844
1488.000000	1.213514
1486.000000	1.213746
1484.000000	1.213417
1482.000000	1.212700
1480.000000	1.212361
1478.000000	1.211102
1476.000000	1.209398
1474.000000	1.207573
1472.000000	1.209128
1470.000000	1.211777
1468.000000	1.211236
1466.000000	1.209728
1464.000000	1.210663
1462.000000	1.211166
1460.000000	1.207594
1458.000000	1.203474
1456.000000	1.206573
1454.000000	1.210490
1452.000000	1.211072
1450.000000	1.212006
1448.000000	1.212623
1446.000000	1.212923
1444.000000	1.212280
1442.000000	1.211894
1440.000000	1.210755
1438.000000	1.208360
1436.000000	1.209597
1434.000000	1.211815
1432.000000	1.211041
1430.000000	1.210854
1428.000000	1.211386
1426.000000	1.211284
1424.000000	1.210898
1422.000000	1.209637
1420.000000	1.207627
1418.000000	1.209697
1416.000000	1.211294
1414.000000	1.211269
1412.000000	1.210904
1410.000000	1.210687
1408.000000	1.210199
1406.000000	1.209967
1404.000000	1.210843
1402.000000	1.211430
1400.000000	1.210926
1398.000000	1.211080
1396.000000	1.210437
1394.000000	1.210825
1392.000000	1.211556
1390.000000	1.210577
1388.000000	1.209529
1386.000000	1.210382
1384.000000	1.211277
1382.000000	1.211549
1380.000000	1.211239
1378.000000	1.210851
1376.000000	1.210285
1374.000000	1.210283
1372.000000	1.210762
1370.000000	1.210638
1368.000000	1.210541
1366.000000	1.210361
1364.000000	1.209631
1362.000000	1.209791
1360.000000	1.210330
1358.000000	1.210393
1356.000000	1.210286
1354.000000	1.210344
1352.000000	1.210316
1350.000000	1.210271
1348.000000	1.210241
1346.000000	1.210256
1344.000000	1.210162
1342.000000	1.209753
1340.000000	1.209350
1338.000000	1.209651
1336.000000	1.210009
1334.000000	1.210086
1332.000000	1.209919
1330.000000	1.209804
1328.000000	1.209692
1326.000000	1.209677
1324.000000	1.209577
1322.000000	1.209437
1320.000000	1.209144
1318.000000	1.209050
1316.000000	1.209010
1314.000000	1.208939
1312.000000	1.208956
1310.000000	1.209016
1308.000000	1.208945
1306.000000	1.208905
1304.000000	1.208801
1302.000000	1.208776
1300.000000	1.208768
1298.000000	1.208791
1296.000000	1.208692
1294.000000	1.208580
1292.000000	1.208552
1290.000000	1.208630
1288.000000	1.208578
1286.000000	1.208526
1284.000000	1.208529
1282.000000	1.208579
1280.000000	1.208575
1278.000000	1.208538
1276.000000	1.208526
1274.000000	1.208616
1272.000000	1.208791
1270.000000	1.209225
1268.000000	1.209832
1266.000000	1.211002
1264.000000	1.213043
1262.000000	1.215705
1260.000000	1.217877
1258.000000	1.218630
1256.000000	1.217526
1254.000000	1.215561
1252.000000	1.213758
1250.000000	1.212635
1248.000000	1.212135
1246.000000	1.211999
1244.000000	1.211984
1242.000000	1.212247
1240.000000	1.212547
1238.000000	1.212825
1236.000000	1.213076
1234.000000	1.213384
1232.000000	1.213678
1230.000000	1.213966
1228.000000	1.214048
1226.000000	1.214230
1224.000000	1.214465
1222.000000	1.214904
1220.000000	1.215223
1218.000000	1.215478
1216.000000	1.215704
1214.000000	1.216057
1212.000000	1.216475
1210.000000	1.216862
1208.000000	1.217054
1206.000000	1.217224
1204.000000	1.217384
1202.000000	1.217723
1200.000000	1.218056
1198.000000	1.218456
1196.000000	1.218845
1194.000000	1.219256
1192.000000	1.219532
1190.000000	1.219885
1188.000000	1.220209
1186.000000	1.220531
1184.000000	1.220529
1182.000000	1.220750
1180.000000	1.221868
1178.000000	1.222850
1176.000000	1.222973
1174.000000	1.223104
1172.000000	1.223386
1170.000000	1.223802
1168.000000	1.224142
1166.000000	1.224610
1164.000000	1.225054
1162.000000	1.225474
1160.000000	1.225915
1158.000000	1.226433
1156.000000	1.226764
1154.000000	1.227122
1152.000000	1.227491
1150.000000	1.227818
1148.000000	1.227991
1146.000000	1.228307
1144.000000	1.228547
1142.000000	1.228943
1140.000000	1.229348
1138.000000	1.229652
1136.000000	1.229961
1134.000000	1.230231
1132.000000	1.230271
1130.000000	1.230442
1128.000000	1.230649
1126.000000	1.230944
1124.000000	1.231280
1122.000000	1.231634
1120.000000	1.231907
1118.000000	1.232209
1116.000000	1.232370
1114.000000	1.232707
1112.000000	1.233090
1110.000000	1.233848
1108.000000	1.234680
1106.000000	1.235153
1104.000000	1.235433
1102.000000	1.236147
1100.000000	1.236627
1098.000000	1.236766
1096.000000	1.236959
1094.000000	1.237536
1092.000000	1.237854
1090.000000	1.238071
1088.000000	1.237984
1086.000000	1.237792
1084.000000	1.237465
1082.000000	1.237305
1080.000000	1.237087
1078.000000	1.236717
1076.000000	1.236635
1074.000000	1.236505
1072.000000	1.235849
1070.000000	1.235573
1068.000000	1.235260
1066.000000	1.234840
1064.000000	1.234452
1062.000000	1.234047
1060.000000	1.233410
1058.000000	1.232837
1056.000000	1.231800
1054.000000	1.230500
1052.000000	1.230158
1050.000000	1.231265
1048.000000	1.232089
1046.000000	1.231652
1044.000000	1.230684
1042.000000	1.229941
1040.000000	1.228762
1038.000000	1.227893
1036.000000	1.227733
1034.000000	1.227372
1032.000000	1.226339
1030.000000	1.225817
1028.000000	1.226089
1026.000000	1.226220
1024.000000	1.225513
1022.000000	1.224916
1020.000000	1.224503
1018.000000	1.224150
1016.000000	1.223179
1014.000000	1.222010
1012.000000	1.220301
1010.000000	1.218617
1008.000000	1.216801
1006.000000	1.215323
1004.000000	1.213698
1002.000000	1.212025
1000.000000	1.210540
