PE IR       SUBTECH     SPECTRUM    ASCII       PEDS        4.00        
   -1
TE109A_033_105K.ASC
20/04/21
14:12:41.00
20/04/21
14:12:41.00
Administrator
TE109A, Tuesday, April 21 2020, 033.
1000.000000
#HDR
-1
-1
#GR
cm-1
A
1.0
0.0
6000.000000
-2.000000
2501
8
1.226761
1.093600
#DATA
6000.000000	1.106436
5998.000000	1.107970
5996.000000	1.109191
5994.000000	1.106670
5992.000000	1.106449
5990.000000	1.107250
5988.000000	1.109529
5986.000000	1.109905
5984.000000	1.108838
5982.000000	1.108437
5980.000000	1.107137
5978.000000	1.106064
5976.000000	1.105423
5974.000000	1.105876
5972.000000	1.106419
5970.000000	1.105838
5968.000000	1.104809
5966.000000	1.103566
5964.000000	1.104237
5962.000000	1.104295
5960.000000	1.104434
5958.000000	1.104807
5956.000000	1.105214
5954.000000	1.104964
5952.000000	1.104209
5950.000000	1.104235
5948.000000	1.105039
5946.000000	1.105846
5944.000000	1.105085
5942.000000	1.104275
5940.000000	1.103983
5938.000000	1.104014
5936.000000	1.104457
5934.000000	1.104857
5932.000000	1.105390
5930.000000	1.105542
5928.000000	1.105470
5926.000000	1.105447
5924.000000	1.105055
5922.000000	1.105371
5920.000000	1.105732
5918.000000	1.106531
5916.000000	1.105965
5914.000000	1.104762
5912.000000	1.104270
5910.000000	1.104447
5908.000000	1.104846
5906.000000	1.104816
5904.000000	1.104243
5902.000000	1.103880
5900.000000	1.103992
5898.000000	1.104816
5896.000000	1.104658
5894.000000	1.104134
5892.000000	1.103973
5890.000000	1.104121
5888.000000	1.104763
5886.000000	1.104176
5884.000000	1.104855
5882.000000	1.106068
5880.000000	1.105445
5878.000000	1.103897
5876.000000	1.102818
5874.000000	1.103117
5872.000000	1.104608
5870.000000	1.104681
5868.000000	1.104259
5866.000000	1.103999
5864.000000	1.103911
5862.000000	1.104574
5860.000000	1.105437
5858.000000	1.105139
5856.000000	1.104403
5854.000000	1.103435
5852.000000	1.102762
5850.000000	1.103095
5848.000000	1.103731
5846.000000	1.104128
5844.000000	1.103793
5842.000000	1.103610
5840.000000	1.103719
5838.000000	1.103770
5836.000000	1.103339
5834.000000	1.103013
5832.000000	1.103131
5830.000000	1.103298
5828.000000	1.103612
5826.000000	1.104192
5824.000000	1.104925
5822.000000	1.105145
5820.000000	1.104926
5818.000000	1.104284
5816.000000	1.103497
5814.000000	1.103597
5812.000000	1.104050
5810.000000	1.104416
5808.000000	1.104323
5806.000000	1.104162
5804.000000	1.104161
5802.000000	1.104699
5800.000000	1.105069
5798.000000	1.104988
5796.000000	1.104776
5794.000000	1.104500
5792.000000	1.104720
5790.000000	1.104379
5788.000000	1.104156
5786.000000	1.104298
5784.000000	1.104693
5782.000000	1.104779
5780.000000	1.104620
5778.000000	1.104391
5776.000000	1.104685
5774.000000	1.104606
5772.000000	1.104744
5770.000000	1.104227
5768.000000	1.104166
5766.000000	1.104214
5764.000000	1.104653
5762.000000	1.105491
5760.000000	1.105044
5758.000000	1.103358
5756.000000	1.101943
5754.000000	1.100801
5752.000000	1.101572
5750.000000	1.102072
5748.000000	1.102576
5746.000000	1.102893
5744.000000	1.102759
5742.000000	1.103225
5740.000000	1.103655
5738.000000	1.103764
5736.000000	1.103411
5734.000000	1.102752
5732.000000	1.102915
5730.000000	1.103736
5728.000000	1.104604
5726.000000	1.104221
5724.000000	1.103783
5722.000000	1.103588
5720.000000	1.103744
5718.000000	1.103956
5716.000000	1.104008
5714.000000	1.104171
5712.000000	1.104231
5710.000000	1.104114
5708.000000	1.104319
5706.000000	1.104603
5704.000000	1.104700
5702.000000	1.104818
5700.000000	1.104428
5698.000000	1.104132
5696.000000	1.104048
5694.000000	1.104169
5692.000000	1.104630
5690.000000	1.104422
5688.000000	1.104071
5686.000000	1.103824
5684.000000	1.104040
5682.000000	1.104455
5680.000000	1.104744
5678.000000	1.104440
5676.000000	1.104084
5674.000000	1.104212
5672.000000	1.104558
5670.000000	1.104326
5668.000000	1.103809
5666.000000	1.103871
5664.000000	1.104449
5662.000000	1.104836
5660.000000	1.104868
5658.000000	1.105029
5656.000000	1.104926
5654.000000	1.104614
5652.000000	1.104246
5650.000000	1.104020
5648.000000	1.103812
5646.000000	1.103688
5644.000000	1.103820
5642.000000	1.103656
5640.000000	1.103124
5638.000000	1.102999
5636.000000	1.103373
5634.000000	1.103928
5632.000000	1.104366
5630.000000	1.104283
5628.000000	1.103913
5626.000000	1.103842
5624.000000	1.103893
5622.000000	1.104224
5620.000000	1.104324
5618.000000	1.104514
5616.000000	1.104564
5614.000000	1.104639
5612.000000	1.104802
5610.000000	1.105160
5608.000000	1.105223
5606.000000	1.104997
5604.000000	1.104829
5602.000000	1.104336
5600.000000	1.104149
5598.000000	1.103711
5596.000000	1.103479
5594.000000	1.103546
5592.000000	1.103926
5590.000000	1.104211
5588.000000	1.104164
5586.000000	1.104109
5584.000000	1.104053
5582.000000	1.104303
5580.000000	1.104320
5578.000000	1.104205
5576.000000	1.103880
5574.000000	1.103726
5572.000000	1.104058
5570.000000	1.104352
5568.000000	1.104413
5566.000000	1.104147
5564.000000	1.103889
5562.000000	1.103997
5560.000000	1.104024
5558.000000	1.103998
5556.000000	1.103787
5554.000000	1.103761
5552.000000	1.103892
5550.000000	1.104227
5548.000000	1.104273
5546.000000	1.104065
5544.000000	1.103943
5542.000000	1.104192
5540.000000	1.104372
5538.000000	1.104254
5536.000000	1.103960
5534.000000	1.103470
5532.000000	1.103223
5530.000000	1.103124
5528.000000	1.103247
5526.000000	1.103151
5524.000000	1.103354
5522.000000	1.103815
5520.000000	1.104377
5518.000000	1.103981
5516.000000	1.103735
5514.000000	1.103685
5512.000000	1.103629
5510.000000	1.103178
5508.000000	1.102371
5506.000000	1.102945
5504.000000	1.103956
5502.000000	1.104477
5500.000000	1.104260
5498.000000	1.103821
5496.000000	1.104271
5494.000000	1.104574
5492.000000	1.104381
5490.000000	1.103861
5488.000000	1.103345
5486.000000	1.103362
5484.000000	1.103629
5482.000000	1.103908
5480.000000	1.103998
5478.000000	1.103761
5476.000000	1.103552
5474.000000	1.103255
5472.000000	1.103234
5470.000000	1.103629
5468.000000	1.103943
5466.000000	1.104011
5464.000000	1.103770
5462.000000	1.103577
5460.000000	1.103783
5458.000000	1.103979
5456.000000	1.103907
5454.000000	1.103422
5452.000000	1.103245
5450.000000	1.103690
5448.000000	1.104076
5446.000000	1.103785
5444.000000	1.103452
5442.000000	1.103490
5440.000000	1.103867
5438.000000	1.103997
5436.000000	1.103447
5434.000000	1.103275
5432.000000	1.103118
5430.000000	1.103353
5428.000000	1.103254
5426.000000	1.103257
5424.000000	1.103296
5422.000000	1.103191
5420.000000	1.103132
5418.000000	1.103253
5416.000000	1.103475
5414.000000	1.103717
5412.000000	1.103746
5410.000000	1.103902
5408.000000	1.104059
5406.000000	1.104011
5404.000000	1.104086
5402.000000	1.104024
5400.000000	1.104417
5398.000000	1.104625
5396.000000	1.104178
5394.000000	1.103486
5392.000000	1.102971
5390.000000	1.103255
5388.000000	1.103508
5386.000000	1.103486
5384.000000	1.103673
5382.000000	1.103839
5380.000000	1.103790
5378.000000	1.103517
5376.000000	1.103419
5374.000000	1.103704
5372.000000	1.104008
5370.000000	1.103875
5368.000000	1.103845
5366.000000	1.103867
5364.000000	1.104216
5362.000000	1.104204
5360.000000	1.104047
5358.000000	1.103951
5356.000000	1.104007
5354.000000	1.104092
5352.000000	1.104247
5350.000000	1.104375
5348.000000	1.104368
5346.000000	1.104323
5344.000000	1.104232
5342.000000	1.104205
5340.000000	1.104212
5338.000000	1.104309
5336.000000	1.104479
5334.000000	1.104624
5332.000000	1.104729
5330.000000	1.104854
5328.000000	1.105003
5326.000000	1.105422
5324.000000	1.105682
5322.000000	1.105930
5320.000000	1.105780
5318.000000	1.105435
5316.000000	1.105133
5314.000000	1.105006
5312.000000	1.105187
5310.000000	1.105337
5308.000000	1.105688
5306.000000	1.106050
5304.000000	1.106359
5302.000000	1.106617
5300.000000	1.106615
5298.000000	1.106715
5296.000000	1.107044
5294.000000	1.107216
5292.000000	1.107100
5290.000000	1.106701
5288.000000	1.106492
5286.000000	1.106694
5284.000000	1.107352
5282.000000	1.108026
5280.000000	1.108067
5278.000000	1.108196
5276.000000	1.108519
5274.000000	1.108853
5272.000000	1.109063
5270.000000	1.109176
5268.000000	1.109111
5266.000000	1.109098
5264.000000	1.109452
5262.000000	1.109972
5260.000000	1.109963
5258.000000	1.109637
5256.000000	1.109276
5254.000000	1.109509
5252.000000	1.110690
5250.000000	1.111456
5248.000000	1.111834
5246.000000	1.111995
5244.000000	1.112661
5242.000000	1.113008
5240.000000	1.113050
5238.000000	1.113524
5236.000000	1.114088
5234.000000	1.114266
5232.000000	1.114323
5230.000000	1.114894
5228.000000	1.115721
5226.000000	1.116110
5224.000000	1.116046
5222.000000	1.116144
5220.000000	1.116461
5218.000000	1.117201
5216.000000	1.117953
5214.000000	1.118582
5212.000000	1.118792
5210.000000	1.118790
5208.000000	1.118847
5206.000000	1.119249
5204.000000	1.120137
5202.000000	1.121017
5200.000000	1.121465
5198.000000	1.121504
5196.000000	1.121533
5194.000000	1.122178
5192.000000	1.123045
5190.000000	1.123869
5188.000000	1.124278
5186.000000	1.124331
5184.000000	1.124453
5182.000000	1.124825
5180.000000	1.125318
5178.000000	1.125638
5176.000000	1.125988
5174.000000	1.126490
5172.000000	1.126740
5170.000000	1.127090
5168.000000	1.127759
5166.000000	1.128357
5164.000000	1.128515
5162.000000	1.128744
5160.000000	1.129323
5158.000000	1.130039
5156.000000	1.130265
5154.000000	1.130313
5152.000000	1.130545
5150.000000	1.130882
5148.000000	1.131169
5146.000000	1.131081
5144.000000	1.131313
5142.000000	1.131660
5140.000000	1.131996
5138.000000	1.132546
5136.000000	1.132879
5134.000000	1.133196
5132.000000	1.133820
5130.000000	1.134362
5128.000000	1.134212
5126.000000	1.133663
5124.000000	1.133797
5122.000000	1.134308
5120.000000	1.134614
5118.000000	1.135044
5116.000000	1.135189
5114.000000	1.134905
5112.000000	1.134517
5110.000000	1.134513
5108.000000	1.134662
5106.000000	1.134853
5104.000000	1.135036
5102.000000	1.135369
5100.000000	1.135686
5098.000000	1.136002
5096.000000	1.135989
5094.000000	1.135729
5092.000000	1.135873
5090.000000	1.136280
5088.000000	1.136652
5086.000000	1.136719
5084.000000	1.136462
5082.000000	1.136212
5080.000000	1.136291
5078.000000	1.136687
5076.000000	1.136860
5074.000000	1.136913
5072.000000	1.137018
5070.000000	1.136996
5068.000000	1.136731
5066.000000	1.136609
5064.000000	1.136923
5062.000000	1.136909
5060.000000	1.136634
5058.000000	1.136448
5056.000000	1.136817
5054.000000	1.137184
5052.000000	1.137266
5050.000000	1.136854
5048.000000	1.136486
5046.000000	1.136305
5044.000000	1.136556
5042.000000	1.136944
5040.000000	1.136996
5038.000000	1.136618
5036.000000	1.136418
5034.000000	1.136651
5032.000000	1.137180
5030.000000	1.137730
5028.000000	1.138271
5026.000000	1.138027
5024.000000	1.137327
5022.000000	1.136638
5020.000000	1.136097
5018.000000	1.136749
5016.000000	1.137423
5014.000000	1.137172
5012.000000	1.136504
5010.000000	1.137320
5008.000000	1.140041
5006.000000	1.140476
5004.000000	1.138498
5002.000000	1.136174
5000.000000	1.135293
4998.000000	1.135823
4996.000000	1.135605
4994.000000	1.135483
4992.000000	1.134778
4990.000000	1.135448
4988.000000	1.135808
4986.000000	1.135464
4984.000000	1.135295
4982.000000	1.135444
4980.000000	1.135144
4978.000000	1.134732
4976.000000	1.134975
4974.000000	1.135221
4972.000000	1.134911
4970.000000	1.134773
4968.000000	1.134673
4966.000000	1.134391
4964.000000	1.134376
4962.000000	1.134685
4960.000000	1.134841
4958.000000	1.134700
4956.000000	1.134617
4954.000000	1.134224
4952.000000	1.133876
4950.000000	1.133730
4948.000000	1.133636
4946.000000	1.133471
4944.000000	1.133281
4942.000000	1.133280
4940.000000	1.133127
4938.000000	1.132947
4936.000000	1.132748
4934.000000	1.132784
4932.000000	1.132818
4930.000000	1.132611
4928.000000	1.132312
4926.000000	1.132102
4924.000000	1.131887
4922.000000	1.131578
4920.000000	1.131419
4918.000000	1.131625
4916.000000	1.131836
4914.000000	1.131777
4912.000000	1.131402
4910.000000	1.131174
4908.000000	1.130994
4906.000000	1.130707
4904.000000	1.130556
4902.000000	1.130780
4900.000000	1.131050
4898.000000	1.130707
4896.000000	1.130100
4894.000000	1.129745
4892.000000	1.129791
4890.000000	1.129838
4888.000000	1.129622
4886.000000	1.129406
4884.000000	1.129357
4882.000000	1.129368
4880.000000	1.129130
4878.000000	1.128828
4876.000000	1.128594
4874.000000	1.128437
4872.000000	1.128267
4870.000000	1.128093
4868.000000	1.127880
4866.000000	1.127712
4864.000000	1.127496
4862.000000	1.127388
4860.000000	1.127291
4858.000000	1.127140
4856.000000	1.126832
4854.000000	1.126550
4852.000000	1.126290
4850.000000	1.126254
4848.000000	1.126352
4846.000000	1.126144
4844.000000	1.125743
4842.000000	1.125486
4840.000000	1.125294
4838.000000	1.124978
4836.000000	1.124733
4834.000000	1.124610
4832.000000	1.124544
4830.000000	1.124414
4828.000000	1.124112
4826.000000	1.123633
4824.000000	1.123315
4822.000000	1.123329
4820.000000	1.123298
4818.000000	1.123090
4816.000000	1.122818
4814.000000	1.122567
4812.000000	1.122384
4810.000000	1.122274
4808.000000	1.122053
4806.000000	1.121605
4804.000000	1.121479
4802.000000	1.121565
4800.000000	1.121356
4798.000000	1.120944
4796.000000	1.120633
4794.000000	1.120420
4792.000000	1.120162
4790.000000	1.120021
4788.000000	1.119908
4786.000000	1.119530
4784.000000	1.119106
4782.000000	1.118821
4780.000000	1.118660
4778.000000	1.118631
4776.000000	1.118775
4774.000000	1.118614
4772.000000	1.117953
4770.000000	1.117520
4768.000000	1.117565
4766.000000	1.117710
4764.000000	1.117369
4762.000000	1.116806
4760.000000	1.116442
4758.000000	1.116019
4756.000000	1.115505
4754.000000	1.116027
4752.000000	1.116606
4750.000000	1.116461
4748.000000	1.115826
4746.000000	1.115535
4744.000000	1.115138
4742.000000	1.115054
4740.000000	1.115076
4738.000000	1.114993
4736.000000	1.114773
4734.000000	1.114711
4732.000000	1.114711
4730.000000	1.114392
4728.000000	1.113867
4726.000000	1.113723
4724.000000	1.113775
4722.000000	1.113539
4720.000000	1.113183
4718.000000	1.112942
4716.000000	1.112546
4714.000000	1.112115
4712.000000	1.111830
4710.000000	1.111816
4708.000000	1.111847
4706.000000	1.111863
4704.000000	1.111588
4702.000000	1.111137
4700.000000	1.111015
4698.000000	1.111320
4696.000000	1.111527
4694.000000	1.111299
4692.000000	1.110826
4690.000000	1.110588
4688.000000	1.110560
4686.000000	1.110543
4684.000000	1.110266
4682.000000	1.110051
4680.000000	1.110006
4678.000000	1.110103
4676.000000	1.109927
4674.000000	1.109462
4672.000000	1.109239
4670.000000	1.109301
4668.000000	1.109213
4666.000000	1.109092
4664.000000	1.109179
4662.000000	1.109202
4660.000000	1.109035
4658.000000	1.108777
4656.000000	1.108314
4654.000000	1.107910
4652.000000	1.108006
4650.000000	1.108269
4648.000000	1.108266
4646.000000	1.108164
4644.000000	1.108211
4642.000000	1.108225
4640.000000	1.108029
4638.000000	1.107684
4636.000000	1.107492
4634.000000	1.107879
4632.000000	1.108213
4630.000000	1.107940
4628.000000	1.107417
4626.000000	1.107187
4624.000000	1.107188
4622.000000	1.107158
4620.000000	1.106904
4618.000000	1.106770
4616.000000	1.106990
4614.000000	1.106751
4612.000000	1.106118
4610.000000	1.105897
4608.000000	1.106071
4606.000000	1.106168
4604.000000	1.106227
4602.000000	1.106339
4600.000000	1.106174
4598.000000	1.105815
4596.000000	1.105569
4594.000000	1.105506
4592.000000	1.105475
4590.000000	1.105549
4588.000000	1.105551
4586.000000	1.105488
4584.000000	1.105449
4582.000000	1.105340
4580.000000	1.105243
4578.000000	1.105219
4576.000000	1.105105
4574.000000	1.104945
4572.000000	1.104964
4570.000000	1.105039
4568.000000	1.105069
4566.000000	1.105049
4564.000000	1.104963
4562.000000	1.104737
4560.000000	1.104509
4558.000000	1.104483
4556.000000	1.104541
4554.000000	1.104488
4552.000000	1.104319
4550.000000	1.104386
4548.000000	1.104656
4546.000000	1.104674
4544.000000	1.104312
4542.000000	1.104050
4540.000000	1.104106
4538.000000	1.104178
4536.000000	1.104112
4534.000000	1.103911
4532.000000	1.103768
4530.000000	1.103778
4528.000000	1.103669
4526.000000	1.103405
4524.000000	1.103323
4522.000000	1.103679
4520.000000	1.103950
4518.000000	1.103655
4516.000000	1.103201
4514.000000	1.103332
4512.000000	1.103637
4510.000000	1.103568
4508.000000	1.103214
4506.000000	1.103031
4504.000000	1.103430
4502.000000	1.103818
4500.000000	1.103464
4498.000000	1.102789
4496.000000	1.102723
4494.000000	1.103267
4492.000000	1.103436
4490.000000	1.102788
4488.000000	1.102510
4486.000000	1.103067
4484.000000	1.103450
4482.000000	1.103072
4480.000000	1.102688
4478.000000	1.102749
4476.000000	1.102923
4474.000000	1.102956
4472.000000	1.102966
4470.000000	1.102980
4468.000000	1.103065
4466.000000	1.103033
4464.000000	1.102751
4462.000000	1.102631
4460.000000	1.102571
4458.000000	1.102477
4456.000000	1.102510
4454.000000	1.102596
4452.000000	1.102598
4450.000000	1.102689
4448.000000	1.102908
4446.000000	1.102996
4444.000000	1.102773
4442.000000	1.102557
4440.000000	1.102528
4438.000000	1.102513
4436.000000	1.102385
4434.000000	1.102276
4432.000000	1.102405
4430.000000	1.102515
4428.000000	1.102397
4426.000000	1.102402
4424.000000	1.102590
4422.000000	1.102620
4420.000000	1.102594
4418.000000	1.102670
4416.000000	1.102853
4414.000000	1.102909
4412.000000	1.102774
4410.000000	1.102618
4408.000000	1.102626
4406.000000	1.102704
4404.000000	1.102795
4402.000000	1.102883
4400.000000	1.102851
4398.000000	1.102835
4396.000000	1.102749
4394.000000	1.102572
4392.000000	1.102748
4390.000000	1.102856
4388.000000	1.102516
4386.000000	1.102544
4384.000000	1.102836
4382.000000	1.102764
4380.000000	1.102614
4378.000000	1.102772
4376.000000	1.103297
4374.000000	1.103715
4372.000000	1.103612
4370.000000	1.103434
4368.000000	1.103493
4366.000000	1.103584
4364.000000	1.103607
4362.000000	1.103720
4360.000000	1.103922
4358.000000	1.104116
4356.000000	1.104085
4354.000000	1.103999
4352.000000	1.103968
4350.000000	1.103953
4348.000000	1.103950
4346.000000	1.104048
4344.000000	1.104143
4342.000000	1.104249
4340.000000	1.104385
4338.000000	1.104653
4336.000000	1.104849
4334.000000	1.104886
4332.000000	1.105022
4330.000000	1.105030
4328.000000	1.104971
4326.000000	1.105147
4324.000000	1.105296
4322.000000	1.105318
4320.000000	1.105498
4318.000000	1.105756
4316.000000	1.105815
4314.000000	1.105793
4312.000000	1.106003
4310.000000	1.106173
4308.000000	1.106187
4306.000000	1.106217
4304.000000	1.106215
4302.000000	1.106224
4300.000000	1.106331
4298.000000	1.106461
4296.000000	1.106645
4294.000000	1.106647
4292.000000	1.106513
4290.000000	1.106553
4288.000000	1.106840
4286.000000	1.107192
4284.000000	1.107445
4282.000000	1.107397
4280.000000	1.107235
4278.000000	1.107357
4276.000000	1.107706
4274.000000	1.107908
4272.000000	1.107848
4270.000000	1.107669
4268.000000	1.107653
4266.000000	1.107799
4264.000000	1.107948
4262.000000	1.108295
4260.000000	1.108483
4258.000000	1.108157
4256.000000	1.108423
4254.000000	1.109164
4252.000000	1.109189
4250.000000	1.108995
4248.000000	1.108928
4246.000000	1.108678
4244.000000	1.108705
4242.000000	1.108984
4240.000000	1.109051
4238.000000	1.108973
4236.000000	1.108913
4234.000000	1.109059
4232.000000	1.109354
4230.000000	1.109665
4228.000000	1.109792
4226.000000	1.109683
4224.000000	1.109544
4222.000000	1.109593
4220.000000	1.109807
4218.000000	1.110164
4216.000000	1.110303
4214.000000	1.110229
4212.000000	1.110196
4210.000000	1.110153
4208.000000	1.109893
4206.000000	1.109802
4204.000000	1.110043
4202.000000	1.110148
4200.000000	1.110182
4198.000000	1.110290
4196.000000	1.110240
4194.000000	1.110287
4192.000000	1.110427
4190.000000	1.110419
4188.000000	1.110459
4186.000000	1.110498
4184.000000	1.110444
4182.000000	1.110524
4180.000000	1.110750
4178.000000	1.110758
4176.000000	1.110592
4174.000000	1.110651
4172.000000	1.110845
4170.000000	1.110867
4168.000000	1.110875
4166.000000	1.110966
4164.000000	1.110978
4162.000000	1.111044
4160.000000	1.111164
4158.000000	1.111235
4156.000000	1.111270
4154.000000	1.111367
4152.000000	1.111460
4150.000000	1.111315
4148.000000	1.111046
4146.000000	1.111131
4144.000000	1.111507
4142.000000	1.111701
4140.000000	1.111637
4138.000000	1.111584
4136.000000	1.111636
4134.000000	1.111741
4132.000000	1.111793
4130.000000	1.111715
4128.000000	1.111200
4126.000000	1.110942
4124.000000	1.111304
4122.000000	1.111307
4120.000000	1.111154
4118.000000	1.111523
4116.000000	1.111882
4114.000000	1.111866
4112.000000	1.111474
4110.000000	1.111232
4108.000000	1.111495
4106.000000	1.111847
4104.000000	1.111855
4102.000000	1.111767
4100.000000	1.111938
4098.000000	1.112175
4096.000000	1.112217
4094.000000	1.112358
4092.000000	1.112593
4090.000000	1.112463
4088.000000	1.112115
4086.000000	1.111969
4084.000000	1.112063
4082.000000	1.112244
4080.000000	1.112325
4078.000000	1.112369
4076.000000	1.112407
4074.000000	1.112418
4072.000000	1.112348
4070.000000	1.112315
4068.000000	1.112422
4066.000000	1.112451
4064.000000	1.112646
4062.000000	1.112902
4060.000000	1.112798
4058.000000	1.112736
4056.000000	1.112707
4054.000000	1.112550
4052.000000	1.112591
4050.000000	1.112871
4048.000000	1.113018
4046.000000	1.112913
4044.000000	1.112813
4042.000000	1.113120
4040.000000	1.113514
4038.000000	1.113531
4036.000000	1.113299
4034.000000	1.113381
4032.000000	1.113755
4030.000000	1.113676
4028.000000	1.113228
4026.000000	1.113157
4024.000000	1.112930
4022.000000	1.112483
4020.000000	1.112914
4018.000000	1.113837
4016.000000	1.113942
4014.000000	1.113635
4012.000000	1.113435
4010.000000	1.113416
4008.000000	1.113998
4006.000000	1.113205
4004.000000	1.109812
4002.000000	1.108602
4000.000000	1.111199
3998.000000	1.113238
3996.000000	1.113299
3994.000000	1.112954
3992.000000	1.113225
3990.000000	1.113472
3988.000000	1.113183
3986.000000	1.112713
3984.000000	1.111941
3982.000000	1.111726
3980.000000	1.112280
3978.000000	1.112510
3976.000000	1.112373
3974.000000	1.112390
3972.000000	1.112441
3970.000000	1.112380
3968.000000	1.112460
3966.000000	1.112383
3964.000000	1.112146
3962.000000	1.112081
3960.000000	1.111984
3958.000000	1.111823
3956.000000	1.111478
3954.000000	1.111118
3952.000000	1.110875
3950.000000	1.110601
3948.000000	1.110334
3946.000000	1.110240
3944.000000	1.110308
3942.000000	1.110073
3940.000000	1.109637
3938.000000	1.109466
3936.000000	1.109340
3934.000000	1.108955
3932.000000	1.108370
3930.000000	1.108175
3928.000000	1.108198
3926.000000	1.107719
3924.000000	1.107274
3922.000000	1.107128
3920.000000	1.106728
3918.000000	1.106245
3916.000000	1.106103
3914.000000	1.106419
3912.000000	1.106490
3910.000000	1.105964
3908.000000	1.105388
3906.000000	1.104739
3904.000000	1.103921
3902.000000	1.103411
3900.000000	1.103319
3898.000000	1.103426
3896.000000	1.103390
3894.000000	1.103145
3892.000000	1.102713
3890.000000	1.102297
3888.000000	1.102060
3886.000000	1.101442
3884.000000	1.100942
3882.000000	1.100945
3880.000000	1.100319
3878.000000	1.100063
3876.000000	1.100548
3874.000000	1.100470
3872.000000	1.099867
3870.000000	1.098976
3868.000000	1.098566
3866.000000	1.098780
3864.000000	1.098847
3862.000000	1.098948
3860.000000	1.099298
3858.000000	1.099165
3856.000000	1.097186
3854.000000	1.094226
3852.000000	1.093857
3850.000000	1.096126
3848.000000	1.097687
3846.000000	1.097980
3844.000000	1.097852
3842.000000	1.097416
3840.000000	1.096413
3838.000000	1.095098
3836.000000	1.094982
3834.000000	1.095873
3832.000000	1.096343
3830.000000	1.096569
3828.000000	1.096603
3826.000000	1.096582
3824.000000	1.096265
3822.000000	1.095158
3820.000000	1.094751
3818.000000	1.094745
3816.000000	1.094339
3814.000000	1.094980
3812.000000	1.096169
3810.000000	1.096370
3808.000000	1.095375
3806.000000	1.094753
3804.000000	1.094832
3802.000000	1.094215
3800.000000	1.094222
3798.000000	1.095140
3796.000000	1.095570
3794.000000	1.095968
3792.000000	1.096330
3790.000000	1.096311
3788.000000	1.096336
3786.000000	1.096328
3784.000000	1.096245
3782.000000	1.096310
3780.000000	1.096355
3778.000000	1.096459
3776.000000	1.096600
3774.000000	1.096685
3772.000000	1.096474
3770.000000	1.096027
3768.000000	1.096236
3766.000000	1.096669
3764.000000	1.096742
3762.000000	1.096745
3760.000000	1.096356
3758.000000	1.096132
3756.000000	1.096694
3754.000000	1.096417
3752.000000	1.094890
3750.000000	1.093869
3748.000000	1.094296
3746.000000	1.094234
3744.000000	1.093600
3742.000000	1.095085
3740.000000	1.096858
3738.000000	1.096798
3736.000000	1.096065
3734.000000	1.096042
3732.000000	1.096887
3730.000000	1.097970
3728.000000	1.098453
3726.000000	1.098503
3724.000000	1.098932
3722.000000	1.099501
3720.000000	1.099958
3718.000000	1.100357
3716.000000	1.100581
3714.000000	1.100365
3712.000000	1.099976
3710.000000	1.100585
3708.000000	1.102195
3706.000000	1.103659
3704.000000	1.104462
3702.000000	1.104979
3700.000000	1.105882
3698.000000	1.107102
3696.000000	1.108298
3694.000000	1.109055
3692.000000	1.109085
3690.000000	1.108992
3688.000000	1.109764
3686.000000	1.112145
3684.000000	1.114947
3682.000000	1.116722
3680.000000	1.118050
3678.000000	1.118840
3676.000000	1.118964
3674.000000	1.120684
3672.000000	1.123145
3670.000000	1.124817
3668.000000	1.127401
3666.000000	1.130490
3664.000000	1.132899
3662.000000	1.134959
3660.000000	1.136779
3658.000000	1.138065
3656.000000	1.139434
3654.000000	1.141626
3652.000000	1.143081
3650.000000	1.143488
3648.000000	1.144888
3646.000000	1.147677
3644.000000	1.150819
3642.000000	1.153155
3640.000000	1.154704
3638.000000	1.156090
3636.000000	1.157342
3634.000000	1.158483
3632.000000	1.159265
3630.000000	1.159230
3628.000000	1.160044
3626.000000	1.162556
3624.000000	1.164839
3622.000000	1.166032
3620.000000	1.166399
3618.000000	1.166996
3616.000000	1.168247
3614.000000	1.169105
3612.000000	1.169864
3610.000000	1.170936
3608.000000	1.171796
3606.000000	1.172973
3604.000000	1.174371
3602.000000	1.175191
3600.000000	1.175778
3598.000000	1.176422
3596.000000	1.176939
3594.000000	1.177580
3592.000000	1.178485
3590.000000	1.178990
3588.000000	1.178928
3586.000000	1.179282
3584.000000	1.180314
3582.000000	1.181277
3580.000000	1.181856
3578.000000	1.182174
3576.000000	1.182547
3574.000000	1.183027
3572.000000	1.183292
3570.000000	1.183187
3568.000000	1.182805
3566.000000	1.183021
3564.000000	1.184020
3562.000000	1.184394
3560.000000	1.184604
3558.000000	1.185352
3556.000000	1.185953
3554.000000	1.186262
3552.000000	1.186219
3550.000000	1.186225
3548.000000	1.186426
3546.000000	1.186635
3544.000000	1.186931
3542.000000	1.187380
3540.000000	1.187760
3538.000000	1.187965
3536.000000	1.188099
3534.000000	1.188415
3532.000000	1.188912
3530.000000	1.189175
3528.000000	1.189460
3526.000000	1.189588
3524.000000	1.189473
3522.000000	1.189642
3520.000000	1.190015
3518.000000	1.190233
3516.000000	1.190423
3514.000000	1.190822
3512.000000	1.191107
3510.000000	1.191462
3508.000000	1.191654
3506.000000	1.191422
3504.000000	1.191874
3502.000000	1.192576
3500.000000	1.192760
3498.000000	1.192791
3496.000000	1.192779
3494.000000	1.193371
3492.000000	1.193735
3490.000000	1.193457
3488.000000	1.193808
3486.000000	1.194663
3484.000000	1.195101
3482.000000	1.194926
3480.000000	1.194806
3478.000000	1.195006
3476.000000	1.195201
3474.000000	1.195488
3472.000000	1.195833
3470.000000	1.196005
3468.000000	1.196170
3466.000000	1.196444
3464.000000	1.196655
3462.000000	1.196720
3460.000000	1.196925
3458.000000	1.197562
3456.000000	1.198181
3454.000000	1.198384
3452.000000	1.198336
3450.000000	1.198511
3448.000000	1.198949
3446.000000	1.199001
3444.000000	1.198878
3442.000000	1.199236
3440.000000	1.199679
3438.000000	1.199816
3436.000000	1.199834
3434.000000	1.200071
3432.000000	1.200434
3430.000000	1.200702
3428.000000	1.200722
3426.000000	1.200848
3424.000000	1.201042
3422.000000	1.201096
3420.000000	1.201147
3418.000000	1.201373
3416.000000	1.201693
3414.000000	1.201626
3412.000000	1.201576
3410.000000	1.202024
3408.000000	1.202295
3406.000000	1.202051
3404.000000	1.202125
3402.000000	1.202482
3400.000000	1.202588
3398.000000	1.202492
3396.000000	1.202521
3394.000000	1.202809
3392.000000	1.203029
3390.000000	1.203159
3388.000000	1.203177
3386.000000	1.203396
3384.000000	1.203806
3382.000000	1.203822
3380.000000	1.203660
3378.000000	1.203981
3376.000000	1.203917
3374.000000	1.203781
3372.000000	1.204222
3370.000000	1.204203
3368.000000	1.204225
3366.000000	1.204555
3364.000000	1.204478
3362.000000	1.204378
3360.000000	1.204340
3358.000000	1.204345
3356.000000	1.204485
3354.000000	1.204643
3352.000000	1.204642
3350.000000	1.204711
3348.000000	1.204968
3346.000000	1.204849
3344.000000	1.204862
3342.000000	1.205193
3340.000000	1.205283
3338.000000	1.205342
3336.000000	1.205501
3334.000000	1.205574
3332.000000	1.205622
3330.000000	1.205675
3328.000000	1.205744
3326.000000	1.205787
3324.000000	1.205818
3322.000000	1.206007
3320.000000	1.206325
3318.000000	1.206519
3316.000000	1.206374
3314.000000	1.206242
3312.000000	1.206545
3310.000000	1.206844
3308.000000	1.206721
3306.000000	1.206753
3304.000000	1.206882
3302.000000	1.206983
3300.000000	1.206829
3298.000000	1.206631
3296.000000	1.206917
3294.000000	1.207283
3292.000000	1.207484
3290.000000	1.207628
3288.000000	1.207684
3286.000000	1.207678
3284.000000	1.207689
3282.000000	1.207777
3280.000000	1.208345
3278.000000	1.208734
3276.000000	1.208498
3274.000000	1.208333
3272.000000	1.208616
3270.000000	1.208456
3268.000000	1.208195
3266.000000	1.208592
3264.000000	1.208934
3262.000000	1.208901
3260.000000	1.208806
3258.000000	1.208732
3256.000000	1.209033
3254.000000	1.210076
3252.000000	1.210537
3250.000000	1.209587
3248.000000	1.209085
3246.000000	1.208796
3244.000000	1.209077
3242.000000	1.209818
3240.000000	1.209863
3238.000000	1.209738
3236.000000	1.209749
3234.000000	1.209712
3232.000000	1.209658
3230.000000	1.209863
3228.000000	1.210054
3226.000000	1.209597
3224.000000	1.209440
3222.000000	1.209679
3220.000000	1.210006
3218.000000	1.210531
3216.000000	1.210527
3214.000000	1.210103
3212.000000	1.210136
3210.000000	1.210412
3208.000000	1.210351
3206.000000	1.210130
3204.000000	1.210176
3202.000000	1.210338
3200.000000	1.210568
3198.000000	1.210788
3196.000000	1.210671
3194.000000	1.210570
3192.000000	1.210365
3190.000000	1.210477
3188.000000	1.210595
3186.000000	1.210714
3184.000000	1.210836
3182.000000	1.210778
3180.000000	1.210798
3178.000000	1.210680
3176.000000	1.210870
3174.000000	1.211066
3172.000000	1.211127
3170.000000	1.211243
3168.000000	1.211193
3166.000000	1.211176
3164.000000	1.211163
3162.000000	1.211128
3160.000000	1.211148
3158.000000	1.211248
3156.000000	1.211291
3154.000000	1.211150
3152.000000	1.210946
3150.000000	1.210847
3148.000000	1.210832
3146.000000	1.210980
3144.000000	1.211205
3142.000000	1.211292
3140.000000	1.211073
3138.000000	1.211031
3136.000000	1.211282
3134.000000	1.211318
3132.000000	1.211371
3130.000000	1.210671
3128.000000	1.209973
3126.000000	1.210667
3124.000000	1.211452
3122.000000	1.211323
3120.000000	1.211186
3118.000000	1.211614
3116.000000	1.211813
3114.000000	1.211884
3112.000000	1.212166
3110.000000	1.212001
3108.000000	1.211792
3106.000000	1.212182
3104.000000	1.212401
3102.000000	1.211891
3100.000000	1.211420
3098.000000	1.211790
3096.000000	1.212238
3094.000000	1.212380
3092.000000	1.212313
3090.000000	1.211885
3088.000000	1.211600
3086.000000	1.211609
3084.000000	1.211691
3082.000000	1.211800
3080.000000	1.211957
3078.000000	1.212040
3076.000000	1.212112
3074.000000	1.212236
3072.000000	1.212298
3070.000000	1.212227
3068.000000	1.211957
3066.000000	1.211650
3064.000000	1.211706
3062.000000	1.211877
3060.000000	1.212013
3058.000000	1.211995
3056.000000	1.211717
3054.000000	1.211530
3052.000000	1.211768
3050.000000	1.212089
3048.000000	1.212174
3046.000000	1.211987
3044.000000	1.211828
3042.000000	1.211787
3040.000000	1.211627
3038.000000	1.211433
3036.000000	1.211616
3034.000000	1.211496
3032.000000	1.211330
3030.000000	1.210785
3028.000000	1.209826
3026.000000	1.209872
3024.000000	1.210518
3022.000000	1.210405
3020.000000	1.210131
3018.000000	1.211015
3016.000000	1.210636
3014.000000	1.209577
3012.000000	1.210098
3010.000000	1.210181
3008.000000	1.209204
3006.000000	1.207669
3004.000000	1.205717
3002.000000	1.205573
3000.000000	1.208253
2998.000000	1.210186
2996.000000	1.209885
2994.000000	1.209278
2992.000000	1.209475
2990.000000	1.209592
2988.000000	1.208871
2986.000000	1.208230
2984.000000	1.208050
2982.000000	1.207509
2980.000000	1.208236
2978.000000	1.209141
2976.000000	1.208655
2974.000000	1.207769
2972.000000	1.207929
2970.000000	1.208150
2968.000000	1.207938
2966.000000	1.207924
2964.000000	1.207674
2962.000000	1.207043
2960.000000	1.206297
2958.000000	1.205607
2956.000000	1.204782
2954.000000	1.204609
2952.000000	1.204254
2950.000000	1.204063
2948.000000	1.204043
2946.000000	1.203862
2944.000000	1.203605
2942.000000	1.202935
2940.000000	1.202461
2938.000000	1.202326
2936.000000	1.202432
2934.000000	1.202090
2932.000000	1.201399
2930.000000	1.200947
2928.000000	1.200553
2926.000000	1.199661
2924.000000	1.198980
2922.000000	1.198743
2920.000000	1.198292
2918.000000	1.197977
2916.000000	1.197881
2914.000000	1.197538
2912.000000	1.197009
2910.000000	1.196815
2908.000000	1.196515
2906.000000	1.196321
2904.000000	1.196351
2902.000000	1.195689
2900.000000	1.194897
2898.000000	1.194725
2896.000000	1.194685
2894.000000	1.194277
2892.000000	1.194031
2890.000000	1.193515
2888.000000	1.193132
2886.000000	1.193049
2884.000000	1.192778
2882.000000	1.192301
2880.000000	1.191945
2878.000000	1.191604
2876.000000	1.191163
2874.000000	1.191224
2872.000000	1.191176
2870.000000	1.190947
2868.000000	1.190788
2866.000000	1.190485
2864.000000	1.190035
2862.000000	1.189374
2860.000000	1.188878
2858.000000	1.188452
2856.000000	1.188053
2854.000000	1.187818
2852.000000	1.187429
2850.000000	1.187016
2848.000000	1.186519
2846.000000	1.186378
2844.000000	1.186362
2842.000000	1.186425
2840.000000	1.186456
2838.000000	1.186142
2836.000000	1.185579
2834.000000	1.185281
2832.000000	1.185117
2830.000000	1.184797
2828.000000	1.184752
2826.000000	1.184728
2824.000000	1.184733
2822.000000	1.184363
2820.000000	1.183801
2818.000000	1.183316
2816.000000	1.183277
2814.000000	1.183457
2812.000000	1.183514
2810.000000	1.183246
2808.000000	1.182979
2806.000000	1.182858
2804.000000	1.182609
2802.000000	1.182141
2800.000000	1.181929
2798.000000	1.182025
2796.000000	1.181905
2794.000000	1.181747
2792.000000	1.181770
2790.000000	1.181602
2788.000000	1.181194
2786.000000	1.181109
2784.000000	1.181178
2782.000000	1.180938
2780.000000	1.180786
2778.000000	1.180554
2776.000000	1.180145
2774.000000	1.179938
2772.000000	1.180074
2770.000000	1.180211
2768.000000	1.180200
2766.000000	1.179991
2764.000000	1.179760
2762.000000	1.179728
2760.000000	1.179679
2758.000000	1.179845
2756.000000	1.180022
2754.000000	1.179851
2752.000000	1.179274
2750.000000	1.179100
2748.000000	1.179329
2746.000000	1.179387
2744.000000	1.179282
2742.000000	1.178995
2740.000000	1.178927
2738.000000	1.179084
2736.000000	1.179213
2734.000000	1.179052
2732.000000	1.178839
2730.000000	1.178875
2728.000000	1.178854
2726.000000	1.178828
2724.000000	1.178884
2722.000000	1.179060
2720.000000	1.179165
2718.000000	1.178936
2716.000000	1.178863
2714.000000	1.178859
2712.000000	1.178789
2710.000000	1.178929
2708.000000	1.179139
2706.000000	1.179021
2704.000000	1.178878
2702.000000	1.179065
2700.000000	1.179153
2698.000000	1.179019
2696.000000	1.179066
2694.000000	1.178836
2692.000000	1.178969
2690.000000	1.179522
2688.000000	1.179686
2686.000000	1.179519
2684.000000	1.179508
2682.000000	1.179641
2680.000000	1.179842
2678.000000	1.180073
2676.000000	1.180114
2674.000000	1.180004
2672.000000	1.179875
2670.000000	1.179893
2668.000000	1.180153
2666.000000	1.180441
2664.000000	1.180526
2662.000000	1.180572
2660.000000	1.180857
2658.000000	1.181047
2656.000000	1.180993
2654.000000	1.181073
2652.000000	1.181158
2650.000000	1.181348
2648.000000	1.181798
2646.000000	1.182184
2644.000000	1.182232
2642.000000	1.182293
2640.000000	1.182554
2638.000000	1.182809
2636.000000	1.182916
2634.000000	1.183088
2632.000000	1.183353
2630.000000	1.183178
2628.000000	1.183376
2626.000000	1.183976
2624.000000	1.184152
2622.000000	1.184394
2620.000000	1.184452
2618.000000	1.184656
2616.000000	1.184992
2614.000000	1.185135
2612.000000	1.185279
2610.000000	1.185519
2608.000000	1.185855
2606.000000	1.186181
2604.000000	1.186381
2602.000000	1.186542
2600.000000	1.186662
2598.000000	1.186811
2596.000000	1.187039
2594.000000	1.187155
2592.000000	1.187396
2590.000000	1.187836
2588.000000	1.188214
2586.000000	1.188541
2584.000000	1.188824
2582.000000	1.189031
2580.000000	1.189294
2578.000000	1.189574
2576.000000	1.189687
2574.000000	1.189844
2572.000000	1.190143
2570.000000	1.190708
2568.000000	1.190818
2566.000000	1.190913
2564.000000	1.191276
2562.000000	1.191327
2560.000000	1.191669
2558.000000	1.191877
2556.000000	1.192252
2554.000000	1.192907
2552.000000	1.193163
2550.000000	1.193222
2548.000000	1.193440
2546.000000	1.193887
2544.000000	1.194298
2542.000000	1.194607
2540.000000	1.195069
2538.000000	1.195728
2536.000000	1.196243
2534.000000	1.196344
2532.000000	1.196623
2530.000000	1.197023
2528.000000	1.197554
2526.000000	1.198061
2524.000000	1.198346
2522.000000	1.198562
2520.000000	1.198658
2518.000000	1.199113
2516.000000	1.199712
2514.000000	1.199938
2512.000000	1.200499
2510.000000	1.200957
2508.000000	1.201146
2506.000000	1.201219
2504.000000	1.201565
2502.000000	1.202198
2500.000000	1.202178
2498.000000	1.202402
2496.000000	1.203079
2494.000000	1.203338
2492.000000	1.203363
2490.000000	1.203570
2488.000000	1.204018
2486.000000	1.204285
2484.000000	1.204557
2482.000000	1.204661
2480.000000	1.204561
2478.000000	1.205159
2476.000000	1.205932
2474.000000	1.206204
2472.000000	1.206214
2470.000000	1.206219
2468.000000	1.206415
2466.000000	1.206829
2464.000000	1.207046
2462.000000	1.207055
2460.000000	1.207160
2458.000000	1.207581
2456.000000	1.207819
2454.000000	1.207708
2452.000000	1.207788
2450.000000	1.208082
2448.000000	1.208155
2446.000000	1.208221
2444.000000	1.208510
2442.000000	1.208400
2440.000000	1.208164
2438.000000	1.207989
2436.000000	1.208055
2434.000000	1.208404
2432.000000	1.208302
2430.000000	1.208197
2428.000000	1.207975
2426.000000	1.207887
2424.000000	1.207770
2422.000000	1.207573
2420.000000	1.207494
2418.000000	1.207465
2416.000000	1.207371
2414.000000	1.207215
2412.000000	1.207206
2410.000000	1.207316
2408.000000	1.207098
2406.000000	1.206546
2404.000000	1.206475
2402.000000	1.206642
2400.000000	1.206414
2398.000000	1.206270
2396.000000	1.206394
2394.000000	1.206453
2392.000000	1.206224
2390.000000	1.205908
2388.000000	1.205931
2386.000000	1.206196
2384.000000	1.206144
2382.000000	1.206138
2380.000000	1.206142
2378.000000	1.206110
2376.000000	1.205894
2374.000000	1.205508
2372.000000	1.205251
2370.000000	1.205024
2368.000000	1.204813
2366.000000	1.204443
2364.000000	1.204040
2362.000000	1.203923
2360.000000	1.204128
2358.000000	1.204517
2356.000000	1.205069
2354.000000	1.205688
2352.000000	1.206504
2350.000000	1.207403
2348.000000	1.207652
2346.000000	1.207475
2344.000000	1.207748
2342.000000	1.208627
2340.000000	1.209084
2338.000000	1.208557
2336.000000	1.207860
2334.000000	1.207606
2332.000000	1.207334
2330.000000	1.207221
2328.000000	1.207723
2326.000000	1.208103
2324.000000	1.208209
2322.000000	1.208632
2320.000000	1.209061
2318.000000	1.209322
2316.000000	1.209515
2314.000000	1.209744
2312.000000	1.210338
2310.000000	1.210630
2308.000000	1.210675
2306.000000	1.210668
2304.000000	1.210726
2302.000000	1.210909
2300.000000	1.211224
2298.000000	1.211303
2296.000000	1.211454
2294.000000	1.211732
2292.000000	1.212164
2290.000000	1.212451
2288.000000	1.212311
2286.000000	1.212309
2284.000000	1.212474
2282.000000	1.212418
2280.000000	1.212752
2278.000000	1.213102
2276.000000	1.213039
2274.000000	1.213237
2272.000000	1.213592
2270.000000	1.213660
2268.000000	1.213652
2266.000000	1.214077
2264.000000	1.214054
2262.000000	1.213973
2260.000000	1.214210
2258.000000	1.214412
2256.000000	1.214584
2254.000000	1.214283
2252.000000	1.214081
2250.000000	1.214639
2248.000000	1.215004
2246.000000	1.215069
2244.000000	1.215194
2242.000000	1.215484
2240.000000	1.215404
2238.000000	1.215414
2236.000000	1.215597
2234.000000	1.215730
2232.000000	1.215836
2230.000000	1.215963
2228.000000	1.215760
2226.000000	1.215644
2224.000000	1.215966
2222.000000	1.216180
2220.000000	1.216250
2218.000000	1.216290
2216.000000	1.216146
2214.000000	1.216005
2212.000000	1.216310
2210.000000	1.216661
2208.000000	1.216624
2206.000000	1.216650
2204.000000	1.216713
2202.000000	1.216673
2200.000000	1.216483
2198.000000	1.216511
2196.000000	1.216478
2194.000000	1.216341
2192.000000	1.216275
2190.000000	1.216458
2188.000000	1.216704
2186.000000	1.216784
2184.000000	1.216442
2182.000000	1.216286
2180.000000	1.216334
2178.000000	1.216202
2176.000000	1.216263
2174.000000	1.216206
2172.000000	1.216201
2170.000000	1.216112
2168.000000	1.215889
2166.000000	1.215743
2164.000000	1.215610
2162.000000	1.215623
2160.000000	1.215541
2158.000000	1.215458
2156.000000	1.215322
2154.000000	1.215226
2152.000000	1.215206
2150.000000	1.215136
2148.000000	1.215059
2146.000000	1.215066
2144.000000	1.214916
2142.000000	1.214587
2140.000000	1.214349
2138.000000	1.214181
2136.000000	1.214157
2134.000000	1.214030
2132.000000	1.213682
2130.000000	1.213632
2128.000000	1.213789
2126.000000	1.213621
2124.000000	1.213194
2122.000000	1.212856
2120.000000	1.212465
2118.000000	1.212359
2116.000000	1.212282
2114.000000	1.211949
2112.000000	1.211743
2110.000000	1.211647
2108.000000	1.211109
2106.000000	1.210559
2104.000000	1.210432
2102.000000	1.210211
2100.000000	1.210054
2098.000000	1.210081
2096.000000	1.209875
2094.000000	1.209249
2092.000000	1.208819
2090.000000	1.208438
2088.000000	1.208129
2086.000000	1.207947
2084.000000	1.207814
2082.000000	1.207739
2080.000000	1.207478
2078.000000	1.207063
2076.000000	1.206724
2074.000000	1.206507
2072.000000	1.206105
2070.000000	1.205577
2068.000000	1.205488
2066.000000	1.205485
2064.000000	1.205113
2062.000000	1.204425
2060.000000	1.204071
2058.000000	1.203802
2056.000000	1.203489
2054.000000	1.203095
2052.000000	1.202819
2050.000000	1.202706
2048.000000	1.202309
2046.000000	1.201846
2044.000000	1.201346
2042.000000	1.201145
2040.000000	1.200972
2038.000000	1.200701
2036.000000	1.200680
2034.000000	1.200412
2032.000000	1.200002
2030.000000	1.199522
2028.000000	1.199110
2026.000000	1.199252
2024.000000	1.199811
2022.000000	1.199991
2020.000000	1.199294
2018.000000	1.197817
2016.000000	1.197163
2014.000000	1.197129
2012.000000	1.197076
2010.000000	1.196891
2008.000000	1.196541
2006.000000	1.196493
2004.000000	1.198677
2002.000000	1.201340
2000.000000	1.198667
1998.000000	1.196199
1996.000000	1.195743
1994.000000	1.195341
1992.000000	1.194971
1990.000000	1.194962
1988.000000	1.194854
1986.000000	1.194905
1984.000000	1.195369
1982.000000	1.195354
1980.000000	1.195074
1978.000000	1.194816
1976.000000	1.194416
1974.000000	1.194203
1972.000000	1.193953
1970.000000	1.193684
1968.000000	1.193011
1966.000000	1.192560
1964.000000	1.192936
1962.000000	1.193225
1960.000000	1.193195
1958.000000	1.192922
1956.000000	1.192849
1954.000000	1.192940
1952.000000	1.193081
1950.000000	1.193030
1948.000000	1.193083
1946.000000	1.193082
1944.000000	1.192933
1942.000000	1.192603
1940.000000	1.192786
1938.000000	1.193260
1936.000000	1.193072
1934.000000	1.192786
1932.000000	1.192940
1930.000000	1.192947
1928.000000	1.192842
1926.000000	1.192832
1924.000000	1.192844
1922.000000	1.193004
1920.000000	1.192870
1918.000000	1.192433
1916.000000	1.192775
1914.000000	1.193036
1912.000000	1.192936
1910.000000	1.192773
1908.000000	1.193234
1906.000000	1.193555
1904.000000	1.193531
1902.000000	1.193588
1900.000000	1.193473
1898.000000	1.193295
1896.000000	1.193537
1894.000000	1.193786
1892.000000	1.193348
1890.000000	1.193275
1888.000000	1.193735
1886.000000	1.194052
1884.000000	1.194403
1882.000000	1.194820
1880.000000	1.194743
1878.000000	1.195297
1876.000000	1.195648
1874.000000	1.195116
1872.000000	1.194783
1870.000000	1.194181
1868.000000	1.194217
1866.000000	1.194913
1864.000000	1.195484
1862.000000	1.195828
1860.000000	1.195936
1858.000000	1.196129
1856.000000	1.196216
1854.000000	1.196298
1852.000000	1.196445
1850.000000	1.196522
1848.000000	1.196603
1846.000000	1.196356
1844.000000	1.195875
1842.000000	1.196690
1840.000000	1.197618
1838.000000	1.197793
1836.000000	1.197967
1834.000000	1.198252
1832.000000	1.198397
1830.000000	1.198209
1828.000000	1.198533
1826.000000	1.198916
1824.000000	1.199408
1822.000000	1.200029
1820.000000	1.200454
1818.000000	1.200735
1816.000000	1.200882
1814.000000	1.201427
1812.000000	1.201571
1810.000000	1.201660
1808.000000	1.202099
1806.000000	1.202456
1804.000000	1.202715
1802.000000	1.203095
1800.000000	1.203463
1798.000000	1.204021
1796.000000	1.204375
1794.000000	1.203970
1792.000000	1.203801
1790.000000	1.204836
1788.000000	1.205846
1786.000000	1.206267
1784.000000	1.206604
1782.000000	1.207275
1780.000000	1.207734
1778.000000	1.208235
1776.000000	1.208684
1774.000000	1.207960
1772.000000	1.207232
1770.000000	1.208641
1768.000000	1.209668
1766.000000	1.210384
1764.000000	1.211110
1762.000000	1.211339
1760.000000	1.212003
1758.000000	1.212747
1756.000000	1.213258
1754.000000	1.213274
1752.000000	1.212276
1750.000000	1.212874
1748.000000	1.214808
1746.000000	1.215797
1744.000000	1.216089
1742.000000	1.216253
1740.000000	1.216453
1738.000000	1.217220
1736.000000	1.216431
1734.000000	1.214677
1732.000000	1.216118
1730.000000	1.218284
1728.000000	1.219456
1726.000000	1.220246
1724.000000	1.220518
1722.000000	1.220632
1720.000000	1.219970
1718.000000	1.217922
1716.000000	1.218179
1714.000000	1.220144
1712.000000	1.221132
1710.000000	1.221593
1708.000000	1.221734
1706.000000	1.221468
1704.000000	1.221578
1702.000000	1.220286
1700.000000	1.218099
1698.000000	1.218865
1696.000000	1.218613
1694.000000	1.220123
1692.000000	1.222733
1690.000000	1.223159
1688.000000	1.222653
1686.000000	1.220196
1684.000000	1.218483
1682.000000	1.221005
1680.000000	1.223159
1678.000000	1.223697
1676.000000	1.222619
1674.000000	1.222035
1672.000000	1.222759
1670.000000	1.222346
1668.000000	1.222660
1666.000000	1.223907
1664.000000	1.223869
1662.000000	1.223610
1660.000000	1.224232
1658.000000	1.224488
1656.000000	1.223480
1654.000000	1.219484
1652.000000	1.218371
1650.000000	1.222191
1648.000000	1.222985
1646.000000	1.222151
1644.000000	1.223341
1642.000000	1.224436
1640.000000	1.224519
1638.000000	1.223667
1636.000000	1.221471
1634.000000	1.222016
1632.000000	1.224283
1630.000000	1.224993
1628.000000	1.224523
1626.000000	1.224060
1624.000000	1.223645
1622.000000	1.223789
1620.000000	1.224279
1618.000000	1.223039
1616.000000	1.222131
1614.000000	1.224010
1612.000000	1.225294
1610.000000	1.225148
1608.000000	1.224726
1606.000000	1.224638
1604.000000	1.224603
1602.000000	1.224610
1600.000000	1.224659
1598.000000	1.224728
1596.000000	1.224749
1594.000000	1.224736
1592.000000	1.224927
1590.000000	1.225079
1588.000000	1.225145
1586.000000	1.225133
1584.000000	1.225096
1582.000000	1.224931
1580.000000	1.224668
1578.000000	1.223407
1576.000000	1.221640
1574.000000	1.222868
1572.000000	1.224306
1570.000000	1.223698
1568.000000	1.223793
1566.000000	1.224674
1564.000000	1.224866
1562.000000	1.223889
1560.000000	1.220083
1558.000000	1.218721
1556.000000	1.221666
1554.000000	1.223444
1552.000000	1.224356
1550.000000	1.224567
1548.000000	1.224687
1546.000000	1.224455
1544.000000	1.223351
1542.000000	1.221606
1540.000000	1.219736
1538.000000	1.221295
1536.000000	1.224248
1534.000000	1.224146
1532.000000	1.224073
1530.000000	1.224796
1528.000000	1.224654
1526.000000	1.224053
1524.000000	1.223465
1522.000000	1.222071
1520.000000	1.222116
1518.000000	1.223673
1516.000000	1.224649
1514.000000	1.224896
1512.000000	1.224650
1510.000000	1.224679
1508.000000	1.222221
1506.000000	1.220397
1504.000000	1.223260
1502.000000	1.226118
1500.000000	1.226761
1498.000000	1.225851
1496.000000	1.224312
1494.000000	1.224314
1492.000000	1.223965
1490.000000	1.223008
1488.000000	1.223364
1486.000000	1.224323
1484.000000	1.225117
1482.000000	1.225485
1480.000000	1.225535
1478.000000	1.225319
1476.000000	1.224895
1474.000000	1.223990
1472.000000	1.223565
1470.000000	1.224877
1468.000000	1.225901
1466.000000	1.225574
1464.000000	1.225151
1462.000000	1.225469
1460.000000	1.225138
1458.000000	1.223222
1456.000000	1.222767
1454.000000	1.224828
1452.000000	1.225452
1450.000000	1.224722
1448.000000	1.224084
1446.000000	1.224818
1444.000000	1.225571
1442.000000	1.225847
1440.000000	1.225688
1438.000000	1.224310
1436.000000	1.223906
1434.000000	1.225096
1432.000000	1.225150
1430.000000	1.225076
1428.000000	1.225257
1426.000000	1.225213
1424.000000	1.224954
1422.000000	1.224659
1420.000000	1.223403
1418.000000	1.223131
1416.000000	1.224204
1414.000000	1.224679
1412.000000	1.224966
1410.000000	1.225481
1408.000000	1.225621
1406.000000	1.225195
1404.000000	1.224712
1402.000000	1.224490
1400.000000	1.223980
1398.000000	1.223484
1396.000000	1.223292
1394.000000	1.223371
1392.000000	1.223889
1390.000000	1.223992
1388.000000	1.223536
1386.000000	1.223745
1384.000000	1.224326
1382.000000	1.224080
1380.000000	1.223894
1378.000000	1.223670
1376.000000	1.222918
1374.000000	1.223085
1372.000000	1.223630
1370.000000	1.223918
1368.000000	1.223814
1366.000000	1.223557
1364.000000	1.222895
1362.000000	1.222465
1360.000000	1.222881
1358.000000	1.223214
1356.000000	1.223314
1354.000000	1.223191
1352.000000	1.222964
1350.000000	1.222913
1348.000000	1.222989
1346.000000	1.223192
1344.000000	1.222838
1342.000000	1.222404
1340.000000	1.222022
1338.000000	1.221871
1336.000000	1.222091
1334.000000	1.222438
1332.000000	1.222724
1330.000000	1.222757
1328.000000	1.222841
1326.000000	1.222831
1324.000000	1.222461
1322.000000	1.222286
1320.000000	1.222356
1318.000000	1.222539
1316.000000	1.222690
1314.000000	1.222458
1312.000000	1.222041
1310.000000	1.222176
1308.000000	1.222299
1306.000000	1.222235
1304.000000	1.222267
1302.000000	1.222247
1300.000000	1.222062
1298.000000	1.222179
1296.000000	1.222258
1294.000000	1.222216
1292.000000	1.222371
1290.000000	1.222395
1288.000000	1.222181
1286.000000	1.222261
1284.000000	1.222254
1282.000000	1.222089
1280.000000	1.222093
1278.000000	1.222316
1276.000000	1.222261
1274.000000	1.222264
1272.000000	1.222477
1270.000000	1.222826
1268.000000	1.223544
1266.000000	1.224475
1264.000000	1.225332
1262.000000	1.225733
1260.000000	1.225395
1258.000000	1.224495
1256.000000	1.223521
1254.000000	1.222588
1252.000000	1.221649
1250.000000	1.221981
1248.000000	1.222473
1246.000000	1.222110
1244.000000	1.222187
1242.000000	1.222196
1240.000000	1.221817
1238.000000	1.221746
1236.000000	1.222006
1234.000000	1.221961
1232.000000	1.221717
1230.000000	1.221437
1228.000000	1.221317
1226.000000	1.221426
1224.000000	1.221451
1222.000000	1.221664
1220.000000	1.221794
1218.000000	1.221446
1216.000000	1.221284
1214.000000	1.221220
1212.000000	1.221218
1210.000000	1.221049
1208.000000	1.220706
1206.000000	1.220836
1204.000000	1.221110
1202.000000	1.221402
1200.000000	1.221500
1198.000000	1.220964
1196.000000	1.220722
1194.000000	1.220960
1192.000000	1.221243
1190.000000	1.221231
1188.000000	1.221321
1186.000000	1.221253
1184.000000	1.221401
1182.000000	1.221062
1180.000000	1.220717
1178.000000	1.220761
1176.000000	1.221017
1174.000000	1.221451
1172.000000	1.221436
1170.000000	1.221384
1168.000000	1.221424
1166.000000	1.221769
1164.000000	1.222214
1162.000000	1.221857
1160.000000	1.221977
1158.000000	1.222291
1156.000000	1.222291
1154.000000	1.222396
1152.000000	1.222137
1150.000000	1.222309
1148.000000	1.222440
1146.000000	1.222261
1144.000000	1.221716
1142.000000	1.221148
1140.000000	1.221544
1138.000000	1.221745
1136.000000	1.221721
1134.000000	1.221419
1132.000000	1.221550
1130.000000	1.221923
1128.000000	1.223587
1126.000000	1.224716
1124.000000	1.222244
1122.000000	1.221092
1120.000000	1.221881
1118.000000	1.221663
1116.000000	1.221493
1114.000000	1.222269
1112.000000	1.222471
1110.000000	1.222425
1108.000000	1.221897
1106.000000	1.220623
1104.000000	1.220459
1102.000000	1.221282
1100.000000	1.222333
1098.000000	1.222698
1096.000000	1.223157
1094.000000	1.222741
1092.000000	1.222495
1090.000000	1.223241
1088.000000	1.223208
1086.000000	1.223120
1084.000000	1.222561
1082.000000	1.222328
1080.000000	1.222083
1078.000000	1.221385
1076.000000	1.220939
1074.000000	1.220236
1072.000000	1.219747
1070.000000	1.219863
1068.000000	1.219731
1066.000000	1.218761
1064.000000	1.217618
1062.000000	1.216469
1060.000000	1.216302
1058.000000	1.216399
1056.000000	1.216261
1054.000000	1.215710
1052.000000	1.215589
1050.000000	1.214819
1048.000000	1.212588
1046.000000	1.212444
1044.000000	1.211779
1042.000000	1.212122
1040.000000	1.212556
1038.000000	1.213227
1036.000000	1.212298
1034.000000	1.211829
1032.000000	1.210277
1030.000000	1.209789
1028.000000	1.210356
1026.000000	1.210219
1024.000000	1.210359
1022.000000	1.213047
1020.000000	1.213212
1018.000000	1.208163
1016.000000	1.206793
1014.000000	1.208869
1012.000000	1.209663
1010.000000	1.207727
1008.000000	1.206315
1006.000000	1.207646
1004.000000	1.214369
1002.000000	1.226121
1000.000000	1.219010
