PE IR       SUBTECH     SPECTRUM    ASCII       PEDS        4.00        
   -1
TE109A_015_80K.ASC
20/04/21
12:22:55.00
20/04/21
12:23:08.00
Administrator
TE109A, Tuesday, April 21 2020, 015.
1000.000000
#HDR
-1
-1
#GR
cm-1
A
1.0
0.0
6000.000000
-2.000000
2501
8
1.243185
1.134250
#DATA
6000.000000	1.180171
5998.000000	1.179504
5996.000000	1.179139
5994.000000	1.179352
5992.000000	1.180101
5990.000000	1.180627
5988.000000	1.180850
5986.000000	1.179993
5984.000000	1.179188
5982.000000	1.178803
5980.000000	1.178147
5978.000000	1.177750
5976.000000	1.177537
5974.000000	1.177655
5972.000000	1.178514
5970.000000	1.179077
5968.000000	1.178619
5966.000000	1.177971
5964.000000	1.177552
5962.000000	1.177504
5960.000000	1.177862
5958.000000	1.177904
5956.000000	1.177913
5954.000000	1.177815
5952.000000	1.177574
5950.000000	1.177514
5948.000000	1.177786
5946.000000	1.178362
5944.000000	1.178855
5942.000000	1.178775
5940.000000	1.178596
5938.000000	1.178382
5936.000000	1.178566
5934.000000	1.178495
5932.000000	1.178504
5930.000000	1.178501
5928.000000	1.178041
5926.000000	1.177304
5924.000000	1.177158
5922.000000	1.177775
5920.000000	1.177833
5918.000000	1.177102
5916.000000	1.176730
5914.000000	1.177416
5912.000000	1.178263
5910.000000	1.178061
5908.000000	1.177513
5906.000000	1.178003
5904.000000	1.178863
5902.000000	1.179136
5900.000000	1.178024
5898.000000	1.177113
5896.000000	1.176823
5894.000000	1.176864
5892.000000	1.176903
5890.000000	1.176675
5888.000000	1.176663
5886.000000	1.177173
5884.000000	1.177968
5882.000000	1.178126
5880.000000	1.177575
5878.000000	1.177028
5876.000000	1.176881
5874.000000	1.177348
5872.000000	1.177476
5870.000000	1.177251
5868.000000	1.176937
5866.000000	1.176635
5864.000000	1.176843
5862.000000	1.176877
5860.000000	1.176687
5858.000000	1.176466
5856.000000	1.176181
5854.000000	1.175884
5852.000000	1.175667
5850.000000	1.175806
5848.000000	1.176479
5846.000000	1.177040
5844.000000	1.177355
5842.000000	1.177244
5840.000000	1.176805
5838.000000	1.176743
5836.000000	1.176888
5834.000000	1.176992
5832.000000	1.176800
5830.000000	1.176401
5828.000000	1.176225
5826.000000	1.176207
5824.000000	1.175994
5822.000000	1.175695
5820.000000	1.175699
5818.000000	1.176119
5816.000000	1.176435
5814.000000	1.176547
5812.000000	1.176684
5810.000000	1.176868
5808.000000	1.176970
5806.000000	1.176725
5804.000000	1.176406
5802.000000	1.176367
5800.000000	1.176086
5798.000000	1.175991
5796.000000	1.175946
5794.000000	1.176106
5792.000000	1.176264
5790.000000	1.176219
5788.000000	1.176348
5786.000000	1.176467
5784.000000	1.176217
5782.000000	1.175991
5780.000000	1.175740
5778.000000	1.175593
5776.000000	1.175039
5774.000000	1.175152
5772.000000	1.175737
5770.000000	1.176562
5768.000000	1.176790
5766.000000	1.176881
5764.000000	1.177364
5762.000000	1.177338
5760.000000	1.176775
5758.000000	1.175952
5756.000000	1.175501
5754.000000	1.175449
5752.000000	1.175420
5750.000000	1.175814
5748.000000	1.176347
5746.000000	1.176723
5744.000000	1.176667
5742.000000	1.176536
5740.000000	1.176144
5738.000000	1.175655
5736.000000	1.175273
5734.000000	1.175545
5732.000000	1.176055
5730.000000	1.176157
5728.000000	1.175742
5726.000000	1.175222
5724.000000	1.175085
5722.000000	1.175684
5720.000000	1.176308
5718.000000	1.176333
5716.000000	1.175770
5714.000000	1.175470
5712.000000	1.175532
5710.000000	1.175741
5708.000000	1.175914
5706.000000	1.175884
5704.000000	1.175778
5702.000000	1.175693
5700.000000	1.175624
5698.000000	1.175785
5696.000000	1.175589
5694.000000	1.175292
5692.000000	1.174668
5690.000000	1.174376
5688.000000	1.174877
5686.000000	1.175872
5684.000000	1.176178
5682.000000	1.175637
5680.000000	1.175319
5678.000000	1.175511
5676.000000	1.175678
5674.000000	1.175492
5672.000000	1.175243
5670.000000	1.175400
5668.000000	1.175392
5666.000000	1.175219
5664.000000	1.175207
5662.000000	1.175298
5660.000000	1.175561
5658.000000	1.175606
5656.000000	1.175575
5654.000000	1.175482
5652.000000	1.175385
5650.000000	1.175412
5648.000000	1.175430
5646.000000	1.175523
5644.000000	1.175801
5642.000000	1.175700
5640.000000	1.175555
5638.000000	1.175335
5636.000000	1.175227
5634.000000	1.175304
5632.000000	1.175351
5630.000000	1.175518
5628.000000	1.175629
5626.000000	1.175566
5624.000000	1.175555
5622.000000	1.175659
5620.000000	1.175435
5618.000000	1.175015
5616.000000	1.174933
5614.000000	1.175150
5612.000000	1.175130
5610.000000	1.174392
5608.000000	1.173974
5606.000000	1.174471
5604.000000	1.175272
5602.000000	1.175780
5600.000000	1.175984
5598.000000	1.176040
5596.000000	1.176026
5594.000000	1.175728
5592.000000	1.175034
5590.000000	1.174495
5588.000000	1.174422
5586.000000	1.174626
5584.000000	1.174813
5582.000000	1.174875
5580.000000	1.174812
5578.000000	1.174496
5576.000000	1.174087
5574.000000	1.174224
5572.000000	1.174480
5570.000000	1.174469
5568.000000	1.174620
5566.000000	1.175212
5564.000000	1.175487
5562.000000	1.174998
5560.000000	1.174103
5558.000000	1.174053
5556.000000	1.174086
5554.000000	1.173988
5552.000000	1.173745
5550.000000	1.173561
5548.000000	1.173720
5546.000000	1.174005
5544.000000	1.174241
5542.000000	1.174232
5540.000000	1.173787
5538.000000	1.173583
5536.000000	1.173671
5534.000000	1.173639
5532.000000	1.173631
5530.000000	1.173469
5528.000000	1.173515
5526.000000	1.173851
5524.000000	1.174243
5522.000000	1.174189
5520.000000	1.173683
5518.000000	1.173241
5516.000000	1.173431
5514.000000	1.173649
5512.000000	1.173615
5510.000000	1.173696
5508.000000	1.173837
5506.000000	1.173830
5504.000000	1.173514
5502.000000	1.173608
5500.000000	1.173772
5498.000000	1.173762
5496.000000	1.173541
5494.000000	1.173297
5492.000000	1.173226
5490.000000	1.173149
5488.000000	1.173285
5486.000000	1.173615
5484.000000	1.173410
5482.000000	1.173029
5480.000000	1.172608
5478.000000	1.172752
5476.000000	1.173033
5474.000000	1.172952
5472.000000	1.172723
5470.000000	1.172891
5468.000000	1.173000
5466.000000	1.172978
5464.000000	1.172707
5462.000000	1.172500
5460.000000	1.172352
5458.000000	1.172387
5456.000000	1.172557
5454.000000	1.172716
5452.000000	1.172798
5450.000000	1.172919
5448.000000	1.172785
5446.000000	1.172269
5444.000000	1.171802
5442.000000	1.171803
5440.000000	1.172290
5438.000000	1.172640
5436.000000	1.172625
5434.000000	1.172413
5432.000000	1.172067
5430.000000	1.171732
5428.000000	1.171674
5426.000000	1.172113
5424.000000	1.172455
5422.000000	1.172290
5420.000000	1.172185
5418.000000	1.172314
5416.000000	1.172099
5414.000000	1.171547
5412.000000	1.171010
5410.000000	1.171112
5408.000000	1.171518
5406.000000	1.171668
5404.000000	1.171503
5402.000000	1.171546
5400.000000	1.171924
5398.000000	1.172083
5396.000000	1.171905
5394.000000	1.172056
5392.000000	1.172158
5390.000000	1.171983
5388.000000	1.171615
5386.000000	1.171481
5384.000000	1.171316
5382.000000	1.171240
5380.000000	1.171418
5378.000000	1.171525
5376.000000	1.171480
5374.000000	1.171307
5372.000000	1.171181
5370.000000	1.171134
5368.000000	1.171497
5366.000000	1.172090
5364.000000	1.172299
5362.000000	1.172029
5360.000000	1.171724
5358.000000	1.171578
5356.000000	1.171367
5354.000000	1.171143
5352.000000	1.171257
5350.000000	1.171805
5348.000000	1.172169
5346.000000	1.172018
5344.000000	1.171684
5342.000000	1.171600
5340.000000	1.171768
5338.000000	1.171820
5336.000000	1.171875
5334.000000	1.171881
5332.000000	1.171973
5330.000000	1.171829
5328.000000	1.171807
5326.000000	1.172027
5324.000000	1.172315
5322.000000	1.172369
5320.000000	1.172317
5318.000000	1.172370
5316.000000	1.172621
5314.000000	1.172860
5312.000000	1.173207
5310.000000	1.173388
5308.000000	1.173333
5306.000000	1.173379
5304.000000	1.173657
5302.000000	1.173706
5300.000000	1.173502
5298.000000	1.173350
5296.000000	1.173561
5294.000000	1.173773
5292.000000	1.173617
5290.000000	1.173679
5288.000000	1.174227
5286.000000	1.175033
5284.000000	1.175378
5282.000000	1.175170
5280.000000	1.175088
5278.000000	1.175194
5276.000000	1.175339
5274.000000	1.175524
5272.000000	1.175561
5270.000000	1.175355
5268.000000	1.175360
5266.000000	1.175823
5264.000000	1.176327
5262.000000	1.176333
5260.000000	1.176430
5258.000000	1.176856
5256.000000	1.177129
5254.000000	1.177254
5252.000000	1.177623
5250.000000	1.178150
5248.000000	1.178315
5246.000000	1.178364
5244.000000	1.178790
5242.000000	1.179281
5240.000000	1.179540
5238.000000	1.179422
5236.000000	1.179529
5234.000000	1.180074
5232.000000	1.180769
5230.000000	1.181162
5228.000000	1.181261
5226.000000	1.181555
5224.000000	1.182028
5222.000000	1.182721
5220.000000	1.183383
5218.000000	1.183777
5216.000000	1.184179
5214.000000	1.184612
5212.000000	1.185099
5210.000000	1.185246
5208.000000	1.185361
5206.000000	1.185760
5204.000000	1.186410
5202.000000	1.187144
5200.000000	1.187849
5198.000000	1.188353
5196.000000	1.188622
5194.000000	1.188659
5192.000000	1.188942
5190.000000	1.189297
5188.000000	1.189603
5186.000000	1.189931
5184.000000	1.190386
5182.000000	1.190919
5180.000000	1.191375
5178.000000	1.191880
5176.000000	1.192610
5174.000000	1.193086
5172.000000	1.193320
5170.000000	1.193608
5168.000000	1.194233
5166.000000	1.194707
5164.000000	1.194930
5162.000000	1.195265
5160.000000	1.195848
5158.000000	1.196201
5156.000000	1.196352
5154.000000	1.196545
5152.000000	1.196796
5150.000000	1.196838
5148.000000	1.197049
5146.000000	1.197420
5144.000000	1.197687
5142.000000	1.197701
5140.000000	1.198249
5138.000000	1.199000
5136.000000	1.199280
5134.000000	1.199171
5132.000000	1.199117
5130.000000	1.199321
5128.000000	1.199606
5126.000000	1.200162
5124.000000	1.200610
5122.000000	1.200472
5120.000000	1.200202
5118.000000	1.200256
5116.000000	1.200584
5114.000000	1.200721
5112.000000	1.200854
5110.000000	1.201127
5108.000000	1.201032
5106.000000	1.200682
5104.000000	1.200686
5102.000000	1.201178
5100.000000	1.201478
5098.000000	1.201540
5096.000000	1.201675
5094.000000	1.201819
5092.000000	1.201910
5090.000000	1.201970
5088.000000	1.202195
5086.000000	1.202209
5084.000000	1.202056
5082.000000	1.202118
5080.000000	1.202367
5078.000000	1.202357
5076.000000	1.202000
5074.000000	1.201901
5072.000000	1.202043
5070.000000	1.202196
5068.000000	1.202267
5066.000000	1.202138
5064.000000	1.201931
5062.000000	1.201742
5060.000000	1.201660
5058.000000	1.201625
5056.000000	1.201608
5054.000000	1.201663
5052.000000	1.201659
5050.000000	1.201616
5048.000000	1.201636
5046.000000	1.201638
5044.000000	1.201545
5042.000000	1.201576
5040.000000	1.201724
5038.000000	1.201618
5036.000000	1.201401
5034.000000	1.201437
5032.000000	1.201517
5030.000000	1.201414
5028.000000	1.201277
5026.000000	1.201280
5024.000000	1.201122
5022.000000	1.200942
5020.000000	1.200943
5018.000000	1.200995
5016.000000	1.200855
5014.000000	1.200683
5012.000000	1.200840
5010.000000	1.200844
5008.000000	1.200564
5006.000000	1.200125
5004.000000	1.199687
5002.000000	1.199594
5000.000000	1.199895
4998.000000	1.200172
4996.000000	1.200109
4994.000000	1.199963
4992.000000	1.199743
4990.000000	1.199405
4988.000000	1.199158
4986.000000	1.199101
4984.000000	1.199089
4982.000000	1.199182
4980.000000	1.199273
4978.000000	1.198971
4976.000000	1.198323
4974.000000	1.198000
4972.000000	1.198333
4970.000000	1.198712
4968.000000	1.198496
4966.000000	1.197826
4964.000000	1.197424
4962.000000	1.197372
4960.000000	1.197305
4958.000000	1.197074
4956.000000	1.197080
4954.000000	1.197125
4952.000000	1.196942
4950.000000	1.196749
4948.000000	1.196820
4946.000000	1.196881
4944.000000	1.196510
4942.000000	1.196016
4940.000000	1.195672
4938.000000	1.195433
4936.000000	1.195021
4934.000000	1.194739
4932.000000	1.194655
4930.000000	1.194476
4928.000000	1.194356
4926.000000	1.194343
4924.000000	1.194263
4922.000000	1.193806
4920.000000	1.193690
4918.000000	1.193808
4916.000000	1.193749
4914.000000	1.193298
4912.000000	1.192877
4910.000000	1.192720
4908.000000	1.192871
4906.000000	1.192910
4904.000000	1.192407
4902.000000	1.192002
4900.000000	1.191973
4898.000000	1.191865
4896.000000	1.191475
4894.000000	1.191235
4892.000000	1.191063
4890.000000	1.190861
4888.000000	1.190865
4886.000000	1.190856
4884.000000	1.190659
4882.000000	1.190329
4880.000000	1.189878
4878.000000	1.189396
4876.000000	1.189105
4874.000000	1.189045
4872.000000	1.188915
4870.000000	1.188557
4868.000000	1.188134
4866.000000	1.187826
4864.000000	1.187491
4862.000000	1.187049
4860.000000	1.186842
4858.000000	1.186857
4856.000000	1.186888
4854.000000	1.186990
4852.000000	1.186871
4850.000000	1.186381
4848.000000	1.185857
4846.000000	1.185564
4844.000000	1.185234
4842.000000	1.185010
4840.000000	1.184791
4838.000000	1.184572
4836.000000	1.184410
4834.000000	1.184259
4832.000000	1.183859
4830.000000	1.183598
4828.000000	1.183607
4826.000000	1.183563
4824.000000	1.183301
4822.000000	1.182982
4820.000000	1.182682
4818.000000	1.182447
4816.000000	1.182109
4814.000000	1.181562
4812.000000	1.181078
4810.000000	1.180845
4808.000000	1.180807
4806.000000	1.180681
4804.000000	1.180457
4802.000000	1.180163
4800.000000	1.179954
4798.000000	1.179665
4796.000000	1.179334
4794.000000	1.178973
4792.000000	1.178640
4790.000000	1.178515
4788.000000	1.178453
4786.000000	1.178118
4784.000000	1.177474
4782.000000	1.176858
4780.000000	1.176652
4778.000000	1.176688
4776.000000	1.176518
4774.000000	1.176042
4772.000000	1.175832
4770.000000	1.175959
4768.000000	1.175985
4766.000000	1.175688
4764.000000	1.175221
4762.000000	1.174760
4760.000000	1.174423
4758.000000	1.174206
4756.000000	1.173886
4754.000000	1.173744
4752.000000	1.173772
4750.000000	1.173554
4748.000000	1.172959
4746.000000	1.172515
4744.000000	1.172341
4742.000000	1.172180
4740.000000	1.171947
4738.000000	1.171748
4736.000000	1.171600
4734.000000	1.171504
4732.000000	1.171477
4730.000000	1.171287
4728.000000	1.170776
4726.000000	1.170374
4724.000000	1.170218
4722.000000	1.170088
4720.000000	1.169889
4718.000000	1.169604
4716.000000	1.169182
4714.000000	1.168901
4712.000000	1.168840
4710.000000	1.168676
4708.000000	1.168433
4706.000000	1.168346
4704.000000	1.168199
4702.000000	1.167791
4700.000000	1.167403
4698.000000	1.167179
4696.000000	1.167112
4694.000000	1.167103
4692.000000	1.167028
4690.000000	1.166723
4688.000000	1.166267
4686.000000	1.165887
4684.000000	1.165767
4682.000000	1.165827
4680.000000	1.165851
4678.000000	1.165732
4676.000000	1.165359
4674.000000	1.165113
4672.000000	1.164989
4670.000000	1.164713
4668.000000	1.164351
4666.000000	1.164228
4664.000000	1.164076
4662.000000	1.163829
4660.000000	1.163734
4658.000000	1.163758
4656.000000	1.163674
4654.000000	1.163452
4652.000000	1.163219
4650.000000	1.163130
4648.000000	1.163101
4646.000000	1.163021
4644.000000	1.162824
4642.000000	1.162635
4640.000000	1.162430
4638.000000	1.162267
4636.000000	1.162208
4634.000000	1.162047
4632.000000	1.161618
4630.000000	1.161278
4628.000000	1.161197
4626.000000	1.161242
4624.000000	1.161258
4622.000000	1.161215
4620.000000	1.160974
4618.000000	1.160717
4616.000000	1.160636
4614.000000	1.160582
4612.000000	1.160432
4610.000000	1.160287
4608.000000	1.160092
4606.000000	1.159972
4604.000000	1.160012
4602.000000	1.159990
4600.000000	1.159789
4598.000000	1.159409
4596.000000	1.158974
4594.000000	1.158909
4592.000000	1.158966
4590.000000	1.158879
4588.000000	1.158845
4586.000000	1.158850
4584.000000	1.158675
4582.000000	1.158427
4580.000000	1.158193
4578.000000	1.158123
4576.000000	1.158108
4574.000000	1.157985
4572.000000	1.157871
4570.000000	1.157833
4568.000000	1.157885
4566.000000	1.157967
4564.000000	1.157849
4562.000000	1.157499
4560.000000	1.157253
4558.000000	1.157257
4556.000000	1.157318
4554.000000	1.157262
4552.000000	1.157157
4550.000000	1.157010
4548.000000	1.156925
4546.000000	1.156975
4544.000000	1.156852
4542.000000	1.156495
4540.000000	1.156329
4538.000000	1.156313
4536.000000	1.156305
4534.000000	1.156408
4532.000000	1.156365
4530.000000	1.156123
4528.000000	1.155982
4526.000000	1.155907
4524.000000	1.155782
4522.000000	1.155786
4520.000000	1.155801
4518.000000	1.155703
4516.000000	1.155550
4514.000000	1.155429
4512.000000	1.155289
4510.000000	1.155154
4508.000000	1.155090
4506.000000	1.155053
4504.000000	1.154926
4502.000000	1.154748
4500.000000	1.154663
4498.000000	1.154560
4496.000000	1.154463
4494.000000	1.154442
4492.000000	1.154468
4490.000000	1.154457
4488.000000	1.154420
4486.000000	1.154259
4484.000000	1.154098
4482.000000	1.154076
4480.000000	1.154087
4478.000000	1.154097
4476.000000	1.154058
4474.000000	1.153871
4472.000000	1.153647
4470.000000	1.153670
4468.000000	1.153788
4466.000000	1.153737
4464.000000	1.153550
4462.000000	1.153390
4460.000000	1.153297
4458.000000	1.153356
4456.000000	1.153504
4454.000000	1.153444
4452.000000	1.153129
4450.000000	1.152957
4448.000000	1.152986
4446.000000	1.153048
4444.000000	1.153046
4442.000000	1.152942
4440.000000	1.152792
4438.000000	1.152810
4436.000000	1.152776
4434.000000	1.152653
4432.000000	1.152689
4430.000000	1.152765
4428.000000	1.152550
4426.000000	1.152341
4424.000000	1.152362
4422.000000	1.152542
4420.000000	1.152705
4418.000000	1.152641
4416.000000	1.152465
4414.000000	1.152546
4412.000000	1.152670
4410.000000	1.152664
4408.000000	1.152441
4406.000000	1.152163
4404.000000	1.152241
4402.000000	1.152501
4400.000000	1.152478
4398.000000	1.152331
4396.000000	1.152257
4394.000000	1.152264
4392.000000	1.152338
4390.000000	1.152356
4388.000000	1.152208
4386.000000	1.152129
4384.000000	1.152283
4382.000000	1.152418
4380.000000	1.152359
4378.000000	1.152389
4376.000000	1.152534
4374.000000	1.152602
4372.000000	1.152553
4370.000000	1.152441
4368.000000	1.152302
4366.000000	1.152352
4364.000000	1.152608
4362.000000	1.152826
4360.000000	1.152822
4358.000000	1.152735
4356.000000	1.152756
4354.000000	1.152887
4352.000000	1.152920
4350.000000	1.152891
4348.000000	1.152918
4346.000000	1.152992
4344.000000	1.153025
4342.000000	1.153120
4340.000000	1.153315
4338.000000	1.153409
4336.000000	1.153348
4334.000000	1.153366
4332.000000	1.153525
4330.000000	1.153633
4328.000000	1.153596
4326.000000	1.153609
4324.000000	1.153766
4322.000000	1.153912
4320.000000	1.154026
4318.000000	1.154113
4316.000000	1.154126
4314.000000	1.154235
4312.000000	1.154435
4310.000000	1.154491
4308.000000	1.154439
4306.000000	1.154424
4304.000000	1.154407
4302.000000	1.154445
4300.000000	1.154579
4298.000000	1.154673
4296.000000	1.154675
4294.000000	1.154721
4292.000000	1.154741
4290.000000	1.154625
4288.000000	1.154558
4286.000000	1.154719
4284.000000	1.154955
4282.000000	1.155112
4280.000000	1.155086
4278.000000	1.155124
4276.000000	1.155340
4274.000000	1.155389
4272.000000	1.155379
4270.000000	1.155659
4268.000000	1.155785
4266.000000	1.155569
4264.000000	1.155477
4262.000000	1.155675
4260.000000	1.155894
4258.000000	1.155996
4256.000000	1.155995
4254.000000	1.156037
4252.000000	1.156159
4250.000000	1.156324
4248.000000	1.156388
4246.000000	1.156383
4244.000000	1.156299
4242.000000	1.156136
4240.000000	1.156139
4238.000000	1.156375
4236.000000	1.156467
4234.000000	1.156469
4232.000000	1.156654
4230.000000	1.156858
4228.000000	1.156891
4226.000000	1.156924
4224.000000	1.156982
4222.000000	1.156947
4220.000000	1.156907
4218.000000	1.156922
4216.000000	1.156889
4214.000000	1.156883
4212.000000	1.157050
4210.000000	1.157191
4208.000000	1.157088
4206.000000	1.156972
4204.000000	1.157056
4202.000000	1.157259
4200.000000	1.157318
4198.000000	1.157095
4196.000000	1.156936
4194.000000	1.157105
4192.000000	1.157229
4190.000000	1.157113
4188.000000	1.156955
4186.000000	1.156945
4184.000000	1.156986
4182.000000	1.156935
4180.000000	1.156966
4178.000000	1.157101
4176.000000	1.157168
4174.000000	1.157196
4172.000000	1.157234
4170.000000	1.157367
4168.000000	1.157516
4166.000000	1.157460
4164.000000	1.157392
4162.000000	1.157481
4160.000000	1.157501
4158.000000	1.157308
4156.000000	1.157161
4154.000000	1.157216
4152.000000	1.157263
4150.000000	1.157242
4148.000000	1.157288
4146.000000	1.157336
4144.000000	1.157332
4142.000000	1.157385
4140.000000	1.157354
4138.000000	1.157120
4136.000000	1.157030
4134.000000	1.157121
4132.000000	1.157051
4130.000000	1.157035
4128.000000	1.157180
4126.000000	1.157200
4124.000000	1.157128
4122.000000	1.157202
4120.000000	1.157306
4118.000000	1.157337
4116.000000	1.157440
4114.000000	1.157550
4112.000000	1.157387
4110.000000	1.157199
4108.000000	1.157208
4106.000000	1.157241
4104.000000	1.157168
4102.000000	1.157090
4100.000000	1.157044
4098.000000	1.157081
4096.000000	1.157159
4094.000000	1.157241
4092.000000	1.157356
4090.000000	1.157428
4088.000000	1.157320
4086.000000	1.157315
4084.000000	1.157426
4082.000000	1.157382
4080.000000	1.157231
4078.000000	1.157217
4076.000000	1.157256
4074.000000	1.157234
4072.000000	1.157296
4070.000000	1.157455
4068.000000	1.157545
4066.000000	1.157605
4064.000000	1.157497
4062.000000	1.157318
4060.000000	1.157424
4058.000000	1.157568
4056.000000	1.157543
4054.000000	1.157616
4052.000000	1.157705
4050.000000	1.157698
4048.000000	1.157721
4046.000000	1.157708
4044.000000	1.157575
4042.000000	1.157536
4040.000000	1.157669
4038.000000	1.157693
4036.000000	1.157561
4034.000000	1.157470
4032.000000	1.157499
4030.000000	1.157586
4028.000000	1.157581
4026.000000	1.157484
4024.000000	1.157363
4022.000000	1.157301
4020.000000	1.157459
4018.000000	1.157671
4016.000000	1.157626
4014.000000	1.157445
4012.000000	1.157338
4010.000000	1.157236
4008.000000	1.157163
4006.000000	1.157250
4004.000000	1.157355
4002.000000	1.157245
4000.000000	1.157117
3998.000000	1.157199
3996.000000	1.157228
3994.000000	1.157060
3992.000000	1.156923
3990.000000	1.156884
3988.000000	1.156844
3986.000000	1.156724
3984.000000	1.156636
3982.000000	1.156626
3980.000000	1.156429
3978.000000	1.156205
3976.000000	1.156178
3974.000000	1.156058
3972.000000	1.155774
3970.000000	1.155636
3968.000000	1.155603
3966.000000	1.155378
3964.000000	1.155100
3962.000000	1.154915
3960.000000	1.154705
3958.000000	1.154507
3956.000000	1.154302
3954.000000	1.154095
3952.000000	1.153884
3950.000000	1.153612
3948.000000	1.153320
3946.000000	1.153122
3944.000000	1.152921
3942.000000	1.152648
3940.000000	1.152443
3938.000000	1.152274
3936.000000	1.152054
3934.000000	1.151658
3932.000000	1.151041
3930.000000	1.150608
3928.000000	1.150542
3926.000000	1.150438
3924.000000	1.150018
3922.000000	1.149535
3920.000000	1.149233
3918.000000	1.148889
3916.000000	1.148311
3914.000000	1.147825
3912.000000	1.147616
3910.000000	1.147530
3908.000000	1.147545
3906.000000	1.147282
3904.000000	1.146541
3902.000000	1.145941
3900.000000	1.145398
3898.000000	1.144901
3896.000000	1.144954
3894.000000	1.145017
3892.000000	1.144340
3890.000000	1.143870
3888.000000	1.144046
3886.000000	1.143568
3884.000000	1.142962
3882.000000	1.142822
3880.000000	1.142385
3878.000000	1.142260
3876.000000	1.142265
3874.000000	1.142019
3872.000000	1.141670
3870.000000	1.140747
3868.000000	1.140229
3866.000000	1.140252
3864.000000	1.139955
3862.000000	1.139791
3860.000000	1.139973
3858.000000	1.140884
3856.000000	1.141276
3854.000000	1.139108
3852.000000	1.136968
3850.000000	1.137283
3848.000000	1.138145
3846.000000	1.138314
3844.000000	1.138266
3842.000000	1.138527
3840.000000	1.138443
3838.000000	1.137237
3836.000000	1.136427
3834.000000	1.136630
3832.000000	1.136629
3830.000000	1.136580
3828.000000	1.136718
3826.000000	1.136899
3824.000000	1.137251
3822.000000	1.136698
3820.000000	1.136205
3818.000000	1.136435
3816.000000	1.135484
3814.000000	1.134817
3812.000000	1.135554
3810.000000	1.136250
3808.000000	1.135850
3806.000000	1.135426
3804.000000	1.135929
3802.000000	1.135152
3800.000000	1.134250
3798.000000	1.134679
3796.000000	1.134832
3794.000000	1.134943
3792.000000	1.135207
3790.000000	1.135295
3788.000000	1.135334
3786.000000	1.135291
3784.000000	1.135347
3782.000000	1.135443
3780.000000	1.135255
3778.000000	1.135039
3776.000000	1.135156
3774.000000	1.135569
3772.000000	1.135890
3770.000000	1.135653
3768.000000	1.135444
3766.000000	1.135369
3764.000000	1.135396
3762.000000	1.135630
3760.000000	1.135573
3758.000000	1.135587
3756.000000	1.136429
3754.000000	1.137058
3752.000000	1.136223
3750.000000	1.135239
3748.000000	1.136095
3746.000000	1.136581
3744.000000	1.134997
3742.000000	1.134961
3740.000000	1.136453
3738.000000	1.136932
3736.000000	1.136542
3734.000000	1.136294
3732.000000	1.136253
3730.000000	1.136621
3728.000000	1.137229
3726.000000	1.137455
3724.000000	1.137656
3722.000000	1.137934
3720.000000	1.138294
3718.000000	1.138714
3716.000000	1.139421
3714.000000	1.139923
3712.000000	1.139891
3710.000000	1.141014
3708.000000	1.143067
3706.000000	1.143832
3704.000000	1.143503
3702.000000	1.143366
3700.000000	1.144065
3698.000000	1.145185
3696.000000	1.146194
3694.000000	1.147475
3692.000000	1.148942
3690.000000	1.149640
3688.000000	1.149750
3686.000000	1.151133
3684.000000	1.153419
3682.000000	1.155443
3680.000000	1.157620
3678.000000	1.159664
3676.000000	1.160474
3674.000000	1.161954
3672.000000	1.164396
3670.000000	1.165747
3668.000000	1.167622
3666.000000	1.170331
3664.000000	1.172779
3662.000000	1.175105
3660.000000	1.177544
3658.000000	1.179689
3656.000000	1.181284
3654.000000	1.183730
3652.000000	1.186498
3650.000000	1.187572
3648.000000	1.188254
3646.000000	1.190285
3644.000000	1.192809
3642.000000	1.194839
3640.000000	1.196574
3638.000000	1.198221
3636.000000	1.199923
3634.000000	1.201787
3632.000000	1.203837
3630.000000	1.204500
3628.000000	1.204318
3626.000000	1.205805
3624.000000	1.207942
3622.000000	1.209511
3620.000000	1.210144
3618.000000	1.210649
3616.000000	1.212073
3614.000000	1.213347
3612.000000	1.214146
3610.000000	1.214724
3608.000000	1.215174
3606.000000	1.216126
3604.000000	1.217151
3602.000000	1.217965
3600.000000	1.218821
3598.000000	1.219531
3596.000000	1.219962
3594.000000	1.220439
3592.000000	1.221206
3590.000000	1.221830
3588.000000	1.221963
3586.000000	1.222208
3584.000000	1.222815
3582.000000	1.223382
3580.000000	1.223778
3578.000000	1.224077
3576.000000	1.224418
3574.000000	1.224866
3572.000000	1.225427
3570.000000	1.225820
3568.000000	1.225594
3566.000000	1.225240
3564.000000	1.225538
3562.000000	1.226081
3560.000000	1.226476
3558.000000	1.226824
3556.000000	1.227117
3554.000000	1.227342
3552.000000	1.227420
3550.000000	1.227527
3548.000000	1.227793
3546.000000	1.228001
3544.000000	1.228170
3542.000000	1.228317
3540.000000	1.228443
3538.000000	1.228618
3536.000000	1.228827
3534.000000	1.229146
3532.000000	1.229412
3530.000000	1.229472
3528.000000	1.229481
3526.000000	1.229583
3524.000000	1.229768
3522.000000	1.229911
3520.000000	1.230125
3518.000000	1.230354
3516.000000	1.230578
3514.000000	1.230875
3512.000000	1.231094
3510.000000	1.231045
3508.000000	1.231104
3506.000000	1.231448
3504.000000	1.231502
3502.000000	1.231471
3500.000000	1.231743
3498.000000	1.232046
3496.000000	1.232260
3494.000000	1.232505
3492.000000	1.232630
3490.000000	1.232596
3488.000000	1.232548
3486.000000	1.232729
3484.000000	1.233018
3482.000000	1.233131
3480.000000	1.233286
3478.000000	1.233497
3476.000000	1.233577
3474.000000	1.233581
3472.000000	1.233561
3470.000000	1.233645
3468.000000	1.233886
3466.000000	1.234094
3464.000000	1.234259
3462.000000	1.234412
3460.000000	1.234559
3458.000000	1.234693
3456.000000	1.234759
3454.000000	1.234987
3452.000000	1.235236
3450.000000	1.235344
3448.000000	1.235435
3446.000000	1.235478
3444.000000	1.235502
3442.000000	1.235544
3440.000000	1.235744
3438.000000	1.236108
3436.000000	1.236438
3434.000000	1.236593
3432.000000	1.236603
3430.000000	1.236583
3428.000000	1.236611
3426.000000	1.236715
3424.000000	1.236951
3422.000000	1.237170
3420.000000	1.237344
3418.000000	1.237525
3416.000000	1.237578
3414.000000	1.237561
3412.000000	1.237735
3410.000000	1.237905
3408.000000	1.237981
3406.000000	1.238062
3404.000000	1.238174
3402.000000	1.238256
3400.000000	1.238337
3398.000000	1.238474
3396.000000	1.238559
3394.000000	1.238586
3392.000000	1.238580
3390.000000	1.238699
3388.000000	1.238886
3386.000000	1.238993
3384.000000	1.239161
3382.000000	1.239215
3380.000000	1.239247
3378.000000	1.239245
3376.000000	1.239116
3374.000000	1.239051
3372.000000	1.239029
3370.000000	1.239112
3368.000000	1.239236
3366.000000	1.239320
3364.000000	1.239307
3362.000000	1.239275
3360.000000	1.239461
3358.000000	1.239680
3356.000000	1.239743
3354.000000	1.239703
3352.000000	1.239554
3350.000000	1.239452
3348.000000	1.239552
3346.000000	1.239632
3344.000000	1.239787
3342.000000	1.240041
3340.000000	1.240125
3338.000000	1.240066
3336.000000	1.239905
3334.000000	1.239798
3332.000000	1.239884
3330.000000	1.240030
3328.000000	1.240186
3326.000000	1.240278
3324.000000	1.240232
3322.000000	1.240138
3320.000000	1.240111
3318.000000	1.240226
3316.000000	1.240338
3314.000000	1.240358
3312.000000	1.240529
3310.000000	1.240698
3308.000000	1.240631
3306.000000	1.240557
3304.000000	1.240638
3302.000000	1.240656
3300.000000	1.240651
3298.000000	1.240781
3296.000000	1.240855
3294.000000	1.240766
3292.000000	1.240659
3290.000000	1.240812
3288.000000	1.241080
3286.000000	1.241210
3284.000000	1.241323
3282.000000	1.241353
3280.000000	1.241207
3278.000000	1.241051
3276.000000	1.241161
3274.000000	1.241238
3272.000000	1.241227
3270.000000	1.241340
3268.000000	1.241511
3266.000000	1.241524
3264.000000	1.241414
3262.000000	1.241328
3260.000000	1.241521
3258.000000	1.241841
3256.000000	1.241977
3254.000000	1.241835
3252.000000	1.241834
3250.000000	1.241995
3248.000000	1.241987
3246.000000	1.242004
3244.000000	1.242082
3242.000000	1.242074
3240.000000	1.242041
3238.000000	1.242086
3236.000000	1.242236
3234.000000	1.242358
3232.000000	1.242389
3230.000000	1.242350
3228.000000	1.242235
3226.000000	1.242238
3224.000000	1.242365
3222.000000	1.242447
3220.000000	1.242499
3218.000000	1.242433
3216.000000	1.242399
3214.000000	1.242435
3212.000000	1.242495
3210.000000	1.242683
3208.000000	1.242800
3206.000000	1.242713
3204.000000	1.242617
3202.000000	1.242715
3200.000000	1.242831
3198.000000	1.242732
3196.000000	1.242585
3194.000000	1.242654
3192.000000	1.242793
3190.000000	1.242711
3188.000000	1.242625
3186.000000	1.242680
3184.000000	1.242637
3182.000000	1.242597
3180.000000	1.242567
3178.000000	1.242560
3176.000000	1.242496
3174.000000	1.242361
3172.000000	1.242418
3170.000000	1.242515
3168.000000	1.242538
3166.000000	1.242515
3164.000000	1.242479
3162.000000	1.242530
3160.000000	1.242617
3158.000000	1.242588
3156.000000	1.242478
3154.000000	1.242444
3152.000000	1.242492
3150.000000	1.242582
3148.000000	1.242617
3146.000000	1.242573
3144.000000	1.242593
3142.000000	1.242628
3140.000000	1.242540
3138.000000	1.242474
3136.000000	1.242326
3134.000000	1.242200
3132.000000	1.242368
3130.000000	1.242561
3128.000000	1.242514
3126.000000	1.242450
3124.000000	1.242442
3122.000000	1.242380
3120.000000	1.242533
3118.000000	1.242704
3116.000000	1.242673
3114.000000	1.242625
3112.000000	1.242560
3110.000000	1.242481
3108.000000	1.242509
3106.000000	1.242556
3104.000000	1.242496
3102.000000	1.242540
3100.000000	1.242580
3098.000000	1.242593
3096.000000	1.242634
3094.000000	1.242477
3092.000000	1.242343
3090.000000	1.242448
3088.000000	1.242601
3086.000000	1.242587
3084.000000	1.242393
3082.000000	1.242136
3080.000000	1.242120
3078.000000	1.242222
3076.000000	1.242199
3074.000000	1.242265
3072.000000	1.242439
3070.000000	1.242502
3068.000000	1.242322
3066.000000	1.242032
3064.000000	1.241916
3062.000000	1.241954
3060.000000	1.241927
3058.000000	1.241860
3056.000000	1.241970
3054.000000	1.241953
3052.000000	1.241826
3050.000000	1.241807
3048.000000	1.241751
3046.000000	1.241602
3044.000000	1.241376
3042.000000	1.241198
3040.000000	1.241147
3038.000000	1.241173
3036.000000	1.241011
3034.000000	1.240785
3032.000000	1.240739
3030.000000	1.240704
3028.000000	1.240650
3026.000000	1.240513
3024.000000	1.240304
3022.000000	1.240145
3020.000000	1.239942
3018.000000	1.239567
3016.000000	1.239162
3014.000000	1.239067
3012.000000	1.238979
3010.000000	1.238766
3008.000000	1.238520
3006.000000	1.238270
3004.000000	1.238055
3002.000000	1.237857
3000.000000	1.237641
2998.000000	1.237445
2996.000000	1.237217
2994.000000	1.236956
2992.000000	1.236732
2990.000000	1.236396
2988.000000	1.236072
2986.000000	1.235865
2984.000000	1.235713
2982.000000	1.235580
2980.000000	1.235264
2978.000000	1.234862
2976.000000	1.234649
2974.000000	1.234576
2972.000000	1.234437
2970.000000	1.234363
2968.000000	1.234313
2966.000000	1.234039
2964.000000	1.233510
2962.000000	1.232744
2960.000000	1.231937
2958.000000	1.231330
2956.000000	1.230779
2954.000000	1.230202
2952.000000	1.229730
2950.000000	1.229394
2948.000000	1.229066
2946.000000	1.228860
2944.000000	1.228635
2942.000000	1.228297
2940.000000	1.227926
2938.000000	1.227451
2936.000000	1.227056
2934.000000	1.226635
2932.000000	1.226167
2930.000000	1.225777
2928.000000	1.225321
2926.000000	1.224696
2924.000000	1.223906
2922.000000	1.223155
2920.000000	1.222587
2918.000000	1.221939
2916.000000	1.221520
2914.000000	1.221374
2912.000000	1.221218
2910.000000	1.220960
2908.000000	1.220679
2906.000000	1.220468
2904.000000	1.220225
2902.000000	1.219874
2900.000000	1.219518
2898.000000	1.219195
2896.000000	1.218832
2894.000000	1.218467
2892.000000	1.218058
2890.000000	1.217630
2888.000000	1.217367
2886.000000	1.217104
2884.000000	1.216774
2882.000000	1.216587
2880.000000	1.216392
2878.000000	1.216081
2876.000000	1.215835
2874.000000	1.215545
2872.000000	1.215268
2870.000000	1.215188
2868.000000	1.215099
2866.000000	1.214753
2864.000000	1.214242
2862.000000	1.213636
2860.000000	1.213075
2858.000000	1.212663
2856.000000	1.212278
2854.000000	1.211875
2852.000000	1.211521
2850.000000	1.211120
2848.000000	1.210791
2846.000000	1.210698
2844.000000	1.210692
2842.000000	1.210543
2840.000000	1.210267
2838.000000	1.210091
2836.000000	1.210058
2834.000000	1.209932
2832.000000	1.209725
2830.000000	1.209570
2828.000000	1.209358
2826.000000	1.209089
2824.000000	1.208824
2822.000000	1.208587
2820.000000	1.208375
2818.000000	1.208178
2816.000000	1.208098
2814.000000	1.208054
2812.000000	1.207858
2810.000000	1.207555
2808.000000	1.207353
2806.000000	1.207227
2804.000000	1.207083
2802.000000	1.206915
2800.000000	1.206741
2798.000000	1.206592
2796.000000	1.206385
2794.000000	1.206210
2792.000000	1.206184
2790.000000	1.206045
2788.000000	1.205852
2786.000000	1.205685
2784.000000	1.205498
2782.000000	1.205436
2780.000000	1.205365
2778.000000	1.205141
2776.000000	1.205061
2774.000000	1.205026
2772.000000	1.204920
2770.000000	1.204890
2768.000000	1.204825
2766.000000	1.204645
2764.000000	1.204480
2762.000000	1.204387
2760.000000	1.204261
2758.000000	1.204176
2756.000000	1.204172
2754.000000	1.204122
2752.000000	1.204002
2750.000000	1.203897
2748.000000	1.203858
2746.000000	1.203866
2744.000000	1.203811
2742.000000	1.203691
2740.000000	1.203512
2738.000000	1.203472
2736.000000	1.203550
2734.000000	1.203547
2732.000000	1.203411
2730.000000	1.203402
2728.000000	1.203404
2726.000000	1.203262
2724.000000	1.203170
2722.000000	1.203231
2720.000000	1.203331
2718.000000	1.203351
2716.000000	1.203410
2714.000000	1.203389
2712.000000	1.203218
2710.000000	1.203171
2708.000000	1.203235
2706.000000	1.203338
2704.000000	1.203482
2702.000000	1.203501
2700.000000	1.203459
2698.000000	1.203473
2696.000000	1.203508
2694.000000	1.203598
2692.000000	1.203732
2690.000000	1.203807
2688.000000	1.203789
2686.000000	1.203829
2684.000000	1.203877
2682.000000	1.203905
2680.000000	1.204006
2678.000000	1.204140
2676.000000	1.204254
2674.000000	1.204300
2672.000000	1.204328
2670.000000	1.204393
2668.000000	1.204515
2666.000000	1.204655
2664.000000	1.204766
2662.000000	1.204874
2660.000000	1.204918
2658.000000	1.204993
2656.000000	1.205169
2654.000000	1.205460
2652.000000	1.205678
2650.000000	1.205755
2648.000000	1.205858
2646.000000	1.206030
2644.000000	1.206235
2642.000000	1.206357
2640.000000	1.206466
2638.000000	1.206668
2636.000000	1.206895
2634.000000	1.207141
2632.000000	1.207265
2630.000000	1.207423
2628.000000	1.207767
2626.000000	1.208054
2624.000000	1.208180
2622.000000	1.208324
2620.000000	1.208514
2618.000000	1.208662
2616.000000	1.208816
2614.000000	1.209044
2612.000000	1.209316
2610.000000	1.209590
2608.000000	1.209767
2606.000000	1.209984
2604.000000	1.210312
2602.000000	1.210531
2600.000000	1.210580
2598.000000	1.210793
2596.000000	1.211134
2594.000000	1.211285
2592.000000	1.211460
2590.000000	1.211813
2588.000000	1.212057
2586.000000	1.212271
2584.000000	1.212539
2582.000000	1.212844
2580.000000	1.213158
2578.000000	1.213484
2576.000000	1.213745
2574.000000	1.213900
2572.000000	1.214096
2570.000000	1.214374
2568.000000	1.214672
2566.000000	1.215010
2564.000000	1.215336
2562.000000	1.215621
2560.000000	1.215880
2558.000000	1.216181
2556.000000	1.216510
2554.000000	1.216877
2552.000000	1.217305
2550.000000	1.217699
2548.000000	1.218099
2546.000000	1.218489
2544.000000	1.218832
2542.000000	1.219234
2540.000000	1.219487
2538.000000	1.219680
2536.000000	1.220074
2534.000000	1.220470
2532.000000	1.220755
2530.000000	1.221150
2528.000000	1.221604
2526.000000	1.221946
2524.000000	1.222295
2522.000000	1.222642
2520.000000	1.222991
2518.000000	1.223498
2516.000000	1.223910
2514.000000	1.224229
2512.000000	1.224634
2510.000000	1.225018
2508.000000	1.225311
2506.000000	1.225706
2504.000000	1.226018
2502.000000	1.226251
2500.000000	1.226630
2498.000000	1.227108
2496.000000	1.227466
2494.000000	1.227744
2492.000000	1.228001
2490.000000	1.228155
2488.000000	1.228362
2486.000000	1.228673
2484.000000	1.229056
2482.000000	1.229456
2480.000000	1.229732
2478.000000	1.229900
2476.000000	1.230076
2474.000000	1.230237
2472.000000	1.230397
2470.000000	1.230654
2468.000000	1.230810
2466.000000	1.230878
2464.000000	1.231068
2462.000000	1.231357
2460.000000	1.231519
2458.000000	1.231530
2456.000000	1.231534
2454.000000	1.231742
2452.000000	1.231843
2450.000000	1.231895
2448.000000	1.231969
2446.000000	1.231939
2444.000000	1.231915
2442.000000	1.231913
2440.000000	1.231877
2438.000000	1.231827
2436.000000	1.231714
2434.000000	1.231566
2432.000000	1.231517
2430.000000	1.231399
2428.000000	1.231225
2426.000000	1.231181
2424.000000	1.231123
2422.000000	1.230952
2420.000000	1.230777
2418.000000	1.230583
2416.000000	1.230345
2414.000000	1.230168
2412.000000	1.230034
2410.000000	1.229912
2408.000000	1.229777
2406.000000	1.229550
2404.000000	1.229344
2402.000000	1.229111
2400.000000	1.228916
2398.000000	1.228876
2396.000000	1.228809
2394.000000	1.228656
2392.000000	1.228508
2390.000000	1.228409
2388.000000	1.228259
2386.000000	1.228089
2384.000000	1.228015
2382.000000	1.228157
2380.000000	1.228727
2378.000000	1.229522
2376.000000	1.230163
2374.000000	1.230599
2372.000000	1.230909
2370.000000	1.231097
2368.000000	1.231190
2366.000000	1.231288
2364.000000	1.231451
2362.000000	1.231637
2360.000000	1.231911
2358.000000	1.232235
2356.000000	1.232507
2354.000000	1.232875
2352.000000	1.233467
2350.000000	1.234093
2348.000000	1.234626
2346.000000	1.234892
2344.000000	1.235116
2342.000000	1.235548
2340.000000	1.235597
2338.000000	1.234987
2336.000000	1.234251
2334.000000	1.233643
2332.000000	1.233347
2330.000000	1.233357
2328.000000	1.233390
2326.000000	1.233513
2324.000000	1.233517
2322.000000	1.233365
2320.000000	1.233390
2318.000000	1.233534
2316.000000	1.233621
2314.000000	1.233732
2312.000000	1.233864
2310.000000	1.234006
2308.000000	1.234183
2306.000000	1.234336
2304.000000	1.234361
2302.000000	1.234461
2300.000000	1.234604
2298.000000	1.234665
2296.000000	1.234692
2294.000000	1.234867
2292.000000	1.234966
2290.000000	1.234942
2288.000000	1.235010
2286.000000	1.235230
2284.000000	1.235460
2282.000000	1.235668
2280.000000	1.235869
2278.000000	1.235960
2276.000000	1.235900
2274.000000	1.235985
2272.000000	1.236246
2270.000000	1.236324
2268.000000	1.236381
2266.000000	1.236563
2264.000000	1.236673
2262.000000	1.236730
2260.000000	1.236770
2258.000000	1.236825
2256.000000	1.236917
2254.000000	1.236979
2252.000000	1.237087
2250.000000	1.237291
2248.000000	1.237394
2246.000000	1.237468
2244.000000	1.237583
2242.000000	1.237627
2240.000000	1.237565
2238.000000	1.237557
2236.000000	1.237693
2234.000000	1.237809
2232.000000	1.237890
2230.000000	1.237972
2228.000000	1.237985
2226.000000	1.237972
2224.000000	1.237994
2222.000000	1.238028
2220.000000	1.238079
2218.000000	1.238188
2216.000000	1.238249
2214.000000	1.238212
2212.000000	1.238285
2210.000000	1.238349
2208.000000	1.238203
2206.000000	1.238157
2204.000000	1.238211
2202.000000	1.238127
2200.000000	1.238126
2198.000000	1.238138
2196.000000	1.238141
2194.000000	1.238177
2192.000000	1.238173
2190.000000	1.238097
2188.000000	1.238079
2186.000000	1.238065
2184.000000	1.237932
2182.000000	1.237838
2180.000000	1.237922
2178.000000	1.237892
2176.000000	1.237667
2174.000000	1.237689
2172.000000	1.237750
2170.000000	1.237591
2168.000000	1.237388
2166.000000	1.237330
2164.000000	1.237250
2162.000000	1.237186
2160.000000	1.237213
2158.000000	1.237000
2156.000000	1.236736
2154.000000	1.236568
2152.000000	1.236434
2150.000000	1.236321
2148.000000	1.236204
2146.000000	1.236069
2144.000000	1.235992
2142.000000	1.235761
2140.000000	1.235376
2138.000000	1.235148
2136.000000	1.234986
2134.000000	1.234884
2132.000000	1.234734
2130.000000	1.234576
2128.000000	1.234358
2126.000000	1.234130
2124.000000	1.233938
2122.000000	1.233713
2120.000000	1.233507
2118.000000	1.233222
2116.000000	1.232845
2114.000000	1.232531
2112.000000	1.232347
2110.000000	1.232043
2108.000000	1.231679
2106.000000	1.231434
2104.000000	1.231160
2102.000000	1.230799
2100.000000	1.230559
2098.000000	1.230375
2096.000000	1.230104
2094.000000	1.229769
2092.000000	1.229329
2090.000000	1.228937
2088.000000	1.228671
2086.000000	1.228352
2084.000000	1.227961
2082.000000	1.227510
2080.000000	1.227187
2078.000000	1.226921
2076.000000	1.226628
2074.000000	1.226287
2072.000000	1.225904
2070.000000	1.225610
2068.000000	1.225307
2066.000000	1.224940
2064.000000	1.224499
2062.000000	1.224051
2060.000000	1.223562
2058.000000	1.223332
2056.000000	1.223130
2054.000000	1.222692
2052.000000	1.222275
2050.000000	1.221866
2048.000000	1.221421
2046.000000	1.221096
2044.000000	1.220760
2042.000000	1.220387
2040.000000	1.220052
2038.000000	1.219758
2036.000000	1.219418
2034.000000	1.219002
2032.000000	1.218716
2030.000000	1.218491
2028.000000	1.218113
2026.000000	1.217694
2024.000000	1.217543
2022.000000	1.217334
2020.000000	1.216913
2018.000000	1.216584
2016.000000	1.216345
2014.000000	1.216067
2012.000000	1.215802
2010.000000	1.215490
2008.000000	1.215105
2006.000000	1.214800
2004.000000	1.214632
2002.000000	1.214443
2000.000000	1.214198
1998.000000	1.214003
1996.000000	1.213731
1994.000000	1.213429
1992.000000	1.213146
1990.000000	1.212886
1988.000000	1.212682
1986.000000	1.212504
1984.000000	1.212294
1982.000000	1.212096
1980.000000	1.211923
1978.000000	1.211903
1976.000000	1.211791
1974.000000	1.211463
1972.000000	1.211254
1970.000000	1.211187
1968.000000	1.211124
1966.000000	1.211093
1964.000000	1.211115
1962.000000	1.211040
1960.000000	1.210877
1958.000000	1.210560
1956.000000	1.210333
1954.000000	1.210236
1952.000000	1.210224
1950.000000	1.210086
1948.000000	1.209972
1946.000000	1.210100
1944.000000	1.210244
1942.000000	1.210068
1940.000000	1.209981
1938.000000	1.210032
1936.000000	1.209996
1934.000000	1.209915
1932.000000	1.209939
1930.000000	1.209959
1928.000000	1.209954
1926.000000	1.209973
1924.000000	1.210000
1922.000000	1.210027
1920.000000	1.210106
1918.000000	1.209871
1916.000000	1.209741
1914.000000	1.209961
1912.000000	1.210132
1910.000000	1.210145
1908.000000	1.210099
1906.000000	1.210160
1904.000000	1.210299
1902.000000	1.210381
1900.000000	1.210361
1898.000000	1.210395
1896.000000	1.210455
1894.000000	1.210489
1892.000000	1.210704
1890.000000	1.210737
1888.000000	1.210680
1886.000000	1.210888
1884.000000	1.211001
1882.000000	1.211080
1880.000000	1.211182
1878.000000	1.211249
1876.000000	1.211357
1874.000000	1.211558
1872.000000	1.211816
1870.000000	1.211816
1868.000000	1.211609
1866.000000	1.211821
1864.000000	1.212088
1862.000000	1.212253
1860.000000	1.212333
1858.000000	1.212458
1856.000000	1.212620
1854.000000	1.212822
1852.000000	1.213111
1850.000000	1.213369
1848.000000	1.213627
1846.000000	1.213942
1844.000000	1.213653
1842.000000	1.213668
1840.000000	1.214219
1838.000000	1.214536
1836.000000	1.214753
1834.000000	1.215127
1832.000000	1.215524
1830.000000	1.215479
1828.000000	1.215702
1826.000000	1.216101
1824.000000	1.216235
1822.000000	1.216645
1820.000000	1.217043
1818.000000	1.217410
1816.000000	1.217665
1814.000000	1.217900
1812.000000	1.218191
1810.000000	1.218558
1808.000000	1.219056
1806.000000	1.219490
1804.000000	1.219836
1802.000000	1.220122
1800.000000	1.220395
1798.000000	1.220847
1796.000000	1.221495
1794.000000	1.222013
1792.000000	1.221868
1790.000000	1.222134
1788.000000	1.222982
1786.000000	1.223583
1784.000000	1.223879
1782.000000	1.224344
1780.000000	1.224699
1778.000000	1.225214
1776.000000	1.226077
1774.000000	1.226728
1772.000000	1.226401
1770.000000	1.226989
1768.000000	1.227730
1766.000000	1.228282
1764.000000	1.229198
1762.000000	1.229488
1760.000000	1.229787
1758.000000	1.230393
1756.000000	1.230822
1754.000000	1.231824
1752.000000	1.232338
1750.000000	1.232365
1748.000000	1.232795
1746.000000	1.233248
1744.000000	1.233851
1742.000000	1.234593
1740.000000	1.234836
1738.000000	1.235331
1736.000000	1.236561
1734.000000	1.235686
1732.000000	1.235367
1730.000000	1.236419
1728.000000	1.236935
1726.000000	1.237363
1724.000000	1.237564
1722.000000	1.238014
1720.000000	1.238964
1718.000000	1.238548
1716.000000	1.237656
1714.000000	1.238144
1712.000000	1.238798
1710.000000	1.239221
1708.000000	1.239286
1706.000000	1.239177
1704.000000	1.239631
1702.000000	1.240562
1700.000000	1.239317
1698.000000	1.239565
1696.000000	1.239205
1694.000000	1.238581
1692.000000	1.239730
1690.000000	1.240182
1688.000000	1.240960
1686.000000	1.241318
1684.000000	1.239406
1682.000000	1.239197
1680.000000	1.240214
1678.000000	1.240759
1676.000000	1.240642
1674.000000	1.240108
1672.000000	1.240718
1670.000000	1.240498
1668.000000	1.240183
1666.000000	1.240795
1664.000000	1.241092
1662.000000	1.240593
1660.000000	1.240636
1658.000000	1.241196
1656.000000	1.242567
1654.000000	1.241955
1652.000000	1.239369
1650.000000	1.240392
1648.000000	1.241673
1646.000000	1.240722
1644.000000	1.240331
1642.000000	1.240828
1640.000000	1.241193
1638.000000	1.241676
1636.000000	1.240868
1634.000000	1.240050
1632.000000	1.240715
1630.000000	1.241137
1628.000000	1.241065
1626.000000	1.241155
1624.000000	1.241066
1622.000000	1.240690
1620.000000	1.241264
1618.000000	1.241293
1616.000000	1.240148
1614.000000	1.240349
1612.000000	1.241037
1610.000000	1.241004
1608.000000	1.240826
1606.000000	1.240722
1604.000000	1.240716
1602.000000	1.240568
1600.000000	1.240441
1598.000000	1.240477
1596.000000	1.240588
1594.000000	1.240583
1592.000000	1.240636
1590.000000	1.240549
1588.000000	1.240569
1586.000000	1.240717
1584.000000	1.240782
1582.000000	1.240741
1580.000000	1.241062
1578.000000	1.241482
1576.000000	1.240204
1574.000000	1.239687
1572.000000	1.240736
1570.000000	1.240565
1568.000000	1.240404
1566.000000	1.240736
1564.000000	1.241032
1562.000000	1.241930
1560.000000	1.241172
1558.000000	1.239149
1556.000000	1.239727
1554.000000	1.240222
1552.000000	1.240362
1550.000000	1.240577
1548.000000	1.240751
1546.000000	1.240901
1544.000000	1.241010
1542.000000	1.241323
1540.000000	1.240320
1538.000000	1.239342
1536.000000	1.240435
1534.000000	1.240718
1532.000000	1.240529
1530.000000	1.240919
1528.000000	1.241084
1526.000000	1.240775
1524.000000	1.241018
1522.000000	1.240905
1520.000000	1.240218
1518.000000	1.240648
1516.000000	1.240634
1514.000000	1.240753
1512.000000	1.240851
1510.000000	1.241486
1508.000000	1.241717
1506.000000	1.240280
1504.000000	1.240373
1502.000000	1.242060
1500.000000	1.243109
1498.000000	1.243185
1496.000000	1.241681
1494.000000	1.240175
1492.000000	1.239634
1490.000000	1.239217
1488.000000	1.239241
1486.000000	1.239660
1484.000000	1.240201
1482.000000	1.240483
1480.000000	1.240604
1478.000000	1.240865
1476.000000	1.241088
1474.000000	1.241041
1472.000000	1.240302
1470.000000	1.240230
1468.000000	1.240723
1466.000000	1.240779
1464.000000	1.240463
1462.000000	1.240832
1460.000000	1.241690
1458.000000	1.241605
1456.000000	1.240264
1454.000000	1.240398
1452.000000	1.240601
1450.000000	1.239935
1448.000000	1.239429
1446.000000	1.239608
1444.000000	1.240111
1442.000000	1.240351
1440.000000	1.240539
1438.000000	1.240537
1436.000000	1.239674
1434.000000	1.239678
1432.000000	1.240068
1430.000000	1.239741
1428.000000	1.239573
1426.000000	1.239850
1424.000000	1.239899
1422.000000	1.240114
1420.000000	1.239851
1418.000000	1.239162
1416.000000	1.239300
1414.000000	1.239523
1412.000000	1.239639
1410.000000	1.239854
1408.000000	1.240070
1406.000000	1.239836
1404.000000	1.239186
1402.000000	1.238786
1400.000000	1.238488
1398.000000	1.238371
1396.000000	1.238659
1394.000000	1.238526
1392.000000	1.238482
1390.000000	1.238676
1388.000000	1.238614
1386.000000	1.238273
1384.000000	1.238247
1382.000000	1.238294
1380.000000	1.238420
1378.000000	1.238431
1376.000000	1.238323
1374.000000	1.238041
1372.000000	1.237922
1370.000000	1.237946
1368.000000	1.237889
1366.000000	1.237861
1364.000000	1.237739
1362.000000	1.237345
1360.000000	1.237306
1358.000000	1.237381
1356.000000	1.237471
1354.000000	1.237540
1352.000000	1.237576
1350.000000	1.237396
1348.000000	1.237249
1346.000000	1.237221
1344.000000	1.237239
1342.000000	1.237345
1340.000000	1.237274
1338.000000	1.237019
1336.000000	1.236925
1334.000000	1.236910
1332.000000	1.237039
1330.000000	1.237097
1328.000000	1.237101
1326.000000	1.237174
1324.000000	1.237167
1322.000000	1.237102
1320.000000	1.237132
1318.000000	1.237013
1316.000000	1.236959
1314.000000	1.237129
1312.000000	1.237181
1310.000000	1.237054
1308.000000	1.237101
1306.000000	1.237219
1304.000000	1.237171
1302.000000	1.237149
1300.000000	1.237248
1298.000000	1.237196
1296.000000	1.237108
1294.000000	1.237124
1292.000000	1.237207
1290.000000	1.237350
1288.000000	1.237349
1286.000000	1.237290
1284.000000	1.237344
1282.000000	1.237324
1280.000000	1.237335
1278.000000	1.237506
1276.000000	1.237585
1274.000000	1.237594
1272.000000	1.237827
1270.000000	1.238209
1268.000000	1.238825
1266.000000	1.239543
1264.000000	1.240198
1262.000000	1.240661
1260.000000	1.240447
1258.000000	1.239580
1256.000000	1.238676
1254.000000	1.238238
1252.000000	1.238023
1250.000000	1.237767
1248.000000	1.237755
1246.000000	1.237879
1244.000000	1.237521
1242.000000	1.236981
1240.000000	1.236956
1238.000000	1.237046
1236.000000	1.236835
1234.000000	1.236656
1232.000000	1.236667
1230.000000	1.236557
1228.000000	1.236416
1226.000000	1.236322
1224.000000	1.236295
1222.000000	1.236111
1220.000000	1.236070
1218.000000	1.236271
1216.000000	1.236206
1214.000000	1.235967
1212.000000	1.235799
1210.000000	1.235402
1208.000000	1.235056
1206.000000	1.235073
1204.000000	1.235162
1202.000000	1.235256
1200.000000	1.235347
1198.000000	1.235354
1196.000000	1.235329
1194.000000	1.235467
1192.000000	1.235370
1190.000000	1.235371
1188.000000	1.235557
1186.000000	1.235768
1184.000000	1.236107
1182.000000	1.235707
1180.000000	1.234996
1178.000000	1.235181
1176.000000	1.235477
1174.000000	1.235426
1172.000000	1.235593
1170.000000	1.235468
1168.000000	1.235311
1166.000000	1.235385
1164.000000	1.235469
1162.000000	1.235665
1160.000000	1.235840
1158.000000	1.235907
1156.000000	1.235733
1154.000000	1.235300
1152.000000	1.235376
1150.000000	1.235421
1148.000000	1.235467
1146.000000	1.235600
1144.000000	1.235565
1142.000000	1.235399
1140.000000	1.234941
1138.000000	1.234246
1136.000000	1.234047
1134.000000	1.234013
1132.000000	1.233756
1130.000000	1.233889
1128.000000	1.233754
1126.000000	1.233413
1124.000000	1.233635
1122.000000	1.234057
1120.000000	1.234069
1118.000000	1.233443
1116.000000	1.233545
1114.000000	1.234163
1112.000000	1.234326
1110.000000	1.234333
1108.000000	1.234262
1106.000000	1.234350
1104.000000	1.234750
1102.000000	1.234700
1100.000000	1.233981
1098.000000	1.234222
1096.000000	1.234705
1094.000000	1.234798
1092.000000	1.235042
1090.000000	1.234741
1088.000000	1.234425
1086.000000	1.233956
1084.000000	1.233499
1082.000000	1.232801
1080.000000	1.232083
1078.000000	1.232058
1076.000000	1.232189
1074.000000	1.232514
1072.000000	1.231762
1070.000000	1.230546
1068.000000	1.230156
1066.000000	1.229736
1064.000000	1.229409
1062.000000	1.228907
1060.000000	1.228674
1058.000000	1.228861
1056.000000	1.228446
1054.000000	1.226827
1052.000000	1.225806
1050.000000	1.225237
1048.000000	1.224262
1046.000000	1.223341
1044.000000	1.223037
1042.000000	1.222626
1040.000000	1.222406
1038.000000	1.222694
1036.000000	1.222824
1034.000000	1.222633
1032.000000	1.221932
1030.000000	1.221544
1028.000000	1.221050
1026.000000	1.220432
1024.000000	1.220580
1022.000000	1.220888
1020.000000	1.220422
1018.000000	1.220640
1016.000000	1.220267
1014.000000	1.219240
1012.000000	1.218313
1010.000000	1.217850
1008.000000	1.217909
1006.000000	1.217298
1004.000000	1.216783
1002.000000	1.217124
1000.000000	1.217572
