PE IR       SUBTECH     SPECTRUM    ASCII       PEDS        4.00        
   -1
TE109A_025_100K.ASC
20/04/21
13:18:50.00
20/04/21
13:18:51.00
Administrator
TE109A, Tuesday, April 21 2020, 025.
1000.000000
#HDR
-1
-1
#GR
cm-1
A
1.0
0.0
6000.000000
-2.000000
2501
8
1.227140
1.119253
#DATA
6000.000000	1.169151
5998.000000	1.169230
5996.000000	1.169390
5994.000000	1.169464
5992.000000	1.169062
5990.000000	1.168368
5988.000000	1.167864
5986.000000	1.167829
5984.000000	1.168192
5982.000000	1.168308
5980.000000	1.168571
5978.000000	1.169013
5976.000000	1.169060
5974.000000	1.168970
5972.000000	1.168241
5970.000000	1.167805
5968.000000	1.168206
5966.000000	1.168910
5964.000000	1.169403
5962.000000	1.169383
5960.000000	1.168872
5958.000000	1.168521
5956.000000	1.168368
5954.000000	1.168286
5952.000000	1.167827
5950.000000	1.166942
5948.000000	1.166373
5946.000000	1.166142
5944.000000	1.166286
5942.000000	1.166975
5940.000000	1.167593
5938.000000	1.168538
5936.000000	1.168375
5934.000000	1.167591
5932.000000	1.166993
5930.000000	1.166634
5928.000000	1.166876
5926.000000	1.166520
5924.000000	1.166407
5922.000000	1.166979
5920.000000	1.167410
5918.000000	1.167787
5916.000000	1.167966
5914.000000	1.168181
5912.000000	1.168185
5910.000000	1.167874
5908.000000	1.167559
5906.000000	1.167601
5904.000000	1.167778
5902.000000	1.167067
5900.000000	1.166123
5898.000000	1.165769
5896.000000	1.166421
5894.000000	1.167683
5892.000000	1.167519
5890.000000	1.166521
5888.000000	1.165833
5886.000000	1.165971
5884.000000	1.166427
5882.000000	1.166292
5880.000000	1.165993
5878.000000	1.166025
5876.000000	1.166287
5874.000000	1.166284
5872.000000	1.165968
5870.000000	1.166205
5868.000000	1.166635
5866.000000	1.166488
5864.000000	1.165698
5862.000000	1.165126
5860.000000	1.165199
5858.000000	1.165566
5856.000000	1.166037
5854.000000	1.166652
5852.000000	1.166819
5850.000000	1.165988
5848.000000	1.165222
5846.000000	1.165148
5844.000000	1.165495
5842.000000	1.165460
5840.000000	1.165339
5838.000000	1.165974
5836.000000	1.166459
5834.000000	1.166218
5832.000000	1.165340
5830.000000	1.165099
5828.000000	1.165016
5826.000000	1.165318
5824.000000	1.165580
5822.000000	1.165813
5820.000000	1.165839
5818.000000	1.165682
5816.000000	1.166007
5814.000000	1.166360
5812.000000	1.166370
5810.000000	1.166300
5808.000000	1.166222
5806.000000	1.165972
5804.000000	1.165398
5802.000000	1.165299
5800.000000	1.165867
5798.000000	1.166356
5796.000000	1.166096
5794.000000	1.165562
5792.000000	1.165285
5790.000000	1.165353
5788.000000	1.165335
5786.000000	1.165248
5784.000000	1.165385
5782.000000	1.165486
5780.000000	1.165831
5778.000000	1.165857
5776.000000	1.165776
5774.000000	1.165517
5772.000000	1.165548
5770.000000	1.166172
5768.000000	1.166523
5766.000000	1.166279
5764.000000	1.165760
5762.000000	1.165413
5760.000000	1.165442
5758.000000	1.164954
5756.000000	1.164410
5754.000000	1.164090
5752.000000	1.164158
5750.000000	1.164423
5748.000000	1.164757
5746.000000	1.165156
5744.000000	1.165338
5742.000000	1.165260
5740.000000	1.164968
5738.000000	1.164575
5736.000000	1.164117
5734.000000	1.163899
5732.000000	1.164270
5730.000000	1.164420
5728.000000	1.164496
5726.000000	1.164504
5724.000000	1.164327
5722.000000	1.164303
5720.000000	1.164323
5718.000000	1.164631
5716.000000	1.164994
5714.000000	1.165088
5712.000000	1.165479
5710.000000	1.165547
5708.000000	1.165081
5706.000000	1.164528
5704.000000	1.163996
5702.000000	1.163934
5700.000000	1.164151
5698.000000	1.164658
5696.000000	1.165256
5694.000000	1.165445
5692.000000	1.165077
5690.000000	1.164466
5688.000000	1.163842
5686.000000	1.163842
5684.000000	1.164193
5682.000000	1.164549
5680.000000	1.164788
5678.000000	1.164991
5676.000000	1.165163
5674.000000	1.164969
5672.000000	1.164710
5670.000000	1.164860
5668.000000	1.165023
5666.000000	1.165203
5664.000000	1.165188
5662.000000	1.165224
5660.000000	1.164991
5658.000000	1.164448
5656.000000	1.164219
5654.000000	1.164418
5652.000000	1.165006
5650.000000	1.165254
5648.000000	1.165159
5646.000000	1.164752
5644.000000	1.164494
5642.000000	1.164473
5640.000000	1.164473
5638.000000	1.164331
5636.000000	1.164295
5634.000000	1.164136
5632.000000	1.164188
5630.000000	1.164314
5628.000000	1.164308
5626.000000	1.164391
5624.000000	1.164477
5622.000000	1.164700
5620.000000	1.164798
5618.000000	1.164647
5616.000000	1.164462
5614.000000	1.163971
5612.000000	1.163593
5610.000000	1.163634
5608.000000	1.163956
5606.000000	1.164180
5604.000000	1.163776
5602.000000	1.163437
5600.000000	1.163488
5598.000000	1.163850
5596.000000	1.164270
5594.000000	1.164226
5592.000000	1.164111
5590.000000	1.163850
5588.000000	1.163734
5586.000000	1.163854
5584.000000	1.163882
5582.000000	1.163473
5580.000000	1.163160
5578.000000	1.163304
5576.000000	1.163404
5574.000000	1.163222
5572.000000	1.163292
5570.000000	1.163542
5568.000000	1.163377
5566.000000	1.162839
5564.000000	1.162735
5562.000000	1.162998
5560.000000	1.162989
5558.000000	1.162962
5556.000000	1.163080
5554.000000	1.162923
5552.000000	1.162453
5550.000000	1.161861
5548.000000	1.161852
5546.000000	1.162298
5544.000000	1.162761
5542.000000	1.163083
5540.000000	1.162977
5538.000000	1.162657
5536.000000	1.162437
5534.000000	1.162165
5532.000000	1.161819
5530.000000	1.161795
5528.000000	1.162067
5526.000000	1.162681
5524.000000	1.162996
5522.000000	1.163064
5520.000000	1.162689
5518.000000	1.161896
5516.000000	1.161362
5514.000000	1.161134
5512.000000	1.161313
5510.000000	1.161793
5508.000000	1.162088
5506.000000	1.162133
5504.000000	1.161899
5502.000000	1.161875
5500.000000	1.161861
5498.000000	1.161880
5496.000000	1.161925
5494.000000	1.161755
5492.000000	1.161699
5490.000000	1.161850
5488.000000	1.162138
5486.000000	1.162037
5484.000000	1.161814
5482.000000	1.161922
5480.000000	1.161973
5478.000000	1.161468
5476.000000	1.160676
5474.000000	1.160392
5472.000000	1.160675
5470.000000	1.160972
5468.000000	1.161386
5466.000000	1.161909
5464.000000	1.161908
5462.000000	1.161213
5460.000000	1.160608
5458.000000	1.160652
5456.000000	1.161149
5454.000000	1.161485
5452.000000	1.161249
5450.000000	1.160675
5448.000000	1.160477
5446.000000	1.160704
5444.000000	1.160671
5442.000000	1.160295
5440.000000	1.160357
5438.000000	1.160934
5436.000000	1.161190
5434.000000	1.160933
5432.000000	1.160746
5430.000000	1.160961
5428.000000	1.161186
5426.000000	1.161229
5424.000000	1.161253
5422.000000	1.160922
5420.000000	1.160469
5418.000000	1.160412
5416.000000	1.160526
5414.000000	1.160461
5412.000000	1.160079
5410.000000	1.159801
5408.000000	1.159709
5406.000000	1.159889
5404.000000	1.160334
5402.000000	1.160725
5400.000000	1.160800
5398.000000	1.160772
5396.000000	1.160693
5394.000000	1.160821
5392.000000	1.160690
5390.000000	1.160291
5388.000000	1.159971
5386.000000	1.159813
5384.000000	1.159787
5382.000000	1.159561
5380.000000	1.159622
5378.000000	1.159884
5376.000000	1.160109
5374.000000	1.160310
5372.000000	1.160268
5370.000000	1.160165
5368.000000	1.160300
5366.000000	1.160700
5364.000000	1.160902
5362.000000	1.160618
5360.000000	1.160103
5358.000000	1.159841
5356.000000	1.159751
5354.000000	1.159593
5352.000000	1.159469
5350.000000	1.159606
5348.000000	1.159772
5346.000000	1.159700
5344.000000	1.159632
5342.000000	1.159986
5340.000000	1.160480
5338.000000	1.160626
5336.000000	1.160404
5334.000000	1.160013
5332.000000	1.160036
5330.000000	1.160461
5328.000000	1.160663
5326.000000	1.160430
5324.000000	1.160152
5322.000000	1.160410
5320.000000	1.160789
5318.000000	1.160898
5316.000000	1.160837
5314.000000	1.160774
5312.000000	1.161042
5310.000000	1.161296
5308.000000	1.161260
5306.000000	1.160922
5304.000000	1.160772
5302.000000	1.160908
5300.000000	1.161074
5298.000000	1.161318
5296.000000	1.161783
5294.000000	1.162261
5292.000000	1.162465
5290.000000	1.162569
5288.000000	1.162692
5286.000000	1.162528
5284.000000	1.162341
5282.000000	1.162587
5280.000000	1.163241
5278.000000	1.163504
5276.000000	1.163393
5274.000000	1.163510
5272.000000	1.163806
5270.000000	1.164002
5268.000000	1.163969
5266.000000	1.164075
5264.000000	1.164257
5262.000000	1.164455
5260.000000	1.164527
5258.000000	1.164427
5256.000000	1.164544
5254.000000	1.165074
5252.000000	1.165751
5250.000000	1.166102
5248.000000	1.166190
5246.000000	1.166108
5244.000000	1.166151
5242.000000	1.166421
5240.000000	1.166849
5238.000000	1.167370
5236.000000	1.167916
5234.000000	1.168554
5232.000000	1.168936
5230.000000	1.169166
5228.000000	1.169366
5226.000000	1.169745
5224.000000	1.170337
5222.000000	1.170883
5220.000000	1.171308
5218.000000	1.171798
5216.000000	1.172240
5214.000000	1.172428
5212.000000	1.172481
5210.000000	1.172874
5208.000000	1.173234
5206.000000	1.173313
5204.000000	1.173677
5202.000000	1.174532
5200.000000	1.175441
5198.000000	1.175973
5196.000000	1.176365
5194.000000	1.176526
5192.000000	1.176517
5190.000000	1.176664
5188.000000	1.177084
5186.000000	1.177582
5184.000000	1.178093
5182.000000	1.178717
5180.000000	1.179201
5178.000000	1.179492
5176.000000	1.179806
5174.000000	1.180112
5172.000000	1.180278
5170.000000	1.180462
5168.000000	1.180818
5166.000000	1.181225
5164.000000	1.181494
5162.000000	1.181950
5160.000000	1.182383
5158.000000	1.182538
5156.000000	1.182613
5154.000000	1.183039
5152.000000	1.183604
5150.000000	1.184129
5148.000000	1.184453
5146.000000	1.184589
5144.000000	1.184568
5142.000000	1.184758
5140.000000	1.185240
5138.000000	1.185798
5136.000000	1.186132
5134.000000	1.186355
5132.000000	1.186369
5130.000000	1.186586
5128.000000	1.186935
5126.000000	1.187012
5124.000000	1.186707
5122.000000	1.186485
5120.000000	1.186777
5118.000000	1.187173
5116.000000	1.187284
5114.000000	1.187094
5112.000000	1.187183
5110.000000	1.187754
5108.000000	1.188311
5106.000000	1.188406
5104.000000	1.188000
5102.000000	1.187450
5100.000000	1.187308
5098.000000	1.187659
5096.000000	1.187996
5094.000000	1.188343
5092.000000	1.188691
5090.000000	1.188576
5088.000000	1.188022
5086.000000	1.187758
5084.000000	1.187620
5082.000000	1.187753
5080.000000	1.188235
5078.000000	1.188786
5076.000000	1.188861
5074.000000	1.188594
5072.000000	1.188356
5070.000000	1.188148
5068.000000	1.188073
5066.000000	1.188071
5064.000000	1.188164
5062.000000	1.188311
5060.000000	1.188319
5058.000000	1.188211
5056.000000	1.188042
5054.000000	1.188012
5052.000000	1.187994
5050.000000	1.188086
5048.000000	1.188095
5046.000000	1.187959
5044.000000	1.187781
5042.000000	1.187817
5040.000000	1.187909
5038.000000	1.187872
5036.000000	1.187809
5034.000000	1.187983
5032.000000	1.188196
5030.000000	1.188133
5028.000000	1.187766
5026.000000	1.187386
5024.000000	1.187169
5022.000000	1.187096
5020.000000	1.187377
5018.000000	1.187666
5016.000000	1.187508
5014.000000	1.187156
5012.000000	1.187032
5010.000000	1.187031
5008.000000	1.186752
5006.000000	1.186382
5004.000000	1.186229
5002.000000	1.186345
5000.000000	1.186309
4998.000000	1.186020
4996.000000	1.185823
4994.000000	1.185970
4992.000000	1.186210
4990.000000	1.186307
4988.000000	1.186179
4986.000000	1.185871
4984.000000	1.185543
4982.000000	1.185264
4980.000000	1.185162
4978.000000	1.185131
4976.000000	1.185013
4974.000000	1.184709
4972.000000	1.184359
4970.000000	1.184100
4968.000000	1.183922
4966.000000	1.183810
4964.000000	1.183731
4962.000000	1.183758
4960.000000	1.183708
4958.000000	1.183582
4956.000000	1.183426
4954.000000	1.183327
4952.000000	1.183173
4950.000000	1.183040
4948.000000	1.182884
4946.000000	1.182699
4944.000000	1.182657
4942.000000	1.182756
4940.000000	1.182642
4938.000000	1.182303
4936.000000	1.181873
4934.000000	1.181537
4932.000000	1.181238
4930.000000	1.181244
4928.000000	1.181420
4926.000000	1.181411
4924.000000	1.181016
4922.000000	1.180820
4920.000000	1.181016
4918.000000	1.181121
4916.000000	1.180841
4914.000000	1.180390
4912.000000	1.179904
4910.000000	1.179417
4908.000000	1.179315
4906.000000	1.179379
4904.000000	1.179429
4902.000000	1.179256
4900.000000	1.178837
4898.000000	1.178321
4896.000000	1.178064
4894.000000	1.177982
4892.000000	1.177905
4890.000000	1.177808
4888.000000	1.177801
4886.000000	1.177741
4884.000000	1.177524
4882.000000	1.177094
4880.000000	1.176700
4878.000000	1.176508
4876.000000	1.176192
4874.000000	1.175847
4872.000000	1.175573
4870.000000	1.175441
4868.000000	1.175191
4866.000000	1.174835
4864.000000	1.174330
4862.000000	1.173963
4860.000000	1.174029
4858.000000	1.174209
4856.000000	1.173969
4854.000000	1.173299
4852.000000	1.172729
4850.000000	1.172524
4848.000000	1.172758
4846.000000	1.172915
4844.000000	1.172660
4842.000000	1.172265
4840.000000	1.172009
4838.000000	1.171722
4836.000000	1.171457
4834.000000	1.171389
4832.000000	1.171296
4830.000000	1.171016
4828.000000	1.170632
4826.000000	1.170334
4824.000000	1.170133
4822.000000	1.169910
4820.000000	1.169621
4818.000000	1.169414
4816.000000	1.169047
4814.000000	1.168567
4812.000000	1.168519
4810.000000	1.168688
4808.000000	1.168438
4806.000000	1.167977
4804.000000	1.167501
4802.000000	1.167038
4800.000000	1.166796
4798.000000	1.166621
4796.000000	1.166269
4794.000000	1.165964
4792.000000	1.165812
4790.000000	1.165614
4788.000000	1.165437
4786.000000	1.165066
4784.000000	1.164638
4782.000000	1.164422
4780.000000	1.164306
4778.000000	1.164070
4776.000000	1.163842
4774.000000	1.163511
4772.000000	1.163175
4770.000000	1.162965
4768.000000	1.162805
4766.000000	1.162578
4764.000000	1.162439
4762.000000	1.162325
4760.000000	1.162142
4758.000000	1.161798
4756.000000	1.161468
4754.000000	1.161337
4752.000000	1.161248
4750.000000	1.160991
4748.000000	1.160695
4746.000000	1.160455
4744.000000	1.160280
4742.000000	1.160171
4740.000000	1.159943
4738.000000	1.159448
4736.000000	1.159012
4734.000000	1.158880
4732.000000	1.158770
4730.000000	1.158443
4728.000000	1.158137
4726.000000	1.157973
4724.000000	1.157823
4722.000000	1.157604
4720.000000	1.157305
4718.000000	1.156859
4716.000000	1.156420
4714.000000	1.156268
4712.000000	1.156386
4710.000000	1.156404
4708.000000	1.156219
4706.000000	1.155971
4704.000000	1.155657
4702.000000	1.155281
4700.000000	1.154978
4698.000000	1.154833
4696.000000	1.154793
4694.000000	1.154686
4692.000000	1.154363
4690.000000	1.154047
4688.000000	1.153988
4686.000000	1.154117
4684.000000	1.154042
4682.000000	1.153654
4680.000000	1.153214
4678.000000	1.152968
4676.000000	1.152796
4674.000000	1.152556
4672.000000	1.152232
4670.000000	1.151844
4668.000000	1.151565
4666.000000	1.151651
4664.000000	1.151865
4662.000000	1.151715
4660.000000	1.151429
4658.000000	1.151350
4656.000000	1.151383
4654.000000	1.151401
4652.000000	1.151255
4650.000000	1.150853
4648.000000	1.150451
4646.000000	1.150205
4644.000000	1.150054
4642.000000	1.149947
4640.000000	1.149784
4638.000000	1.149627
4636.000000	1.149476
4634.000000	1.149271
4632.000000	1.149141
4630.000000	1.149192
4628.000000	1.149198
4626.000000	1.149023
4624.000000	1.148746
4622.000000	1.148593
4620.000000	1.148603
4618.000000	1.148506
4616.000000	1.148284
4614.000000	1.148118
4612.000000	1.147956
4610.000000	1.147781
4608.000000	1.147714
4606.000000	1.147685
4604.000000	1.147606
4602.000000	1.147432
4600.000000	1.147190
4598.000000	1.146959
4596.000000	1.146760
4594.000000	1.146656
4592.000000	1.146844
4590.000000	1.147108
4588.000000	1.147036
4586.000000	1.146617
4584.000000	1.146303
4582.000000	1.146171
4580.000000	1.146024
4578.000000	1.145874
4576.000000	1.145802
4574.000000	1.145678
4572.000000	1.145535
4570.000000	1.145542
4568.000000	1.145690
4566.000000	1.145764
4564.000000	1.145610
4562.000000	1.145370
4560.000000	1.145130
4558.000000	1.144943
4556.000000	1.144841
4554.000000	1.144737
4552.000000	1.144542
4550.000000	1.144426
4548.000000	1.144386
4546.000000	1.144414
4544.000000	1.144433
4542.000000	1.144335
4540.000000	1.144201
4538.000000	1.144180
4536.000000	1.144215
4534.000000	1.144228
4532.000000	1.144113
4530.000000	1.143799
4528.000000	1.143521
4526.000000	1.143474
4524.000000	1.143574
4522.000000	1.143761
4520.000000	1.143789
4518.000000	1.143572
4516.000000	1.143281
4514.000000	1.143147
4512.000000	1.143028
4510.000000	1.142915
4508.000000	1.142849
4506.000000	1.142878
4504.000000	1.142910
4502.000000	1.142830
4500.000000	1.142741
4498.000000	1.142656
4496.000000	1.142434
4494.000000	1.142242
4492.000000	1.142298
4490.000000	1.142322
4488.000000	1.142088
4486.000000	1.141762
4484.000000	1.141585
4482.000000	1.141597
4480.000000	1.141682
4478.000000	1.141689
4476.000000	1.141575
4474.000000	1.141447
4472.000000	1.141441
4470.000000	1.141442
4468.000000	1.141405
4466.000000	1.141438
4464.000000	1.141397
4462.000000	1.141128
4460.000000	1.140852
4458.000000	1.140687
4456.000000	1.140718
4454.000000	1.141084
4452.000000	1.141488
4450.000000	1.141438
4448.000000	1.141111
4446.000000	1.140876
4444.000000	1.140754
4442.000000	1.140613
4440.000000	1.140572
4438.000000	1.140585
4436.000000	1.140386
4434.000000	1.140179
4432.000000	1.140271
4430.000000	1.140451
4428.000000	1.140428
4426.000000	1.140314
4424.000000	1.140179
4422.000000	1.140167
4420.000000	1.140231
4418.000000	1.140187
4416.000000	1.140107
4414.000000	1.140086
4412.000000	1.139990
4410.000000	1.139868
4408.000000	1.139845
4406.000000	1.139950
4404.000000	1.140119
4402.000000	1.140168
4400.000000	1.140106
4398.000000	1.140086
4396.000000	1.140079
4394.000000	1.140007
4392.000000	1.139973
4390.000000	1.140000
4388.000000	1.139989
4386.000000	1.139971
4384.000000	1.139952
4382.000000	1.139978
4380.000000	1.139930
4378.000000	1.139750
4376.000000	1.139832
4374.000000	1.140188
4372.000000	1.140175
4370.000000	1.139877
4368.000000	1.139819
4366.000000	1.140035
4364.000000	1.140208
4362.000000	1.140327
4360.000000	1.140379
4358.000000	1.140279
4356.000000	1.140140
4354.000000	1.140098
4352.000000	1.140088
4350.000000	1.140135
4348.000000	1.140279
4346.000000	1.140423
4344.000000	1.140450
4342.000000	1.140534
4340.000000	1.140749
4338.000000	1.140862
4336.000000	1.140900
4334.000000	1.141037
4332.000000	1.141103
4330.000000	1.141006
4328.000000	1.141003
4326.000000	1.141083
4324.000000	1.140993
4322.000000	1.140988
4320.000000	1.141189
4318.000000	1.141277
4316.000000	1.141242
4314.000000	1.141186
4312.000000	1.141178
4310.000000	1.141346
4308.000000	1.141531
4306.000000	1.141595
4304.000000	1.141589
4302.000000	1.141518
4300.000000	1.141540
4298.000000	1.141660
4296.000000	1.141622
4294.000000	1.141586
4292.000000	1.141766
4290.000000	1.141887
4288.000000	1.141814
4286.000000	1.141796
4284.000000	1.141841
4282.000000	1.141850
4280.000000	1.141851
4278.000000	1.142015
4276.000000	1.142331
4274.000000	1.142613
4272.000000	1.142690
4270.000000	1.142644
4268.000000	1.142624
4266.000000	1.142697
4264.000000	1.142749
4262.000000	1.142794
4260.000000	1.142874
4258.000000	1.142886
4256.000000	1.142791
4254.000000	1.142760
4252.000000	1.142888
4250.000000	1.143232
4248.000000	1.143582
4246.000000	1.143530
4244.000000	1.143319
4242.000000	1.143338
4240.000000	1.143354
4238.000000	1.143235
4236.000000	1.143100
4234.000000	1.143124
4232.000000	1.143348
4230.000000	1.143463
4228.000000	1.143439
4226.000000	1.143581
4224.000000	1.143865
4222.000000	1.143984
4220.000000	1.143890
4218.000000	1.143821
4216.000000	1.143843
4214.000000	1.143944
4212.000000	1.143995
4210.000000	1.143882
4208.000000	1.143841
4206.000000	1.143831
4204.000000	1.143645
4202.000000	1.143598
4200.000000	1.143768
4198.000000	1.143747
4196.000000	1.143507
4194.000000	1.143489
4192.000000	1.143658
4190.000000	1.143712
4188.000000	1.143680
4186.000000	1.143672
4184.000000	1.143652
4182.000000	1.143654
4180.000000	1.143697
4178.000000	1.143727
4176.000000	1.143683
4174.000000	1.143600
4172.000000	1.143554
4170.000000	1.143630
4168.000000	1.143786
4166.000000	1.143957
4164.000000	1.144046
4162.000000	1.143997
4160.000000	1.143831
4158.000000	1.143722
4156.000000	1.143808
4154.000000	1.143898
4152.000000	1.143819
4150.000000	1.143739
4148.000000	1.143573
4146.000000	1.143420
4144.000000	1.143551
4142.000000	1.143760
4140.000000	1.143830
4138.000000	1.143848
4136.000000	1.143761
4134.000000	1.143538
4132.000000	1.143397
4130.000000	1.143491
4128.000000	1.143581
4126.000000	1.143544
4124.000000	1.143587
4122.000000	1.143706
4120.000000	1.143684
4118.000000	1.143640
4116.000000	1.143727
4114.000000	1.143748
4112.000000	1.143642
4110.000000	1.143536
4108.000000	1.143420
4106.000000	1.143316
4104.000000	1.143374
4102.000000	1.143532
4100.000000	1.143604
4098.000000	1.143601
4096.000000	1.143578
4094.000000	1.143513
4092.000000	1.143465
4090.000000	1.143475
4088.000000	1.143391
4086.000000	1.143237
4084.000000	1.143337
4082.000000	1.143576
4080.000000	1.143616
4078.000000	1.143527
4076.000000	1.143537
4074.000000	1.143641
4072.000000	1.143744
4070.000000	1.143749
4068.000000	1.143620
4066.000000	1.143560
4064.000000	1.143697
4062.000000	1.143817
4060.000000	1.143825
4058.000000	1.143836
4056.000000	1.143845
4054.000000	1.143787
4052.000000	1.143731
4050.000000	1.143639
4048.000000	1.143597
4046.000000	1.143602
4044.000000	1.143467
4042.000000	1.143394
4040.000000	1.143583
4038.000000	1.143854
4036.000000	1.143956
4034.000000	1.143828
4032.000000	1.143636
4030.000000	1.143549
4028.000000	1.143542
4026.000000	1.143423
4024.000000	1.143286
4022.000000	1.143284
4020.000000	1.143294
4018.000000	1.143382
4016.000000	1.143483
4014.000000	1.143357
4012.000000	1.143275
4010.000000	1.143456
4008.000000	1.143460
4006.000000	1.143210
4004.000000	1.143130
4002.000000	1.143174
4000.000000	1.143068
3998.000000	1.142917
3996.000000	1.142890
3994.000000	1.142931
3992.000000	1.142851
3990.000000	1.142731
3988.000000	1.142714
3986.000000	1.142716
3984.000000	1.142612
3982.000000	1.142431
3980.000000	1.142143
3978.000000	1.141926
3976.000000	1.142104
3974.000000	1.142251
3972.000000	1.141968
3970.000000	1.141688
3968.000000	1.141623
3966.000000	1.141520
3964.000000	1.141254
3962.000000	1.140953
3960.000000	1.140739
3958.000000	1.140563
3956.000000	1.140292
3954.000000	1.140077
3952.000000	1.139911
3950.000000	1.139594
3948.000000	1.139216
3946.000000	1.138944
3944.000000	1.138717
3942.000000	1.138476
3940.000000	1.138284
3938.000000	1.138078
3936.000000	1.137825
3934.000000	1.137500
3932.000000	1.137014
3930.000000	1.136546
3928.000000	1.136286
3926.000000	1.136127
3924.000000	1.135887
3922.000000	1.135607
3920.000000	1.135295
3918.000000	1.134899
3916.000000	1.134567
3914.000000	1.134373
3912.000000	1.134053
3910.000000	1.133631
3908.000000	1.133372
3906.000000	1.132842
3904.000000	1.131878
3902.000000	1.131173
3900.000000	1.130883
3898.000000	1.130924
3896.000000	1.131222
3894.000000	1.131080
3892.000000	1.130161
3890.000000	1.129589
3888.000000	1.129438
3886.000000	1.128831
3884.000000	1.128613
3882.000000	1.128765
3880.000000	1.128587
3878.000000	1.128641
3876.000000	1.128545
3874.000000	1.128120
3872.000000	1.127517
3870.000000	1.126634
3868.000000	1.126451
3866.000000	1.126545
3864.000000	1.126139
3862.000000	1.126024
3860.000000	1.126274
3858.000000	1.126475
3856.000000	1.125313
3854.000000	1.122594
3852.000000	1.121654
3850.000000	1.123358
3848.000000	1.124957
3846.000000	1.125239
3844.000000	1.124753
3842.000000	1.124240
3840.000000	1.123492
3838.000000	1.122275
3836.000000	1.121941
3834.000000	1.122643
3832.000000	1.123101
3830.000000	1.123276
3828.000000	1.123288
3826.000000	1.123219
3824.000000	1.123070
3822.000000	1.122137
3820.000000	1.121568
3818.000000	1.121681
3816.000000	1.121124
3814.000000	1.121304
3812.000000	1.122428
3810.000000	1.122697
3808.000000	1.121814
3806.000000	1.121195
3804.000000	1.121401
3802.000000	1.120845
3800.000000	1.120445
3798.000000	1.121074
3796.000000	1.121406
3794.000000	1.121635
3792.000000	1.122001
3790.000000	1.122060
3788.000000	1.121881
3786.000000	1.121745
3784.000000	1.121952
3782.000000	1.122208
3780.000000	1.121981
3778.000000	1.121767
3776.000000	1.121969
3774.000000	1.122238
3772.000000	1.122174
3770.000000	1.121801
3768.000000	1.121602
3766.000000	1.121693
3764.000000	1.122025
3762.000000	1.122172
3760.000000	1.121858
3758.000000	1.121786
3756.000000	1.122209
3754.000000	1.121890
3752.000000	1.120435
3750.000000	1.119600
3748.000000	1.120305
3746.000000	1.120249
3744.000000	1.119253
3742.000000	1.120339
3740.000000	1.122117
3738.000000	1.122166
3736.000000	1.121391
3734.000000	1.121291
3732.000000	1.121901
3730.000000	1.122782
3728.000000	1.123335
3726.000000	1.123396
3724.000000	1.123705
3722.000000	1.124171
3720.000000	1.124530
3718.000000	1.124961
3716.000000	1.125521
3714.000000	1.125581
3712.000000	1.125159
3710.000000	1.125457
3708.000000	1.126618
3706.000000	1.127878
3704.000000	1.128725
3702.000000	1.129188
3700.000000	1.130059
3698.000000	1.131365
3696.000000	1.132549
3694.000000	1.133585
3692.000000	1.134211
3690.000000	1.134121
3688.000000	1.134517
3686.000000	1.136665
3684.000000	1.139088
3682.000000	1.140739
3680.000000	1.142230
3678.000000	1.143410
3676.000000	1.143960
3674.000000	1.145532
3672.000000	1.147738
3670.000000	1.149108
3668.000000	1.151331
3666.000000	1.154395
3664.000000	1.156970
3662.000000	1.159146
3660.000000	1.161258
3658.000000	1.162804
3656.000000	1.163988
3654.000000	1.166066
3652.000000	1.167813
3650.000000	1.168304
3648.000000	1.169625
3646.000000	1.172419
3644.000000	1.175155
3642.000000	1.177074
3640.000000	1.178757
3638.000000	1.180369
3636.000000	1.181823
3634.000000	1.183251
3632.000000	1.184470
3630.000000	1.184622
3628.000000	1.184935
3626.000000	1.187128
3624.000000	1.189520
3622.000000	1.190670
3620.000000	1.190972
3618.000000	1.191746
3616.000000	1.193191
3614.000000	1.194237
3612.000000	1.195006
3610.000000	1.195638
3608.000000	1.196229
3606.000000	1.197338
3604.000000	1.198591
3602.000000	1.199412
3600.000000	1.200077
3598.000000	1.200932
3596.000000	1.201595
3594.000000	1.202001
3592.000000	1.202685
3590.000000	1.203220
3588.000000	1.203184
3586.000000	1.203555
3584.000000	1.204609
3582.000000	1.205485
3580.000000	1.205876
3578.000000	1.206170
3576.000000	1.206587
3574.000000	1.206989
3572.000000	1.207258
3570.000000	1.207284
3568.000000	1.207062
3566.000000	1.207186
3564.000000	1.207898
3562.000000	1.208523
3560.000000	1.208853
3558.000000	1.209157
3556.000000	1.209576
3554.000000	1.209910
3552.000000	1.209962
3550.000000	1.210008
3548.000000	1.210125
3546.000000	1.210178
3544.000000	1.210390
3542.000000	1.210832
3540.000000	1.211132
3538.000000	1.211306
3536.000000	1.211539
3534.000000	1.211700
3532.000000	1.211668
3530.000000	1.211672
3528.000000	1.211891
3526.000000	1.212177
3524.000000	1.212338
3522.000000	1.212505
3520.000000	1.212723
3518.000000	1.212826
3516.000000	1.212949
3514.000000	1.213148
3512.000000	1.213298
3510.000000	1.213427
3508.000000	1.213674
3506.000000	1.214047
3504.000000	1.214251
3502.000000	1.214265
3500.000000	1.214402
3498.000000	1.214631
3496.000000	1.214928
3494.000000	1.215320
3492.000000	1.215637
3490.000000	1.215778
3488.000000	1.215829
3486.000000	1.215952
3484.000000	1.216098
3482.000000	1.216266
3480.000000	1.216472
3478.000000	1.216732
3476.000000	1.217052
3474.000000	1.217191
3472.000000	1.217276
3470.000000	1.217399
3468.000000	1.217459
3466.000000	1.217564
3464.000000	1.217856
3462.000000	1.218211
3460.000000	1.218514
3458.000000	1.218746
3456.000000	1.218989
3454.000000	1.219277
3452.000000	1.219433
3450.000000	1.219477
3448.000000	1.219525
3446.000000	1.219668
3444.000000	1.219858
3442.000000	1.220005
3440.000000	1.220179
3438.000000	1.220313
3436.000000	1.220433
3434.000000	1.220665
3432.000000	1.220907
3430.000000	1.220948
3428.000000	1.220947
3426.000000	1.221131
3424.000000	1.221406
3422.000000	1.221452
3420.000000	1.221392
3418.000000	1.221557
3416.000000	1.221846
3414.000000	1.222038
3412.000000	1.222123
3410.000000	1.222237
3408.000000	1.222332
3406.000000	1.222440
3404.000000	1.222620
3402.000000	1.222663
3400.000000	1.222746
3398.000000	1.222997
3396.000000	1.223134
3394.000000	1.223081
3392.000000	1.223047
3390.000000	1.223166
3388.000000	1.223261
3386.000000	1.223326
3384.000000	1.223408
3382.000000	1.223575
3380.000000	1.223695
3378.000000	1.223630
3376.000000	1.223545
3374.000000	1.223522
3372.000000	1.223552
3370.000000	1.223678
3368.000000	1.223783
3366.000000	1.223787
3364.000000	1.223753
3362.000000	1.223772
3360.000000	1.223844
3358.000000	1.223875
3356.000000	1.223787
3354.000000	1.223801
3352.000000	1.223969
3350.000000	1.224092
3348.000000	1.224141
3346.000000	1.224194
3344.000000	1.224298
3342.000000	1.224395
3340.000000	1.224395
3338.000000	1.224327
3336.000000	1.224457
3334.000000	1.224692
3332.000000	1.224660
3330.000000	1.224378
3328.000000	1.224306
3326.000000	1.224461
3324.000000	1.224426
3322.000000	1.224335
3320.000000	1.224479
3318.000000	1.224687
3316.000000	1.224737
3314.000000	1.224698
3312.000000	1.224716
3310.000000	1.224849
3308.000000	1.224913
3306.000000	1.224944
3304.000000	1.225043
3302.000000	1.225124
3300.000000	1.225215
3298.000000	1.225288
3296.000000	1.225284
3294.000000	1.225312
3292.000000	1.225344
3290.000000	1.225289
3288.000000	1.225265
3286.000000	1.225499
3284.000000	1.225671
3282.000000	1.225691
3280.000000	1.225759
3278.000000	1.225699
3276.000000	1.225722
3274.000000	1.225930
3272.000000	1.226036
3270.000000	1.226049
3268.000000	1.225968
3266.000000	1.225862
3264.000000	1.225951
3262.000000	1.226159
3260.000000	1.226172
3258.000000	1.226071
3256.000000	1.226113
3254.000000	1.226213
3252.000000	1.226266
3250.000000	1.226334
3248.000000	1.226481
3246.000000	1.226607
3244.000000	1.226552
3242.000000	1.226471
3240.000000	1.226500
3238.000000	1.226526
3236.000000	1.226462
3234.000000	1.226436
3232.000000	1.226517
3230.000000	1.226738
3228.000000	1.227011
3226.000000	1.226969
3224.000000	1.226814
3222.000000	1.226873
3220.000000	1.227002
3218.000000	1.227013
3216.000000	1.226955
3214.000000	1.226854
3212.000000	1.226754
3210.000000	1.226787
3208.000000	1.226867
3206.000000	1.226961
3204.000000	1.226941
3202.000000	1.226909
3200.000000	1.226952
3198.000000	1.226970
3196.000000	1.226891
3194.000000	1.226791
3192.000000	1.226804
3190.000000	1.226907
3188.000000	1.226904
3186.000000	1.226817
3184.000000	1.226845
3182.000000	1.226953
3180.000000	1.227053
3178.000000	1.227107
3176.000000	1.227120
3174.000000	1.227059
3172.000000	1.226925
3170.000000	1.226937
3168.000000	1.227016
3166.000000	1.226938
3164.000000	1.226914
3162.000000	1.226954
3160.000000	1.226917
3158.000000	1.226863
3156.000000	1.226868
3154.000000	1.226886
3152.000000	1.226777
3150.000000	1.226767
3148.000000	1.226891
3146.000000	1.227018
3144.000000	1.226987
3142.000000	1.226807
3140.000000	1.226855
3138.000000	1.227013
3136.000000	1.226974
3134.000000	1.226796
3132.000000	1.226643
3130.000000	1.226625
3128.000000	1.226812
3126.000000	1.227017
3124.000000	1.226934
3122.000000	1.226752
3120.000000	1.226817
3118.000000	1.226893
3116.000000	1.226851
3114.000000	1.226887
3112.000000	1.226955
3110.000000	1.226959
3108.000000	1.226950
3106.000000	1.226925
3104.000000	1.226895
3102.000000	1.226869
3100.000000	1.226900
3098.000000	1.227020
3096.000000	1.227085
3094.000000	1.226965
3092.000000	1.226843
3090.000000	1.226908
3088.000000	1.227066
3086.000000	1.227140
3084.000000	1.226998
3082.000000	1.226825
3080.000000	1.226857
3078.000000	1.226881
3076.000000	1.226736
3074.000000	1.226580
3072.000000	1.226596
3070.000000	1.226573
3068.000000	1.226418
3066.000000	1.226332
3064.000000	1.226452
3062.000000	1.226598
3060.000000	1.226542
3058.000000	1.226436
3056.000000	1.226402
3054.000000	1.226365
3052.000000	1.226233
3050.000000	1.226001
3048.000000	1.225962
3046.000000	1.226004
3044.000000	1.225918
3042.000000	1.225688
3040.000000	1.225511
3038.000000	1.225567
3036.000000	1.225586
3034.000000	1.225455
3032.000000	1.225351
3030.000000	1.225358
3028.000000	1.225392
3026.000000	1.225309
3024.000000	1.225118
3022.000000	1.224954
3020.000000	1.224779
3018.000000	1.224533
3016.000000	1.224171
3014.000000	1.223938
3012.000000	1.223910
3010.000000	1.223754
3008.000000	1.223722
3006.000000	1.223782
3004.000000	1.223636
3002.000000	1.223445
3000.000000	1.223222
2998.000000	1.222824
2996.000000	1.222502
2994.000000	1.222436
2992.000000	1.222314
2990.000000	1.222213
2988.000000	1.222091
2986.000000	1.221793
2984.000000	1.221539
2982.000000	1.221374
2980.000000	1.221202
2978.000000	1.220980
2976.000000	1.220860
2974.000000	1.220871
2972.000000	1.220909
2970.000000	1.220889
2968.000000	1.220746
2966.000000	1.220467
2964.000000	1.220055
2962.000000	1.219537
2960.000000	1.218846
2958.000000	1.218105
2956.000000	1.217558
2954.000000	1.217095
2952.000000	1.216813
2950.000000	1.216615
2948.000000	1.216319
2946.000000	1.216016
2944.000000	1.215790
2942.000000	1.215558
2940.000000	1.215372
2938.000000	1.215159
2936.000000	1.214735
2934.000000	1.214202
2932.000000	1.213690
2930.000000	1.213274
2928.000000	1.212810
2926.000000	1.212029
2924.000000	1.211240
2922.000000	1.210590
2920.000000	1.210009
2918.000000	1.209450
2916.000000	1.209019
2914.000000	1.208882
2912.000000	1.208741
2910.000000	1.208505
2908.000000	1.208262
2906.000000	1.207873
2904.000000	1.207490
2902.000000	1.207113
2900.000000	1.206704
2898.000000	1.206438
2896.000000	1.206153
2894.000000	1.205802
2892.000000	1.205486
2890.000000	1.205048
2888.000000	1.204688
2886.000000	1.204538
2884.000000	1.204280
2882.000000	1.203895
2880.000000	1.203572
2878.000000	1.203203
2876.000000	1.202826
2874.000000	1.202461
2872.000000	1.202168
2870.000000	1.201938
2868.000000	1.201789
2866.000000	1.201563
2864.000000	1.201143
2862.000000	1.200550
2860.000000	1.199945
2858.000000	1.199385
2856.000000	1.199045
2854.000000	1.198747
2852.000000	1.198276
2850.000000	1.197822
2848.000000	1.197550
2846.000000	1.197438
2844.000000	1.197330
2842.000000	1.197186
2840.000000	1.197041
2838.000000	1.196719
2836.000000	1.196351
2834.000000	1.196033
2832.000000	1.195695
2830.000000	1.195511
2828.000000	1.195395
2826.000000	1.195147
2824.000000	1.194926
2822.000000	1.194773
2820.000000	1.194613
2818.000000	1.194375
2816.000000	1.194096
2814.000000	1.193879
2812.000000	1.193708
2810.000000	1.193454
2808.000000	1.193165
2806.000000	1.192938
2804.000000	1.192840
2802.000000	1.192765
2800.000000	1.192547
2798.000000	1.192397
2796.000000	1.192309
2794.000000	1.192130
2792.000000	1.191928
2790.000000	1.191713
2788.000000	1.191532
2786.000000	1.191342
2784.000000	1.191240
2782.000000	1.191114
2780.000000	1.190911
2778.000000	1.190783
2776.000000	1.190628
2774.000000	1.190537
2772.000000	1.190526
2770.000000	1.190529
2768.000000	1.190449
2766.000000	1.190236
2764.000000	1.190053
2762.000000	1.189923
2760.000000	1.189758
2758.000000	1.189629
2756.000000	1.189670
2754.000000	1.189687
2752.000000	1.189506
2750.000000	1.189364
2748.000000	1.189284
2746.000000	1.189193
2744.000000	1.189156
2742.000000	1.189107
2740.000000	1.188976
2738.000000	1.188867
2736.000000	1.188883
2734.000000	1.188898
2732.000000	1.188779
2730.000000	1.188637
2728.000000	1.188648
2726.000000	1.188677
2724.000000	1.188650
2722.000000	1.188662
2720.000000	1.188665
2718.000000	1.188613
2716.000000	1.188548
2714.000000	1.188539
2712.000000	1.188578
2710.000000	1.188606
2708.000000	1.188649
2706.000000	1.188585
2704.000000	1.188552
2702.000000	1.188601
2700.000000	1.188612
2698.000000	1.188612
2696.000000	1.188756
2694.000000	1.188923
2692.000000	1.188871
2690.000000	1.188787
2688.000000	1.188861
2686.000000	1.188941
2684.000000	1.189039
2682.000000	1.189044
2680.000000	1.189073
2678.000000	1.189210
2676.000000	1.189305
2674.000000	1.189350
2672.000000	1.189430
2670.000000	1.189594
2668.000000	1.189875
2666.000000	1.190046
2664.000000	1.190049
2662.000000	1.190061
2660.000000	1.190156
2658.000000	1.190275
2656.000000	1.190319
2654.000000	1.190341
2652.000000	1.190522
2650.000000	1.190790
2648.000000	1.190984
2646.000000	1.191096
2644.000000	1.191283
2642.000000	1.191484
2640.000000	1.191552
2638.000000	1.191584
2636.000000	1.191762
2634.000000	1.192098
2632.000000	1.192386
2630.000000	1.192581
2628.000000	1.192712
2626.000000	1.192775
2624.000000	1.192833
2622.000000	1.193003
2620.000000	1.193318
2618.000000	1.193573
2616.000000	1.193663
2614.000000	1.193796
2612.000000	1.194053
2610.000000	1.194414
2608.000000	1.194649
2606.000000	1.194770
2604.000000	1.194923
2602.000000	1.195099
2600.000000	1.195264
2598.000000	1.195579
2596.000000	1.195946
2594.000000	1.196185
2592.000000	1.196211
2590.000000	1.196370
2588.000000	1.196735
2586.000000	1.197038
2584.000000	1.197238
2582.000000	1.197479
2580.000000	1.197742
2578.000000	1.198026
2576.000000	1.198260
2574.000000	1.198468
2572.000000	1.198655
2570.000000	1.198880
2568.000000	1.199224
2566.000000	1.199562
2564.000000	1.199865
2562.000000	1.200142
2560.000000	1.200387
2558.000000	1.200703
2556.000000	1.201042
2554.000000	1.201317
2552.000000	1.201544
2550.000000	1.201872
2548.000000	1.202317
2546.000000	1.202630
2544.000000	1.202750
2542.000000	1.203124
2540.000000	1.203661
2538.000000	1.204059
2536.000000	1.204396
2534.000000	1.204703
2532.000000	1.204978
2530.000000	1.205247
2528.000000	1.205516
2526.000000	1.205862
2524.000000	1.206217
2522.000000	1.206571
2520.000000	1.206963
2518.000000	1.207369
2516.000000	1.207707
2514.000000	1.208029
2512.000000	1.208445
2510.000000	1.208815
2508.000000	1.209114
2506.000000	1.209407
2504.000000	1.209807
2502.000000	1.210179
2500.000000	1.210492
2498.000000	1.210807
2496.000000	1.211066
2494.000000	1.211408
2492.000000	1.211782
2490.000000	1.211983
2488.000000	1.212059
2486.000000	1.212315
2484.000000	1.212715
2482.000000	1.213011
2480.000000	1.213231
2478.000000	1.213483
2476.000000	1.213603
2474.000000	1.213764
2472.000000	1.214013
2470.000000	1.214196
2468.000000	1.214396
2466.000000	1.214596
2464.000000	1.214833
2462.000000	1.214968
2460.000000	1.214996
2458.000000	1.215138
2456.000000	1.215276
2454.000000	1.215283
2452.000000	1.215406
2450.000000	1.215592
2448.000000	1.215573
2446.000000	1.215571
2444.000000	1.215667
2442.000000	1.215775
2440.000000	1.215876
2438.000000	1.215784
2436.000000	1.215579
2434.000000	1.215558
2432.000000	1.215562
2430.000000	1.215421
2428.000000	1.215310
2426.000000	1.215242
2424.000000	1.215132
2422.000000	1.214997
2420.000000	1.214732
2418.000000	1.214577
2416.000000	1.214541
2414.000000	1.214364
2412.000000	1.214119
2410.000000	1.213913
2408.000000	1.213725
2406.000000	1.213624
2404.000000	1.213648
2402.000000	1.213564
2400.000000	1.213384
2398.000000	1.213205
2396.000000	1.213127
2394.000000	1.213121
2392.000000	1.213123
2390.000000	1.213062
2388.000000	1.212884
2386.000000	1.212742
2384.000000	1.212761
2382.000000	1.212817
2380.000000	1.212774
2378.000000	1.212704
2376.000000	1.212650
2374.000000	1.212549
2372.000000	1.212368
2370.000000	1.212230
2368.000000	1.212072
2366.000000	1.211844
2364.000000	1.211739
2362.000000	1.211690
2360.000000	1.211680
2358.000000	1.211809
2356.000000	1.212070
2354.000000	1.212378
2352.000000	1.212855
2350.000000	1.213473
2348.000000	1.213964
2346.000000	1.214302
2344.000000	1.214862
2342.000000	1.215547
2340.000000	1.215859
2338.000000	1.215414
2336.000000	1.214570
2334.000000	1.214101
2332.000000	1.214046
2330.000000	1.214192
2328.000000	1.214355
2326.000000	1.214559
2324.000000	1.214848
2322.000000	1.215057
2320.000000	1.215147
2318.000000	1.215374
2316.000000	1.215686
2314.000000	1.215940
2312.000000	1.216196
2310.000000	1.216463
2308.000000	1.216650
2306.000000	1.216740
2304.000000	1.216845
2302.000000	1.217049
2300.000000	1.217245
2298.000000	1.217359
2296.000000	1.217469
2294.000000	1.217617
2292.000000	1.217742
2290.000000	1.217853
2288.000000	1.217963
2286.000000	1.218051
2284.000000	1.218178
2282.000000	1.218321
2280.000000	1.218533
2278.000000	1.218709
2276.000000	1.218800
2274.000000	1.218917
2272.000000	1.219126
2270.000000	1.219300
2268.000000	1.219405
2266.000000	1.219519
2264.000000	1.219565
2262.000000	1.219610
2260.000000	1.219818
2258.000000	1.219997
2256.000000	1.219978
2254.000000	1.220002
2252.000000	1.220153
2250.000000	1.220220
2248.000000	1.220288
2246.000000	1.220394
2244.000000	1.220426
2242.000000	1.220430
2240.000000	1.220559
2238.000000	1.220636
2236.000000	1.220710
2234.000000	1.220811
2232.000000	1.220920
2230.000000	1.220963
2228.000000	1.221016
2226.000000	1.221110
2224.000000	1.221251
2222.000000	1.221287
2220.000000	1.221170
2218.000000	1.221112
2216.000000	1.221203
2214.000000	1.221289
2212.000000	1.221313
2210.000000	1.221346
2208.000000	1.221340
2206.000000	1.221237
2204.000000	1.221211
2202.000000	1.221309
2200.000000	1.221356
2198.000000	1.221221
2196.000000	1.221183
2194.000000	1.221264
2192.000000	1.221213
2190.000000	1.221106
2188.000000	1.221085
2186.000000	1.221079
2184.000000	1.221073
2182.000000	1.220965
2180.000000	1.220773
2178.000000	1.220698
2176.000000	1.220653
2174.000000	1.220613
2172.000000	1.220571
2170.000000	1.220422
2168.000000	1.220285
2166.000000	1.220279
2164.000000	1.220253
2162.000000	1.220244
2160.000000	1.220153
2158.000000	1.219973
2156.000000	1.219749
2154.000000	1.219531
2152.000000	1.219380
2150.000000	1.219248
2148.000000	1.219212
2146.000000	1.219215
2144.000000	1.218972
2142.000000	1.218636
2140.000000	1.218487
2138.000000	1.218382
2136.000000	1.218192
2134.000000	1.217838
2132.000000	1.217473
2130.000000	1.217227
2128.000000	1.217197
2126.000000	1.217198
2124.000000	1.217024
2122.000000	1.216711
2120.000000	1.216347
2118.000000	1.216097
2116.000000	1.215910
2114.000000	1.215657
2112.000000	1.215354
2110.000000	1.215083
2108.000000	1.214879
2106.000000	1.214601
2104.000000	1.214248
2102.000000	1.213902
2100.000000	1.213620
2098.000000	1.213349
2096.000000	1.213076
2094.000000	1.212734
2092.000000	1.212410
2090.000000	1.212216
2088.000000	1.211918
2086.000000	1.211499
2084.000000	1.211080
2082.000000	1.210727
2080.000000	1.210489
2078.000000	1.210190
2076.000000	1.209873
2074.000000	1.209619
2072.000000	1.209339
2070.000000	1.208916
2068.000000	1.208429
2066.000000	1.208096
2064.000000	1.207829
2062.000000	1.207464
2060.000000	1.207080
2058.000000	1.206811
2056.000000	1.206544
2054.000000	1.206131
2052.000000	1.205714
2050.000000	1.205393
2048.000000	1.205019
2046.000000	1.204751
2044.000000	1.204468
2042.000000	1.204042
2040.000000	1.203661
2038.000000	1.203402
2036.000000	1.203156
2034.000000	1.202836
2032.000000	1.202505
2030.000000	1.202208
2028.000000	1.201833
2026.000000	1.201501
2024.000000	1.201214
2022.000000	1.200882
2020.000000	1.200572
2018.000000	1.200282
2016.000000	1.200022
2014.000000	1.199771
2012.000000	1.199559
2010.000000	1.199286
2008.000000	1.199004
2006.000000	1.198724
2004.000000	1.198396
2002.000000	1.198148
2000.000000	1.197935
1998.000000	1.197748
1996.000000	1.197561
1994.000000	1.197345
1992.000000	1.197113
1990.000000	1.196926
1988.000000	1.196794
1986.000000	1.196710
1984.000000	1.196519
1982.000000	1.196208
1980.000000	1.196029
1978.000000	1.196012
1976.000000	1.195853
1974.000000	1.195562
1972.000000	1.195370
1970.000000	1.195254
1968.000000	1.195160
1966.000000	1.195179
1964.000000	1.195135
1962.000000	1.195017
1960.000000	1.194924
1958.000000	1.194669
1956.000000	1.194621
1954.000000	1.194659
1952.000000	1.194652
1950.000000	1.194624
1948.000000	1.194539
1946.000000	1.194433
1944.000000	1.194310
1942.000000	1.194158
1940.000000	1.194245
1938.000000	1.194326
1936.000000	1.194297
1934.000000	1.194168
1932.000000	1.194078
1930.000000	1.194137
1928.000000	1.194136
1926.000000	1.194069
1924.000000	1.194088
1922.000000	1.194110
1920.000000	1.193951
1918.000000	1.193734
1916.000000	1.194015
1914.000000	1.194384
1912.000000	1.194466
1910.000000	1.194347
1908.000000	1.194288
1906.000000	1.194454
1904.000000	1.194614
1902.000000	1.194617
1900.000000	1.194606
1898.000000	1.194700
1896.000000	1.194735
1894.000000	1.194723
1892.000000	1.194901
1890.000000	1.194897
1888.000000	1.194976
1886.000000	1.195169
1884.000000	1.195268
1882.000000	1.195417
1880.000000	1.195456
1878.000000	1.195475
1876.000000	1.195518
1874.000000	1.195710
1872.000000	1.195864
1870.000000	1.195553
1868.000000	1.195357
1866.000000	1.195751
1864.000000	1.196228
1862.000000	1.196444
1860.000000	1.196504
1858.000000	1.196719
1856.000000	1.196908
1854.000000	1.197062
1852.000000	1.197226
1850.000000	1.197309
1848.000000	1.197480
1846.000000	1.197429
1844.000000	1.196973
1842.000000	1.197539
1840.000000	1.198275
1838.000000	1.198439
1836.000000	1.198707
1834.000000	1.199046
1832.000000	1.199099
1830.000000	1.198795
1828.000000	1.199099
1826.000000	1.199620
1824.000000	1.199896
1822.000000	1.200394
1820.000000	1.200798
1818.000000	1.201106
1816.000000	1.201392
1814.000000	1.201802
1812.000000	1.202038
1810.000000	1.202170
1808.000000	1.202548
1806.000000	1.203032
1804.000000	1.203409
1802.000000	1.203568
1800.000000	1.203726
1798.000000	1.204102
1796.000000	1.204680
1794.000000	1.204760
1792.000000	1.204490
1790.000000	1.205358
1788.000000	1.206408
1786.000000	1.206650
1784.000000	1.206820
1782.000000	1.207348
1780.000000	1.207787
1778.000000	1.208365
1776.000000	1.208971
1774.000000	1.208823
1772.000000	1.208332
1770.000000	1.209121
1768.000000	1.210038
1766.000000	1.210930
1764.000000	1.211632
1762.000000	1.211677
1760.000000	1.212261
1758.000000	1.212963
1756.000000	1.213379
1754.000000	1.214079
1752.000000	1.213970
1750.000000	1.213971
1748.000000	1.214905
1746.000000	1.215839
1744.000000	1.216428
1742.000000	1.216620
1740.000000	1.216496
1738.000000	1.217164
1736.000000	1.217360
1734.000000	1.215835
1732.000000	1.216738
1730.000000	1.218726
1728.000000	1.219640
1726.000000	1.220124
1724.000000	1.220392
1722.000000	1.220784
1720.000000	1.220573
1718.000000	1.219013
1716.000000	1.218784
1714.000000	1.220238
1712.000000	1.221222
1710.000000	1.221598
1708.000000	1.221631
1706.000000	1.221411
1704.000000	1.221473
1702.000000	1.220991
1700.000000	1.219290
1698.000000	1.219970
1696.000000	1.219797
1694.000000	1.220499
1692.000000	1.222408
1690.000000	1.222686
1688.000000	1.222815
1686.000000	1.221504
1684.000000	1.219459
1682.000000	1.221053
1680.000000	1.222879
1678.000000	1.223034
1676.000000	1.222248
1674.000000	1.222014
1672.000000	1.222546
1670.000000	1.222017
1668.000000	1.222237
1666.000000	1.223308
1664.000000	1.223317
1662.000000	1.222970
1660.000000	1.223531
1658.000000	1.223903
1656.000000	1.223442
1654.000000	1.220273
1652.000000	1.218740
1650.000000	1.221832
1648.000000	1.222662
1646.000000	1.221755
1644.000000	1.222558
1642.000000	1.223616
1640.000000	1.223821
1638.000000	1.223442
1636.000000	1.221809
1634.000000	1.221765
1632.000000	1.223324
1630.000000	1.223784
1628.000000	1.223588
1626.000000	1.223552
1624.000000	1.223198
1622.000000	1.223130
1620.000000	1.223594
1618.000000	1.222626
1616.000000	1.221744
1614.000000	1.223201
1612.000000	1.224141
1610.000000	1.223915
1608.000000	1.223653
1606.000000	1.223461
1604.000000	1.223321
1602.000000	1.223325
1600.000000	1.223421
1598.000000	1.223512
1596.000000	1.223478
1594.000000	1.223414
1592.000000	1.223508
1590.000000	1.223555
1588.000000	1.223582
1586.000000	1.223603
1584.000000	1.223718
1582.000000	1.223619
1580.000000	1.223593
1578.000000	1.222875
1576.000000	1.221179
1574.000000	1.221962
1572.000000	1.223291
1570.000000	1.222686
1568.000000	1.222623
1566.000000	1.223214
1564.000000	1.223581
1562.000000	1.223085
1560.000000	1.220093
1558.000000	1.218753
1556.000000	1.220915
1554.000000	1.222020
1552.000000	1.222743
1550.000000	1.223172
1548.000000	1.223231
1546.000000	1.222883
1544.000000	1.222193
1542.000000	1.221063
1540.000000	1.219401
1538.000000	1.220162
1536.000000	1.222467
1534.000000	1.222546
1532.000000	1.222716
1530.000000	1.223426
1528.000000	1.223291
1526.000000	1.222721
1524.000000	1.222425
1522.000000	1.221426
1520.000000	1.221292
1518.000000	1.222439
1516.000000	1.222953
1514.000000	1.223474
1512.000000	1.223321
1510.000000	1.222955
1508.000000	1.221451
1506.000000	1.220099
1504.000000	1.222187
1502.000000	1.224575
1500.000000	1.225037
1498.000000	1.224532
1496.000000	1.223318
1494.000000	1.222532
1492.000000	1.221848
1490.000000	1.221276
1488.000000	1.221622
1486.000000	1.222372
1484.000000	1.223040
1482.000000	1.223260
1480.000000	1.223233
1478.000000	1.223108
1476.000000	1.222824
1474.000000	1.222174
1472.000000	1.221715
1470.000000	1.222801
1468.000000	1.223597
1466.000000	1.223082
1464.000000	1.222702
1462.000000	1.223234
1460.000000	1.223218
1458.000000	1.221733
1456.000000	1.221075
1454.000000	1.222727
1452.000000	1.223207
1450.000000	1.222529
1448.000000	1.222082
1446.000000	1.222534
1444.000000	1.223014
1442.000000	1.223018
1440.000000	1.222910
1438.000000	1.221983
1436.000000	1.221110
1434.000000	1.221991
1432.000000	1.222478
1430.000000	1.222346
1428.000000	1.222363
1426.000000	1.222627
1424.000000	1.222597
1422.000000	1.222467
1420.000000	1.221409
1418.000000	1.220962
1416.000000	1.221907
1414.000000	1.222466
1412.000000	1.222484
1410.000000	1.222429
1408.000000	1.222437
1406.000000	1.222239
1404.000000	1.221883
1402.000000	1.221748
1400.000000	1.221289
1398.000000	1.220964
1396.000000	1.220876
1394.000000	1.220790
1392.000000	1.221264
1390.000000	1.221398
1388.000000	1.221001
1386.000000	1.220981
1384.000000	1.221186
1382.000000	1.221000
1380.000000	1.220956
1378.000000	1.220895
1376.000000	1.220646
1374.000000	1.220242
1372.000000	1.220354
1370.000000	1.220585
1368.000000	1.220452
1366.000000	1.220311
1364.000000	1.220013
1362.000000	1.219743
1360.000000	1.219910
1358.000000	1.220129
1356.000000	1.220149
1354.000000	1.220068
1352.000000	1.219986
1350.000000	1.219887
1348.000000	1.219850
1346.000000	1.219855
1344.000000	1.219885
1342.000000	1.219854
1340.000000	1.219548
1338.000000	1.219315
1336.000000	1.219285
1334.000000	1.219299
1332.000000	1.219470
1330.000000	1.219558
1328.000000	1.219340
1326.000000	1.219198
1324.000000	1.219310
1322.000000	1.219394
1320.000000	1.219372
1318.000000	1.219397
1316.000000	1.219392
1314.000000	1.219221
1312.000000	1.219280
1310.000000	1.219409
1308.000000	1.219361
1306.000000	1.219234
1304.000000	1.219207
1302.000000	1.219217
1300.000000	1.219230
1298.000000	1.219246
1296.000000	1.219233
1294.000000	1.219281
1292.000000	1.219383
1290.000000	1.219271
1288.000000	1.218944
1286.000000	1.218848
1284.000000	1.218945
1282.000000	1.218965
1280.000000	1.219015
1278.000000	1.219077
1276.000000	1.219045
1274.000000	1.219122
1272.000000	1.219404
1270.000000	1.219875
1268.000000	1.220554
1266.000000	1.221434
1264.000000	1.222322
1262.000000	1.222636
1260.000000	1.222141
1258.000000	1.221553
1256.000000	1.220871
1254.000000	1.220105
1252.000000	1.219527
1250.000000	1.219381
1248.000000	1.219381
1246.000000	1.219158
1244.000000	1.218932
1242.000000	1.218840
1240.000000	1.219005
1238.000000	1.219027
1236.000000	1.218836
1234.000000	1.218735
1232.000000	1.218610
1230.000000	1.218432
1228.000000	1.218158
1226.000000	1.218139
1224.000000	1.218083
1222.000000	1.217939
1220.000000	1.218085
1218.000000	1.218116
1216.000000	1.218051
1214.000000	1.218002
1212.000000	1.217890
1210.000000	1.217658
1208.000000	1.217415
1206.000000	1.217373
1204.000000	1.217449
1202.000000	1.217454
1200.000000	1.217662
1198.000000	1.217881
1196.000000	1.217863
1194.000000	1.217477
1192.000000	1.217253
1190.000000	1.217393
1188.000000	1.217525
1186.000000	1.217562
1184.000000	1.217898
1182.000000	1.217936
1180.000000	1.217569
1178.000000	1.217786
1176.000000	1.218288
1174.000000	1.218257
1172.000000	1.217834
1170.000000	1.217737
1168.000000	1.218114
1166.000000	1.218256
1164.000000	1.218281
1162.000000	1.218110
1160.000000	1.217814
1158.000000	1.217925
1156.000000	1.218198
1154.000000	1.218388
1152.000000	1.218386
1150.000000	1.218388
1148.000000	1.218474
1146.000000	1.218387
1144.000000	1.217933
1142.000000	1.217535
1140.000000	1.217474
1138.000000	1.217512
1136.000000	1.217717
1134.000000	1.217565
1132.000000	1.217565
1130.000000	1.217595
1128.000000	1.216977
1126.000000	1.217086
1124.000000	1.217422
1122.000000	1.217451
1120.000000	1.217429
1118.000000	1.217614
1116.000000	1.217971
1114.000000	1.217815
1112.000000	1.217669
1110.000000	1.217937
1108.000000	1.218110
1106.000000	1.217998
1104.000000	1.217943
1102.000000	1.218388
1100.000000	1.218914
1098.000000	1.218964
1096.000000	1.218428
1094.000000	1.218288
1092.000000	1.218318
1090.000000	1.218291
1088.000000	1.218548
1086.000000	1.218130
1084.000000	1.217493
1082.000000	1.217676
1080.000000	1.217549
1078.000000	1.217244
1076.000000	1.216965
1074.000000	1.216142
1072.000000	1.215565
1070.000000	1.215216
1068.000000	1.214732
1066.000000	1.214308
1064.000000	1.213795
1062.000000	1.212778
1060.000000	1.212032
1058.000000	1.211999
1056.000000	1.212167
1054.000000	1.211651
1052.000000	1.210520
1050.000000	1.209668
1048.000000	1.209209
1046.000000	1.208934
1044.000000	1.209042
1042.000000	1.208579
1040.000000	1.207536
1038.000000	1.206692
1036.000000	1.205937
1034.000000	1.205401
1032.000000	1.205592
1030.000000	1.205451
1028.000000	1.205298
1026.000000	1.204963
1024.000000	1.204514
1022.000000	1.204348
1020.000000	1.203986
1018.000000	1.203301
1016.000000	1.203160
1014.000000	1.203645
1012.000000	1.202950
1010.000000	1.202475
1008.000000	1.202817
1006.000000	1.202772
1004.000000	1.202150
1002.000000	1.201744
1000.000000	1.202144
