PE IR       SUBTECH     SPECTRUM    ASCII       PEDS        4.00        
   -1
TE109A_019_90K.ASC
20/04/21
12:38:42.00
20/04/21
12:38:42.00
Administrator
TE109A, Tuesday, April 21 2020, 019.
1000.000000
#HDR
-1
-1
#GR
cm-1
A
1.0
0.0
6000.000000
-2.000000
2501
8
1.234657
1.126572
#DATA
6000.000000	1.170111
5998.000000	1.170693
5996.000000	1.170669
5994.000000	1.170380
5992.000000	1.170008
5990.000000	1.170403
5988.000000	1.171099
5986.000000	1.171394
5984.000000	1.170834
5982.000000	1.169598
5980.000000	1.168963
5978.000000	1.168836
5976.000000	1.168527
5974.000000	1.168192
5972.000000	1.168417
5970.000000	1.169487
5968.000000	1.170568
5966.000000	1.170504
5964.000000	1.170590
5962.000000	1.170318
5960.000000	1.169871
5958.000000	1.169224
5956.000000	1.168887
5954.000000	1.169001
5952.000000	1.168851
5950.000000	1.168654
5948.000000	1.168985
5946.000000	1.169374
5944.000000	1.168949
5942.000000	1.168509
5940.000000	1.168138
5938.000000	1.168361
5936.000000	1.168722
5934.000000	1.169351
5932.000000	1.170109
5930.000000	1.170125
5928.000000	1.169440
5926.000000	1.168943
5924.000000	1.169018
5922.000000	1.169072
5920.000000	1.169060
5918.000000	1.169212
5916.000000	1.169550
5914.000000	1.169457
5912.000000	1.169018
5910.000000	1.168755
5908.000000	1.168852
5906.000000	1.168646
5904.000000	1.168728
5902.000000	1.169257
5900.000000	1.169828
5898.000000	1.169603
5896.000000	1.168980
5894.000000	1.168897
5892.000000	1.168566
5890.000000	1.168256
5888.000000	1.167336
5886.000000	1.166716
5884.000000	1.167136
5882.000000	1.167850
5880.000000	1.168109
5878.000000	1.167981
5876.000000	1.167534
5874.000000	1.167623
5872.000000	1.168189
5870.000000	1.168759
5868.000000	1.168618
5866.000000	1.168532
5864.000000	1.167712
5862.000000	1.167792
5860.000000	1.168037
5858.000000	1.167957
5856.000000	1.168233
5854.000000	1.168472
5852.000000	1.168847
5850.000000	1.168807
5848.000000	1.167876
5846.000000	1.166981
5844.000000	1.166665
5842.000000	1.166605
5840.000000	1.166790
5838.000000	1.166645
5836.000000	1.166361
5834.000000	1.166525
5832.000000	1.167444
5830.000000	1.168075
5828.000000	1.167950
5826.000000	1.167189
5824.000000	1.166797
5822.000000	1.166957
5820.000000	1.167129
5818.000000	1.167214
5816.000000	1.167277
5814.000000	1.167646
5812.000000	1.168015
5810.000000	1.168240
5808.000000	1.167404
5806.000000	1.167015
5804.000000	1.167630
5802.000000	1.168650
5800.000000	1.169181
5798.000000	1.168655
5796.000000	1.168368
5794.000000	1.168557
5792.000000	1.168172
5790.000000	1.167804
5788.000000	1.167460
5786.000000	1.167637
5784.000000	1.168166
5782.000000	1.168328
5780.000000	1.168354
5778.000000	1.168187
5776.000000	1.167998
5774.000000	1.168168
5772.000000	1.167765
5770.000000	1.167478
5768.000000	1.167281
5766.000000	1.167445
5764.000000	1.167726
5762.000000	1.167406
5760.000000	1.166769
5758.000000	1.166185
5756.000000	1.165943
5754.000000	1.166009
5752.000000	1.165843
5750.000000	1.165999
5748.000000	1.166821
5746.000000	1.167184
5744.000000	1.166885
5742.000000	1.166471
5740.000000	1.166415
5738.000000	1.166449
5736.000000	1.166336
5734.000000	1.166394
5732.000000	1.166566
5730.000000	1.166887
5728.000000	1.167481
5726.000000	1.168211
5724.000000	1.167850
5722.000000	1.166658
5720.000000	1.165721
5718.000000	1.165867
5716.000000	1.166330
5714.000000	1.166455
5712.000000	1.166901
5710.000000	1.167777
5708.000000	1.168022
5706.000000	1.167231
5704.000000	1.166317
5702.000000	1.166264
5700.000000	1.166738
5698.000000	1.167109
5696.000000	1.166905
5694.000000	1.166697
5692.000000	1.166548
5690.000000	1.166662
5688.000000	1.166360
5686.000000	1.165765
5684.000000	1.165729
5682.000000	1.166353
5680.000000	1.166717
5678.000000	1.166600
5676.000000	1.166253
5674.000000	1.166036
5672.000000	1.165851
5670.000000	1.165784
5668.000000	1.166110
5666.000000	1.166944
5664.000000	1.167258
5662.000000	1.167217
5660.000000	1.167058
5658.000000	1.167028
5656.000000	1.166696
5654.000000	1.166213
5652.000000	1.165780
5650.000000	1.165673
5648.000000	1.165675
5646.000000	1.166042
5644.000000	1.166821
5642.000000	1.166708
5640.000000	1.165855
5638.000000	1.165300
5636.000000	1.165563
5634.000000	1.166416
5632.000000	1.166534
5630.000000	1.166262
5628.000000	1.165958
5626.000000	1.165838
5624.000000	1.166101
5622.000000	1.166277
5620.000000	1.166444
5618.000000	1.166486
5616.000000	1.166336
5614.000000	1.166221
5612.000000	1.166162
5610.000000	1.166206
5608.000000	1.166038
5606.000000	1.165700
5604.000000	1.165500
5602.000000	1.165498
5600.000000	1.165789
5598.000000	1.166377
5596.000000	1.166932
5594.000000	1.166828
5592.000000	1.166173
5590.000000	1.165679
5588.000000	1.165663
5586.000000	1.165871
5584.000000	1.165923
5582.000000	1.165851
5580.000000	1.165775
5578.000000	1.165607
5576.000000	1.165670
5574.000000	1.165898
5572.000000	1.166021
5570.000000	1.165716
5568.000000	1.165132
5566.000000	1.164820
5564.000000	1.164823
5562.000000	1.164809
5560.000000	1.165115
5558.000000	1.165453
5556.000000	1.165539
5554.000000	1.165286
5552.000000	1.165044
5550.000000	1.164966
5548.000000	1.164936
5546.000000	1.164826
5544.000000	1.165118
5542.000000	1.165416
5540.000000	1.165328
5538.000000	1.165322
5536.000000	1.165406
5534.000000	1.165680
5532.000000	1.165527
5530.000000	1.165112
5528.000000	1.164951
5526.000000	1.165365
5524.000000	1.165883
5522.000000	1.165727
5520.000000	1.164767
5518.000000	1.163842
5516.000000	1.163547
5514.000000	1.163966
5512.000000	1.164782
5510.000000	1.165312
5508.000000	1.165516
5506.000000	1.165331
5504.000000	1.165193
5502.000000	1.164801
5500.000000	1.164501
5498.000000	1.164616
5496.000000	1.165043
5494.000000	1.165374
5492.000000	1.165142
5490.000000	1.164725
5488.000000	1.164422
5486.000000	1.164325
5484.000000	1.164339
5482.000000	1.164569
5480.000000	1.164810
5478.000000	1.164564
5476.000000	1.164065
5474.000000	1.164120
5472.000000	1.164491
5470.000000	1.164634
5468.000000	1.164517
5466.000000	1.164710
5464.000000	1.164869
5462.000000	1.164402
5460.000000	1.163667
5458.000000	1.163442
5456.000000	1.163837
5454.000000	1.164070
5452.000000	1.163882
5450.000000	1.163892
5448.000000	1.164101
5446.000000	1.163734
5444.000000	1.163132
5442.000000	1.162999
5440.000000	1.163512
5438.000000	1.163657
5436.000000	1.163384
5434.000000	1.163266
5432.000000	1.163221
5430.000000	1.163059
5428.000000	1.162724
5426.000000	1.162800
5424.000000	1.163310
5422.000000	1.163548
5420.000000	1.163282
5418.000000	1.162962
5416.000000	1.162929
5414.000000	1.163102
5412.000000	1.163111
5410.000000	1.163122
5408.000000	1.163268
5406.000000	1.163351
5404.000000	1.163329
5402.000000	1.163091
5400.000000	1.163040
5398.000000	1.162965
5396.000000	1.162834
5394.000000	1.162923
5392.000000	1.163352
5390.000000	1.163655
5388.000000	1.163246
5386.000000	1.162587
5384.000000	1.162455
5382.000000	1.162640
5380.000000	1.162636
5378.000000	1.162445
5376.000000	1.162380
5374.000000	1.162577
5372.000000	1.163114
5370.000000	1.163484
5368.000000	1.163298
5366.000000	1.162886
5364.000000	1.162913
5362.000000	1.163550
5360.000000	1.163717
5358.000000	1.163465
5356.000000	1.163054
5354.000000	1.162994
5352.000000	1.163340
5350.000000	1.163331
5348.000000	1.162918
5346.000000	1.162564
5344.000000	1.162877
5342.000000	1.163651
5340.000000	1.163820
5338.000000	1.163457
5336.000000	1.162942
5334.000000	1.162810
5332.000000	1.163096
5330.000000	1.163503
5328.000000	1.164084
5326.000000	1.164404
5324.000000	1.164255
5322.000000	1.163704
5320.000000	1.163509
5318.000000	1.163717
5316.000000	1.163864
5314.000000	1.163680
5312.000000	1.163672
5310.000000	1.163869
5308.000000	1.164030
5306.000000	1.164323
5304.000000	1.164811
5302.000000	1.164913
5300.000000	1.164667
5298.000000	1.164644
5296.000000	1.165102
5294.000000	1.165664
5292.000000	1.165844
5290.000000	1.165936
5288.000000	1.166071
5286.000000	1.165964
5284.000000	1.165714
5282.000000	1.165595
5280.000000	1.165983
5278.000000	1.166548
5276.000000	1.167031
5274.000000	1.167186
5272.000000	1.166916
5270.000000	1.166824
5268.000000	1.167324
5266.000000	1.167736
5264.000000	1.167727
5262.000000	1.167674
5260.000000	1.167832
5258.000000	1.167938
5256.000000	1.168036
5254.000000	1.168205
5252.000000	1.168416
5250.000000	1.168802
5248.000000	1.169461
5246.000000	1.169993
5244.000000	1.170103
5242.000000	1.170251
5240.000000	1.170687
5238.000000	1.171278
5236.000000	1.171743
5234.000000	1.171877
5232.000000	1.171958
5230.000000	1.172331
5228.000000	1.172521
5226.000000	1.172540
5224.000000	1.172889
5222.000000	1.173909
5220.000000	1.174842
5218.000000	1.175598
5216.000000	1.176094
5214.000000	1.176168
5212.000000	1.176298
5210.000000	1.176743
5208.000000	1.177181
5206.000000	1.177427
5204.000000	1.178053
5202.000000	1.178678
5200.000000	1.178952
5198.000000	1.178995
5196.000000	1.179165
5194.000000	1.179356
5192.000000	1.179673
5190.000000	1.180102
5188.000000	1.180617
5186.000000	1.181192
5184.000000	1.182032
5182.000000	1.182727
5180.000000	1.182937
5178.000000	1.183228
5176.000000	1.184001
5174.000000	1.184454
5172.000000	1.184558
5170.000000	1.184730
5168.000000	1.185297
5166.000000	1.185485
5164.000000	1.185464
5162.000000	1.185785
5160.000000	1.186534
5158.000000	1.187277
5156.000000	1.187530
5154.000000	1.187654
5152.000000	1.188031
5150.000000	1.188315
5148.000000	1.188321
5146.000000	1.188235
5144.000000	1.188546
5142.000000	1.188816
5140.000000	1.188971
5138.000000	1.189047
5136.000000	1.189374
5134.000000	1.189790
5132.000000	1.190261
5130.000000	1.190470
5128.000000	1.190502
5126.000000	1.190609
5124.000000	1.191017
5122.000000	1.191531
5120.000000	1.191837
5118.000000	1.191971
5116.000000	1.191789
5114.000000	1.191640
5112.000000	1.191593
5110.000000	1.191828
5108.000000	1.192182
5106.000000	1.192392
5104.000000	1.192456
5102.000000	1.192589
5100.000000	1.192597
5098.000000	1.192397
5096.000000	1.192199
5094.000000	1.192080
5092.000000	1.191771
5090.000000	1.191862
5088.000000	1.192489
5086.000000	1.192778
5084.000000	1.192266
5082.000000	1.191903
5080.000000	1.191975
5078.000000	1.192147
5076.000000	1.192220
5074.000000	1.192277
5072.000000	1.192018
5070.000000	1.191726
5068.000000	1.191752
5066.000000	1.192076
5064.000000	1.192335
5062.000000	1.192247
5060.000000	1.192151
5058.000000	1.192196
5056.000000	1.192133
5054.000000	1.192027
5052.000000	1.192065
5050.000000	1.192258
5048.000000	1.192089
5046.000000	1.192020
5044.000000	1.192114
5042.000000	1.191859
5040.000000	1.191606
5038.000000	1.191804
5036.000000	1.192309
5034.000000	1.192410
5032.000000	1.191935
5030.000000	1.191492
5028.000000	1.191399
5026.000000	1.191396
5024.000000	1.191120
5022.000000	1.191077
5020.000000	1.191424
5018.000000	1.191468
5016.000000	1.191027
5014.000000	1.190836
5012.000000	1.190915
5010.000000	1.190757
5008.000000	1.190456
5006.000000	1.190392
5004.000000	1.190474
5002.000000	1.190436
5000.000000	1.190443
4998.000000	1.190428
4996.000000	1.190248
4994.000000	1.189954
4992.000000	1.189622
4990.000000	1.189397
4988.000000	1.189483
4986.000000	1.189703
4984.000000	1.189809
4982.000000	1.189701
4980.000000	1.189419
4978.000000	1.189194
4976.000000	1.189060
4974.000000	1.188902
4972.000000	1.188734
4970.000000	1.188703
4968.000000	1.188786
4966.000000	1.188781
4964.000000	1.188384
4962.000000	1.187921
4960.000000	1.187770
4958.000000	1.187782
4956.000000	1.187529
4954.000000	1.187061
4952.000000	1.186840
4950.000000	1.186987
4948.000000	1.187276
4946.000000	1.187156
4944.000000	1.186751
4942.000000	1.186487
4940.000000	1.186360
4938.000000	1.186179
4936.000000	1.185958
4934.000000	1.185754
4932.000000	1.185475
4930.000000	1.185210
4928.000000	1.185230
4926.000000	1.185368
4924.000000	1.185262
4922.000000	1.184931
4920.000000	1.184843
4918.000000	1.184852
4916.000000	1.184597
4914.000000	1.184221
4912.000000	1.184125
4910.000000	1.184175
4908.000000	1.184033
4906.000000	1.183870
4904.000000	1.183660
4902.000000	1.183348
4900.000000	1.182971
4898.000000	1.182706
4896.000000	1.182318
4894.000000	1.181971
4892.000000	1.181751
4890.000000	1.181581
4888.000000	1.181341
4886.000000	1.181142
4884.000000	1.180946
4882.000000	1.180466
4880.000000	1.180146
4878.000000	1.180277
4876.000000	1.180248
4874.000000	1.179518
4872.000000	1.178714
4870.000000	1.178583
4868.000000	1.178747
4866.000000	1.178591
4864.000000	1.178341
4862.000000	1.178365
4860.000000	1.178623
4858.000000	1.178606
4856.000000	1.178304
4854.000000	1.178011
4852.000000	1.177789
4850.000000	1.177733
4848.000000	1.177602
4846.000000	1.177242
4844.000000	1.176457
4842.000000	1.175850
4840.000000	1.175703
4838.000000	1.175676
4836.000000	1.175266
4834.000000	1.174881
4832.000000	1.174814
4830.000000	1.174615
4828.000000	1.174124
4826.000000	1.173899
4824.000000	1.173694
4822.000000	1.173123
4820.000000	1.172621
4818.000000	1.172721
4816.000000	1.172918
4814.000000	1.172851
4812.000000	1.172507
4810.000000	1.172032
4808.000000	1.171566
4806.000000	1.171290
4804.000000	1.171058
4802.000000	1.170902
4800.000000	1.170863
4798.000000	1.170816
4796.000000	1.170558
4794.000000	1.170345
4792.000000	1.170159
4790.000000	1.169793
4788.000000	1.169342
4786.000000	1.169007
4784.000000	1.168838
4782.000000	1.168651
4780.000000	1.168400
4778.000000	1.168034
4776.000000	1.167574
4774.000000	1.167226
4772.000000	1.167220
4770.000000	1.167219
4768.000000	1.166762
4766.000000	1.166151
4764.000000	1.165925
4762.000000	1.165902
4760.000000	1.165626
4758.000000	1.165219
4756.000000	1.165091
4754.000000	1.165015
4752.000000	1.164773
4750.000000	1.164443
4748.000000	1.164174
4746.000000	1.163999
4744.000000	1.163929
4742.000000	1.163753
4740.000000	1.163244
4738.000000	1.162705
4736.000000	1.162617
4734.000000	1.162794
4732.000000	1.162717
4730.000000	1.162485
4728.000000	1.162375
4726.000000	1.162217
4724.000000	1.161874
4722.000000	1.161500
4720.000000	1.161202
4718.000000	1.161133
4716.000000	1.161134
4714.000000	1.160873
4712.000000	1.160410
4710.000000	1.160121
4708.000000	1.160076
4706.000000	1.159920
4704.000000	1.159544
4702.000000	1.159289
4700.000000	1.159270
4698.000000	1.158996
4696.000000	1.158454
4694.000000	1.158239
4692.000000	1.158321
4690.000000	1.158142
4688.000000	1.157673
4686.000000	1.157367
4684.000000	1.157367
4682.000000	1.157440
4680.000000	1.157327
4678.000000	1.156991
4676.000000	1.156534
4674.000000	1.156198
4672.000000	1.156124
4670.000000	1.156179
4668.000000	1.156172
4666.000000	1.156074
4664.000000	1.155967
4662.000000	1.155879
4660.000000	1.155698
4658.000000	1.155493
4656.000000	1.155377
4654.000000	1.155234
4652.000000	1.154921
4650.000000	1.154758
4648.000000	1.154923
4646.000000	1.155087
4644.000000	1.155029
4642.000000	1.154670
4640.000000	1.154088
4638.000000	1.153724
4636.000000	1.153724
4634.000000	1.153631
4632.000000	1.153443
4630.000000	1.153382
4628.000000	1.153215
4626.000000	1.153033
4624.000000	1.152973
4622.000000	1.152942
4620.000000	1.152828
4618.000000	1.152702
4616.000000	1.152473
4614.000000	1.152324
4612.000000	1.152361
4610.000000	1.152490
4608.000000	1.152407
4606.000000	1.152065
4604.000000	1.151888
4602.000000	1.152083
4600.000000	1.152120
4598.000000	1.151696
4596.000000	1.151330
4594.000000	1.151438
4592.000000	1.151495
4590.000000	1.151199
4588.000000	1.150871
4586.000000	1.150685
4584.000000	1.150516
4582.000000	1.150513
4580.000000	1.150647
4578.000000	1.150590
4576.000000	1.150284
4574.000000	1.149947
4572.000000	1.149794
4570.000000	1.149828
4568.000000	1.149911
4566.000000	1.149814
4564.000000	1.149628
4562.000000	1.149534
4560.000000	1.149399
4558.000000	1.149203
4556.000000	1.149048
4554.000000	1.149045
4552.000000	1.149170
4550.000000	1.149261
4548.000000	1.149202
4546.000000	1.149375
4544.000000	1.149635
4542.000000	1.149401
4540.000000	1.148827
4538.000000	1.148631
4536.000000	1.148715
4534.000000	1.148584
4532.000000	1.148410
4530.000000	1.148372
4528.000000	1.148292
4526.000000	1.148169
4524.000000	1.148131
4522.000000	1.148109
4520.000000	1.148009
4518.000000	1.147801
4516.000000	1.147650
4514.000000	1.147659
4512.000000	1.147676
4510.000000	1.147644
4508.000000	1.147328
4506.000000	1.146898
4504.000000	1.146706
4502.000000	1.146609
4500.000000	1.146486
4498.000000	1.146513
4496.000000	1.146599
4494.000000	1.146800
4492.000000	1.146907
4490.000000	1.146655
4488.000000	1.146422
4486.000000	1.146385
4484.000000	1.146282
4482.000000	1.146218
4480.000000	1.146218
4478.000000	1.146069
4476.000000	1.145900
4474.000000	1.145911
4472.000000	1.146046
4470.000000	1.146083
4468.000000	1.146044
4466.000000	1.146071
4464.000000	1.146107
4462.000000	1.145911
4460.000000	1.145653
4458.000000	1.145677
4456.000000	1.145739
4454.000000	1.145541
4452.000000	1.145442
4450.000000	1.145444
4448.000000	1.145211
4446.000000	1.145062
4444.000000	1.145170
4442.000000	1.145199
4440.000000	1.145167
4438.000000	1.145187
4436.000000	1.145047
4434.000000	1.144845
4432.000000	1.144833
4430.000000	1.144955
4428.000000	1.145029
4426.000000	1.144980
4424.000000	1.144863
4422.000000	1.144900
4420.000000	1.144965
4418.000000	1.144819
4416.000000	1.144646
4414.000000	1.144714
4412.000000	1.144863
4410.000000	1.144876
4408.000000	1.144886
4406.000000	1.145044
4404.000000	1.145111
4402.000000	1.144941
4400.000000	1.144715
4398.000000	1.144656
4396.000000	1.144779
4394.000000	1.144910
4392.000000	1.144934
4390.000000	1.144850
4388.000000	1.144674
4386.000000	1.144535
4384.000000	1.144600
4382.000000	1.144737
4380.000000	1.144716
4378.000000	1.144607
4376.000000	1.144488
4374.000000	1.144461
4372.000000	1.144674
4370.000000	1.144828
4368.000000	1.144820
4366.000000	1.144959
4364.000000	1.145117
4362.000000	1.145028
4360.000000	1.145027
4358.000000	1.145239
4356.000000	1.145336
4354.000000	1.145321
4352.000000	1.145466
4350.000000	1.145655
4348.000000	1.145672
4346.000000	1.145733
4344.000000	1.145863
4342.000000	1.145856
4340.000000	1.145754
4338.000000	1.145742
4336.000000	1.145839
4334.000000	1.145982
4332.000000	1.145897
4330.000000	1.145684
4328.000000	1.145654
4326.000000	1.145727
4324.000000	1.145769
4322.000000	1.145791
4320.000000	1.145885
4318.000000	1.146174
4316.000000	1.146394
4314.000000	1.146425
4312.000000	1.146506
4310.000000	1.146560
4308.000000	1.146519
4306.000000	1.146608
4304.000000	1.146736
4302.000000	1.146664
4300.000000	1.146512
4298.000000	1.146597
4296.000000	1.146941
4294.000000	1.147161
4292.000000	1.147208
4290.000000	1.147337
4288.000000	1.147441
4286.000000	1.147451
4284.000000	1.147543
4282.000000	1.147623
4280.000000	1.147617
4278.000000	1.147562
4276.000000	1.147484
4274.000000	1.147430
4272.000000	1.147421
4270.000000	1.147482
4268.000000	1.147579
4266.000000	1.147619
4264.000000	1.147815
4262.000000	1.148183
4260.000000	1.148410
4258.000000	1.148382
4256.000000	1.148329
4254.000000	1.148371
4252.000000	1.148459
4250.000000	1.148398
4248.000000	1.148179
4246.000000	1.148192
4244.000000	1.148592
4242.000000	1.148828
4240.000000	1.148725
4238.000000	1.148749
4236.000000	1.149048
4234.000000	1.149332
4232.000000	1.149402
4230.000000	1.149261
4228.000000	1.149116
4226.000000	1.149130
4224.000000	1.149312
4222.000000	1.149405
4220.000000	1.149305
4218.000000	1.149286
4216.000000	1.149356
4214.000000	1.149369
4212.000000	1.149302
4210.000000	1.149118
4208.000000	1.149021
4206.000000	1.149051
4204.000000	1.148989
4202.000000	1.148917
4200.000000	1.148877
4198.000000	1.148871
4196.000000	1.148972
4194.000000	1.149053
4192.000000	1.148989
4190.000000	1.148895
4188.000000	1.148881
4186.000000	1.148924
4184.000000	1.149010
4182.000000	1.149162
4180.000000	1.149299
4178.000000	1.149330
4176.000000	1.149264
4174.000000	1.149328
4172.000000	1.149439
4170.000000	1.149386
4168.000000	1.149520
4166.000000	1.149912
4164.000000	1.150095
4162.000000	1.150040
4160.000000	1.149840
4158.000000	1.149597
4156.000000	1.149527
4154.000000	1.149648
4152.000000	1.149808
4150.000000	1.149971
4148.000000	1.149996
4146.000000	1.149618
4144.000000	1.149076
4142.000000	1.148937
4140.000000	1.149096
4138.000000	1.149179
4136.000000	1.149277
4134.000000	1.149422
4132.000000	1.149390
4130.000000	1.149126
4128.000000	1.148924
4126.000000	1.149087
4124.000000	1.149358
4122.000000	1.149364
4120.000000	1.149251
4118.000000	1.149213
4116.000000	1.149237
4114.000000	1.149359
4112.000000	1.149529
4110.000000	1.149623
4108.000000	1.149567
4106.000000	1.149490
4104.000000	1.149545
4102.000000	1.149545
4100.000000	1.149467
4098.000000	1.149532
4096.000000	1.149571
4094.000000	1.149494
4092.000000	1.149453
4090.000000	1.149503
4088.000000	1.149547
4086.000000	1.149594
4084.000000	1.149647
4082.000000	1.149608
4080.000000	1.149572
4078.000000	1.149639
4076.000000	1.149727
4074.000000	1.149707
4072.000000	1.149524
4070.000000	1.149408
4068.000000	1.149377
4066.000000	1.149265
4064.000000	1.149192
4062.000000	1.149294
4060.000000	1.149368
4058.000000	1.149336
4056.000000	1.149366
4054.000000	1.149432
4052.000000	1.149465
4050.000000	1.149618
4048.000000	1.149808
4046.000000	1.149829
4044.000000	1.149741
4042.000000	1.149774
4040.000000	1.149912
4038.000000	1.149929
4036.000000	1.149816
4034.000000	1.149770
4032.000000	1.149765
4030.000000	1.149824
4028.000000	1.150082
4026.000000	1.150300
4024.000000	1.150290
4022.000000	1.150259
4020.000000	1.150165
4018.000000	1.149948
4016.000000	1.149806
4014.000000	1.149678
4012.000000	1.149555
4010.000000	1.149524
4008.000000	1.149393
4006.000000	1.149288
4004.000000	1.149415
4002.000000	1.149456
4000.000000	1.149261
3998.000000	1.149119
3996.000000	1.149138
3994.000000	1.149202
3992.000000	1.149207
3990.000000	1.149149
3988.000000	1.149017
3986.000000	1.148809
3984.000000	1.148680
3982.000000	1.148671
3980.000000	1.148590
3978.000000	1.148429
3976.000000	1.148310
3974.000000	1.148218
3972.000000	1.148123
3970.000000	1.148094
3968.000000	1.148149
3966.000000	1.148091
3964.000000	1.147675
3962.000000	1.147217
3960.000000	1.147069
3958.000000	1.147012
3956.000000	1.146834
3954.000000	1.146624
3952.000000	1.146415
3950.000000	1.146084
3948.000000	1.145696
3946.000000	1.145394
3944.000000	1.145015
3942.000000	1.144637
3940.000000	1.144495
3938.000000	1.144361
3936.000000	1.144091
3934.000000	1.143685
3932.000000	1.143154
3930.000000	1.142871
3928.000000	1.142864
3926.000000	1.142663
3924.000000	1.142295
3922.000000	1.142095
3920.000000	1.141841
3918.000000	1.141322
3916.000000	1.140812
3914.000000	1.140515
3912.000000	1.140210
3910.000000	1.139858
3908.000000	1.139696
3906.000000	1.139416
3904.000000	1.138710
3902.000000	1.138018
3900.000000	1.137658
3898.000000	1.137582
3896.000000	1.137632
3894.000000	1.137416
3892.000000	1.136629
3890.000000	1.136210
3888.000000	1.136212
3886.000000	1.135444
3884.000000	1.134938
3882.000000	1.135013
3880.000000	1.134607
3878.000000	1.134483
3876.000000	1.134534
3874.000000	1.134364
3872.000000	1.133938
3870.000000	1.132929
3868.000000	1.132593
3866.000000	1.132797
3864.000000	1.132446
3862.000000	1.132193
3860.000000	1.132334
3858.000000	1.132924
3856.000000	1.132623
3854.000000	1.130291
3852.000000	1.128992
3850.000000	1.129968
3848.000000	1.130967
3846.000000	1.131236
3844.000000	1.130947
3842.000000	1.130668
3840.000000	1.130230
3838.000000	1.129011
3836.000000	1.128483
3834.000000	1.129003
3832.000000	1.129230
3830.000000	1.129320
3828.000000	1.129433
3826.000000	1.129416
3824.000000	1.129376
3822.000000	1.128679
3820.000000	1.128286
3818.000000	1.128362
3816.000000	1.127529
3814.000000	1.127335
3812.000000	1.128184
3810.000000	1.128583
3808.000000	1.127982
3806.000000	1.127593
3804.000000	1.128088
3802.000000	1.127568
3800.000000	1.127074
3798.000000	1.127625
3796.000000	1.127908
3794.000000	1.128089
3792.000000	1.128197
3790.000000	1.128199
3788.000000	1.128302
3786.000000	1.128168
3784.000000	1.128011
3782.000000	1.128099
3780.000000	1.127920
3778.000000	1.127675
3776.000000	1.127948
3774.000000	1.128449
3772.000000	1.128599
3770.000000	1.128167
3768.000000	1.127915
3766.000000	1.128044
3764.000000	1.128201
3762.000000	1.128185
3760.000000	1.127839
3758.000000	1.127834
3756.000000	1.128548
3754.000000	1.128734
3752.000000	1.127614
3750.000000	1.126664
3748.000000	1.127392
3746.000000	1.127652
3744.000000	1.126572
3742.000000	1.127192
3740.000000	1.128617
3738.000000	1.128795
3736.000000	1.128385
3734.000000	1.128247
3732.000000	1.128451
3730.000000	1.129147
3728.000000	1.129827
3726.000000	1.129862
3724.000000	1.129927
3722.000000	1.130217
3720.000000	1.130568
3718.000000	1.131093
3716.000000	1.131932
3714.000000	1.132402
3712.000000	1.132196
3710.000000	1.132585
3708.000000	1.133719
3706.000000	1.134677
3704.000000	1.135306
3702.000000	1.135674
3700.000000	1.136230
3698.000000	1.137212
3696.000000	1.138341
3694.000000	1.139525
3692.000000	1.140661
3690.000000	1.141111
3688.000000	1.141395
3686.000000	1.143166
3684.000000	1.145492
3682.000000	1.147260
3680.000000	1.149050
3678.000000	1.150599
3676.000000	1.151243
3674.000000	1.152939
3672.000000	1.155478
3670.000000	1.156827
3668.000000	1.158737
3666.000000	1.161478
3664.000000	1.163840
3662.000000	1.165963
3660.000000	1.168313
3658.000000	1.170463
3656.000000	1.172109
3654.000000	1.174429
3652.000000	1.176650
3650.000000	1.177464
3648.000000	1.178444
3646.000000	1.180664
3644.000000	1.183172
3642.000000	1.185137
3640.000000	1.186573
3638.000000	1.187799
3636.000000	1.189103
3634.000000	1.190680
3632.000000	1.192457
3630.000000	1.193039
3628.000000	1.193284
3626.000000	1.195146
3624.000000	1.197257
3622.000000	1.198585
3620.000000	1.199197
3618.000000	1.199787
3616.000000	1.200906
3614.000000	1.201921
3612.000000	1.202855
3610.000000	1.203516
3608.000000	1.203868
3606.000000	1.204803
3604.000000	1.205931
3602.000000	1.206756
3600.000000	1.207516
3598.000000	1.208328
3596.000000	1.209077
3594.000000	1.209664
3592.000000	1.210446
3590.000000	1.210990
3588.000000	1.210759
3586.000000	1.210770
3584.000000	1.211500
3582.000000	1.212220
3580.000000	1.212546
3578.000000	1.212837
3576.000000	1.213272
3574.000000	1.213548
3572.000000	1.213912
3570.000000	1.214351
3568.000000	1.214263
3566.000000	1.214297
3564.000000	1.215022
3562.000000	1.215637
3560.000000	1.215879
3558.000000	1.216223
3556.000000	1.216606
3554.000000	1.216518
3552.000000	1.216255
3550.000000	1.216401
3548.000000	1.216685
3546.000000	1.216806
3544.000000	1.217038
3542.000000	1.217674
3540.000000	1.218308
3538.000000	1.218589
3536.000000	1.218786
3534.000000	1.219245
3532.000000	1.219571
3530.000000	1.219455
3528.000000	1.219261
3526.000000	1.219214
3524.000000	1.219147
3522.000000	1.219005
3520.000000	1.219148
3518.000000	1.219615
3516.000000	1.220048
3514.000000	1.220385
3512.000000	1.220707
3510.000000	1.220966
3508.000000	1.221364
3506.000000	1.221724
3504.000000	1.221722
3502.000000	1.221703
3500.000000	1.221951
3498.000000	1.222152
3496.000000	1.222008
3494.000000	1.221865
3492.000000	1.222101
3490.000000	1.222522
3488.000000	1.222842
3486.000000	1.223146
3484.000000	1.223517
3482.000000	1.223684
3480.000000	1.223744
3478.000000	1.223943
3476.000000	1.224188
3474.000000	1.224364
3472.000000	1.224524
3470.000000	1.224561
3468.000000	1.224553
3466.000000	1.224546
3464.000000	1.224529
3462.000000	1.224829
3460.000000	1.225253
3458.000000	1.225514
3456.000000	1.225772
3454.000000	1.225992
3452.000000	1.226196
3450.000000	1.226366
3448.000000	1.226380
3446.000000	1.226356
3444.000000	1.226468
3442.000000	1.226751
3440.000000	1.226981
3438.000000	1.227083
3436.000000	1.227003
3434.000000	1.227061
3432.000000	1.227324
3430.000000	1.227436
3428.000000	1.227619
3426.000000	1.227897
3424.000000	1.228285
3422.000000	1.228657
3420.000000	1.228729
3418.000000	1.228872
3416.000000	1.229175
3414.000000	1.229325
3412.000000	1.229401
3410.000000	1.229463
3408.000000	1.229381
3406.000000	1.229358
3404.000000	1.229579
3402.000000	1.229747
3400.000000	1.229811
3398.000000	1.229901
3396.000000	1.229995
3394.000000	1.230077
3392.000000	1.230215
3390.000000	1.230388
3388.000000	1.230498
3386.000000	1.230404
3384.000000	1.230305
3382.000000	1.230316
3380.000000	1.230211
3378.000000	1.230207
3376.000000	1.230327
3374.000000	1.230313
3372.000000	1.230129
3370.000000	1.230104
3368.000000	1.230363
3366.000000	1.230643
3364.000000	1.230792
3362.000000	1.230844
3360.000000	1.231117
3358.000000	1.231461
3356.000000	1.231391
3354.000000	1.231184
3352.000000	1.231123
3350.000000	1.230928
3348.000000	1.230677
3346.000000	1.230708
3344.000000	1.230974
3342.000000	1.231292
3340.000000	1.231460
3338.000000	1.231543
3336.000000	1.231582
3334.000000	1.231506
3332.000000	1.231519
3330.000000	1.231714
3328.000000	1.231860
3326.000000	1.231768
3324.000000	1.231553
3322.000000	1.231432
3320.000000	1.231336
3318.000000	1.231378
3316.000000	1.231524
3314.000000	1.231543
3312.000000	1.231615
3310.000000	1.231800
3308.000000	1.232015
3306.000000	1.232315
3304.000000	1.232422
3302.000000	1.232398
3300.000000	1.232319
3298.000000	1.232362
3296.000000	1.232448
3294.000000	1.232214
3292.000000	1.232048
3290.000000	1.232287
3288.000000	1.232478
3286.000000	1.232413
3284.000000	1.232455
3282.000000	1.232813
3280.000000	1.233147
3278.000000	1.233264
3276.000000	1.233341
3274.000000	1.233452
3272.000000	1.233528
3270.000000	1.233394
3268.000000	1.233340
3266.000000	1.233409
3264.000000	1.233336
3262.000000	1.233306
3260.000000	1.233352
3258.000000	1.233333
3256.000000	1.233322
3254.000000	1.233424
3252.000000	1.233577
3250.000000	1.233687
3248.000000	1.233730
3246.000000	1.233737
3244.000000	1.233732
3242.000000	1.233792
3240.000000	1.233874
3238.000000	1.233882
3236.000000	1.233743
3234.000000	1.233615
3232.000000	1.233571
3230.000000	1.233564
3228.000000	1.233609
3226.000000	1.233688
3224.000000	1.233789
3222.000000	1.233944
3220.000000	1.234137
3218.000000	1.234297
3216.000000	1.234423
3214.000000	1.234564
3212.000000	1.234613
3210.000000	1.234476
3208.000000	1.234279
3206.000000	1.234159
3204.000000	1.234159
3202.000000	1.234259
3200.000000	1.234265
3198.000000	1.234235
3196.000000	1.234347
3194.000000	1.234471
3192.000000	1.234459
3190.000000	1.234372
3188.000000	1.234368
3186.000000	1.234423
3184.000000	1.234347
3182.000000	1.234308
3180.000000	1.234306
3178.000000	1.234141
3176.000000	1.234035
3174.000000	1.233980
3172.000000	1.233916
3170.000000	1.233947
3168.000000	1.234010
3166.000000	1.234081
3164.000000	1.234193
3162.000000	1.234181
3160.000000	1.234194
3158.000000	1.234268
3156.000000	1.234219
3154.000000	1.234162
3152.000000	1.234186
3150.000000	1.234169
3148.000000	1.234175
3146.000000	1.234167
3144.000000	1.234043
3142.000000	1.234036
3140.000000	1.234098
3138.000000	1.234178
3136.000000	1.234171
3134.000000	1.234139
3132.000000	1.234249
3130.000000	1.234388
3128.000000	1.234408
3126.000000	1.234469
3124.000000	1.234469
3122.000000	1.234435
3120.000000	1.234413
3118.000000	1.234252
3116.000000	1.234111
3114.000000	1.234051
3112.000000	1.234025
3110.000000	1.234094
3108.000000	1.234147
3106.000000	1.234053
3104.000000	1.234049
3102.000000	1.234157
3100.000000	1.234392
3098.000000	1.234553
3096.000000	1.234429
3094.000000	1.234236
3092.000000	1.234058
3090.000000	1.234046
3088.000000	1.234075
3086.000000	1.233957
3084.000000	1.233822
3082.000000	1.233887
3080.000000	1.233980
3078.000000	1.234089
3076.000000	1.234168
3074.000000	1.234215
3072.000000	1.234240
3070.000000	1.234175
3068.000000	1.234089
3066.000000	1.234001
3064.000000	1.233842
3062.000000	1.233611
3060.000000	1.233389
3058.000000	1.233245
3056.000000	1.233238
3054.000000	1.233286
3052.000000	1.233357
3050.000000	1.233587
3048.000000	1.233848
3046.000000	1.233917
3044.000000	1.233801
3042.000000	1.233536
3040.000000	1.233367
3038.000000	1.233249
3036.000000	1.233075
3034.000000	1.232883
3032.000000	1.232650
3030.000000	1.232507
3028.000000	1.232376
3026.000000	1.232305
3024.000000	1.232361
3022.000000	1.232345
3020.000000	1.232095
3018.000000	1.231632
3016.000000	1.231182
3014.000000	1.230998
3012.000000	1.230908
3010.000000	1.230683
3008.000000	1.230407
3006.000000	1.230179
3004.000000	1.230003
3002.000000	1.229742
3000.000000	1.229510
2998.000000	1.229377
2996.000000	1.229225
2994.000000	1.229094
2992.000000	1.228943
2990.000000	1.228785
2988.000000	1.228589
2986.000000	1.228442
2984.000000	1.228341
2982.000000	1.228111
2980.000000	1.227750
2978.000000	1.227357
2976.000000	1.227099
2974.000000	1.227061
2972.000000	1.227259
2970.000000	1.227358
2968.000000	1.227130
2966.000000	1.226784
2964.000000	1.226321
2962.000000	1.225654
2960.000000	1.224953
2958.000000	1.224473
2956.000000	1.223980
2954.000000	1.223364
2952.000000	1.222855
2950.000000	1.222480
2948.000000	1.222174
2946.000000	1.221889
2944.000000	1.221615
2942.000000	1.221337
2940.000000	1.221033
2938.000000	1.220595
2936.000000	1.220113
2934.000000	1.219792
2932.000000	1.219516
2930.000000	1.219105
2928.000000	1.218650
2926.000000	1.217989
2924.000000	1.217282
2922.000000	1.216582
2920.000000	1.215809
2918.000000	1.215222
2916.000000	1.214890
2914.000000	1.214798
2912.000000	1.214646
2910.000000	1.214375
2908.000000	1.214084
2906.000000	1.213768
2904.000000	1.213438
2902.000000	1.213179
2900.000000	1.213017
2898.000000	1.212952
2896.000000	1.212827
2894.000000	1.212419
2892.000000	1.211858
2890.000000	1.211312
2888.000000	1.210728
2886.000000	1.210215
2884.000000	1.209902
2882.000000	1.209672
2880.000000	1.209406
2878.000000	1.209061
2876.000000	1.208809
2874.000000	1.208698
2872.000000	1.208695
2870.000000	1.208647
2868.000000	1.208361
2866.000000	1.207833
2864.000000	1.207238
2862.000000	1.206503
2860.000000	1.205820
2858.000000	1.205394
2856.000000	1.205032
2854.000000	1.204624
2852.000000	1.204111
2850.000000	1.203792
2848.000000	1.203824
2846.000000	1.203888
2844.000000	1.203894
2842.000000	1.203864
2840.000000	1.203774
2838.000000	1.203670
2836.000000	1.203457
2834.000000	1.203060
2832.000000	1.202699
2830.000000	1.202397
2828.000000	1.202023
2826.000000	1.201730
2824.000000	1.201594
2822.000000	1.201535
2820.000000	1.201418
2818.000000	1.201347
2816.000000	1.201246
2814.000000	1.201086
2812.000000	1.200905
2810.000000	1.200675
2808.000000	1.200410
2806.000000	1.200128
2804.000000	1.199912
2802.000000	1.199637
2800.000000	1.199224
2798.000000	1.198842
2796.000000	1.198634
2794.000000	1.198639
2792.000000	1.198673
2790.000000	1.198635
2788.000000	1.198557
2786.000000	1.198446
2784.000000	1.198315
2782.000000	1.198244
2780.000000	1.198188
2778.000000	1.198134
2776.000000	1.198095
2774.000000	1.197951
2772.000000	1.197637
2770.000000	1.197327
2768.000000	1.197206
2766.000000	1.197230
2764.000000	1.197227
2762.000000	1.197197
2760.000000	1.197223
2758.000000	1.197226
2756.000000	1.197257
2754.000000	1.197154
2752.000000	1.196970
2750.000000	1.196856
2748.000000	1.196764
2746.000000	1.196656
2744.000000	1.196532
2742.000000	1.196466
2740.000000	1.196293
2738.000000	1.196103
2736.000000	1.196065
2734.000000	1.196030
2732.000000	1.195969
2730.000000	1.196051
2728.000000	1.196130
2726.000000	1.196068
2724.000000	1.196041
2722.000000	1.196055
2720.000000	1.196028
2718.000000	1.195933
2716.000000	1.195870
2714.000000	1.195901
2712.000000	1.195834
2710.000000	1.195626
2708.000000	1.195606
2706.000000	1.195826
2704.000000	1.195955
2702.000000	1.195922
2700.000000	1.195995
2698.000000	1.196224
2696.000000	1.196455
2694.000000	1.196586
2692.000000	1.196568
2690.000000	1.196471
2688.000000	1.196390
2686.000000	1.196321
2684.000000	1.196313
2682.000000	1.196379
2680.000000	1.196471
2678.000000	1.196603
2676.000000	1.196833
2674.000000	1.197024
2672.000000	1.197058
2670.000000	1.197049
2668.000000	1.197224
2666.000000	1.197471
2664.000000	1.197616
2662.000000	1.197675
2660.000000	1.197678
2658.000000	1.197742
2656.000000	1.197901
2654.000000	1.197930
2652.000000	1.197887
2650.000000	1.197989
2648.000000	1.198093
2646.000000	1.198168
2644.000000	1.198441
2642.000000	1.198773
2640.000000	1.199058
2638.000000	1.199315
2636.000000	1.199501
2634.000000	1.199657
2632.000000	1.199812
2630.000000	1.199877
2628.000000	1.199955
2626.000000	1.200172
2624.000000	1.200409
2622.000000	1.200440
2620.000000	1.200465
2618.000000	1.200714
2616.000000	1.201144
2614.000000	1.201512
2612.000000	1.201818
2610.000000	1.202190
2608.000000	1.202395
2606.000000	1.202554
2604.000000	1.202846
2602.000000	1.203143
2600.000000	1.203246
2598.000000	1.203080
2596.000000	1.203147
2594.000000	1.203458
2592.000000	1.203624
2590.000000	1.203834
2588.000000	1.204160
2586.000000	1.204537
2584.000000	1.204969
2582.000000	1.205234
2580.000000	1.205391
2578.000000	1.205748
2576.000000	1.206159
2574.000000	1.206421
2572.000000	1.206620
2570.000000	1.206725
2568.000000	1.206724
2566.000000	1.206893
2564.000000	1.207222
2562.000000	1.207426
2560.000000	1.207604
2558.000000	1.208017
2556.000000	1.208505
2554.000000	1.208966
2552.000000	1.209360
2550.000000	1.209778
2548.000000	1.210159
2546.000000	1.210390
2544.000000	1.210722
2542.000000	1.211189
2540.000000	1.211473
2538.000000	1.211561
2536.000000	1.211728
2534.000000	1.212024
2532.000000	1.212501
2530.000000	1.212984
2528.000000	1.213410
2526.000000	1.213941
2524.000000	1.214491
2522.000000	1.214899
2520.000000	1.215253
2518.000000	1.215594
2516.000000	1.215885
2514.000000	1.216204
2512.000000	1.216486
2510.000000	1.216703
2508.000000	1.216842
2506.000000	1.217129
2504.000000	1.217604
2502.000000	1.218107
2500.000000	1.218464
2498.000000	1.218630
2496.000000	1.218890
2494.000000	1.219228
2492.000000	1.219642
2490.000000	1.220098
2488.000000	1.220374
2486.000000	1.220549
2484.000000	1.220756
2482.000000	1.220961
2480.000000	1.221154
2478.000000	1.221319
2476.000000	1.221480
2474.000000	1.221681
2472.000000	1.221857
2470.000000	1.221968
2468.000000	1.222190
2466.000000	1.222520
2464.000000	1.222809
2462.000000	1.223043
2460.000000	1.223142
2458.000000	1.223207
2456.000000	1.223335
2454.000000	1.223465
2452.000000	1.223537
2450.000000	1.223478
2448.000000	1.223349
2446.000000	1.223297
2444.000000	1.223279
2442.000000	1.223337
2440.000000	1.223444
2438.000000	1.223416
2436.000000	1.223402
2434.000000	1.223454
2432.000000	1.223458
2430.000000	1.223355
2428.000000	1.223282
2426.000000	1.223175
2424.000000	1.222863
2422.000000	1.222531
2420.000000	1.222337
2418.000000	1.222112
2416.000000	1.221849
2414.000000	1.221678
2412.000000	1.221665
2410.000000	1.221652
2408.000000	1.221638
2406.000000	1.221485
2404.000000	1.221314
2402.000000	1.221331
2400.000000	1.221328
2398.000000	1.221198
2396.000000	1.220927
2394.000000	1.220589
2392.000000	1.220371
2390.000000	1.220259
2388.000000	1.220207
2386.000000	1.220280
2384.000000	1.220338
2382.000000	1.220430
2380.000000	1.220663
2378.000000	1.220917
2376.000000	1.221233
2374.000000	1.221581
2372.000000	1.221648
2370.000000	1.221592
2368.000000	1.221504
2366.000000	1.221305
2364.000000	1.221131
2362.000000	1.221111
2360.000000	1.221266
2358.000000	1.221447
2356.000000	1.221675
2354.000000	1.222155
2352.000000	1.222887
2350.000000	1.223721
2348.000000	1.224223
2346.000000	1.224454
2344.000000	1.224817
2342.000000	1.225227
2340.000000	1.225405
2338.000000	1.224939
2336.000000	1.224030
2334.000000	1.223358
2332.000000	1.223056
2330.000000	1.222964
2328.000000	1.223141
2326.000000	1.223494
2324.000000	1.223748
2322.000000	1.223884
2320.000000	1.224039
2318.000000	1.224288
2316.000000	1.224469
2314.000000	1.224445
2312.000000	1.224419
2310.000000	1.224534
2308.000000	1.224737
2306.000000	1.224865
2304.000000	1.224932
2302.000000	1.225073
2300.000000	1.225275
2298.000000	1.225494
2296.000000	1.225663
2294.000000	1.225930
2292.000000	1.226147
2290.000000	1.226289
2288.000000	1.226512
2286.000000	1.226685
2284.000000	1.226763
2282.000000	1.226793
2280.000000	1.226775
2278.000000	1.226805
2276.000000	1.226794
2274.000000	1.226794
2272.000000	1.227061
2270.000000	1.227367
2268.000000	1.227355
2266.000000	1.227321
2264.000000	1.227534
2262.000000	1.227689
2260.000000	1.227767
2258.000000	1.227771
2256.000000	1.227696
2254.000000	1.227758
2252.000000	1.227866
2250.000000	1.227956
2248.000000	1.228029
2246.000000	1.228168
2244.000000	1.228345
2242.000000	1.228400
2240.000000	1.228498
2238.000000	1.228730
2236.000000	1.228931
2234.000000	1.229137
2232.000000	1.229315
2230.000000	1.229375
2228.000000	1.229420
2226.000000	1.229376
2224.000000	1.229316
2222.000000	1.229302
2220.000000	1.229300
2218.000000	1.229331
2216.000000	1.229487
2214.000000	1.229639
2212.000000	1.229578
2210.000000	1.229455
2208.000000	1.229372
2206.000000	1.229443
2204.000000	1.229502
2202.000000	1.229474
2200.000000	1.229500
2198.000000	1.229416
2196.000000	1.229269
2194.000000	1.229221
2192.000000	1.229065
2190.000000	1.228790
2188.000000	1.228632
2186.000000	1.228668
2184.000000	1.228706
2182.000000	1.228746
2180.000000	1.228813
2178.000000	1.228959
2176.000000	1.229001
2174.000000	1.228899
2172.000000	1.228828
2170.000000	1.228926
2168.000000	1.228893
2166.000000	1.228687
2164.000000	1.228482
2162.000000	1.228354
2160.000000	1.228290
2158.000000	1.228160
2156.000000	1.228051
2154.000000	1.228080
2152.000000	1.228102
2150.000000	1.227889
2148.000000	1.227604
2146.000000	1.227533
2144.000000	1.227554
2142.000000	1.227413
2140.000000	1.227078
2138.000000	1.226754
2136.000000	1.226440
2134.000000	1.226090
2132.000000	1.225742
2130.000000	1.225412
2128.000000	1.225120
2126.000000	1.225026
2124.000000	1.224931
2122.000000	1.224634
2120.000000	1.224380
2118.000000	1.224246
2116.000000	1.224083
2114.000000	1.223980
2112.000000	1.223791
2110.000000	1.223349
2108.000000	1.222947
2106.000000	1.222683
2104.000000	1.222330
2102.000000	1.222026
2100.000000	1.221738
2098.000000	1.221483
2096.000000	1.221334
2094.000000	1.221055
2092.000000	1.220842
2090.000000	1.220733
2088.000000	1.220545
2086.000000	1.220254
2084.000000	1.219997
2082.000000	1.219685
2080.000000	1.219190
2078.000000	1.218569
2076.000000	1.218020
2074.000000	1.217595
2072.000000	1.217231
2070.000000	1.216870
2068.000000	1.216611
2066.000000	1.216371
2064.000000	1.215942
2062.000000	1.215515
2060.000000	1.215250
2058.000000	1.214939
2056.000000	1.214641
2054.000000	1.214147
2052.000000	1.213539
2050.000000	1.213083
2048.000000	1.212645
2046.000000	1.212337
2044.000000	1.212151
2042.000000	1.211948
2040.000000	1.211680
2038.000000	1.211323
2036.000000	1.211054
2034.000000	1.210958
2032.000000	1.210812
2030.000000	1.210566
2028.000000	1.210371
2026.000000	1.209987
2024.000000	1.209359
2022.000000	1.208831
2020.000000	1.208540
2018.000000	1.208312
2016.000000	1.208080
2014.000000	1.207852
2012.000000	1.207627
2010.000000	1.207423
2008.000000	1.207118
2006.000000	1.206756
2004.000000	1.206582
2002.000000	1.206466
2000.000000	1.206208
1998.000000	1.205852
1996.000000	1.205551
1994.000000	1.205250
1992.000000	1.204911
1990.000000	1.204692
1988.000000	1.204476
1986.000000	1.204233
1984.000000	1.203987
1982.000000	1.203911
1980.000000	1.203879
1978.000000	1.203795
1976.000000	1.203717
1974.000000	1.203604
1972.000000	1.203521
1970.000000	1.203447
1968.000000	1.203240
1966.000000	1.202941
1964.000000	1.202782
1962.000000	1.202758
1960.000000	1.202640
1958.000000	1.202405
1956.000000	1.202214
1954.000000	1.201994
1952.000000	1.201877
1950.000000	1.201915
1948.000000	1.201968
1946.000000	1.202001
1944.000000	1.201980
1942.000000	1.201892
1940.000000	1.201904
1938.000000	1.201919
1936.000000	1.201963
1934.000000	1.201902
1932.000000	1.201824
1930.000000	1.201818
1928.000000	1.201871
1926.000000	1.201834
1924.000000	1.201750
1922.000000	1.201687
1920.000000	1.201814
1918.000000	1.201829
1916.000000	1.202072
1914.000000	1.202414
1912.000000	1.202507
1910.000000	1.202565
1908.000000	1.202633
1906.000000	1.202609
1904.000000	1.202511
1902.000000	1.202389
1900.000000	1.202307
1898.000000	1.202146
1896.000000	1.201989
1894.000000	1.202111
1892.000000	1.202372
1890.000000	1.202388
1888.000000	1.202363
1886.000000	1.202563
1884.000000	1.202686
1882.000000	1.202712
1880.000000	1.202747
1878.000000	1.202773
1876.000000	1.202707
1874.000000	1.202678
1872.000000	1.202842
1870.000000	1.202828
1868.000000	1.202738
1866.000000	1.203205
1864.000000	1.203726
1862.000000	1.204039
1860.000000	1.204233
1858.000000	1.204514
1856.000000	1.204922
1854.000000	1.205269
1852.000000	1.205557
1850.000000	1.205618
1848.000000	1.205662
1846.000000	1.205897
1844.000000	1.205639
1842.000000	1.205906
1840.000000	1.206469
1838.000000	1.206728
1836.000000	1.206899
1834.000000	1.207089
1832.000000	1.207323
1830.000000	1.207259
1828.000000	1.207414
1826.000000	1.207559
1824.000000	1.207472
1822.000000	1.207779
1820.000000	1.208043
1818.000000	1.208152
1816.000000	1.208366
1814.000000	1.208688
1812.000000	1.208822
1810.000000	1.208865
1808.000000	1.209179
1806.000000	1.209783
1804.000000	1.210372
1802.000000	1.210843
1800.000000	1.211230
1798.000000	1.211771
1796.000000	1.212530
1794.000000	1.212978
1792.000000	1.213003
1790.000000	1.213748
1788.000000	1.214717
1786.000000	1.215256
1784.000000	1.215869
1782.000000	1.216566
1780.000000	1.216900
1778.000000	1.217408
1776.000000	1.218099
1774.000000	1.218260
1772.000000	1.217897
1770.000000	1.218634
1768.000000	1.219317
1766.000000	1.219852
1764.000000	1.220521
1762.000000	1.220467
1760.000000	1.220551
1758.000000	1.220983
1756.000000	1.221291
1754.000000	1.221928
1752.000000	1.221809
1750.000000	1.221583
1748.000000	1.222079
1746.000000	1.222685
1744.000000	1.223362
1742.000000	1.223963
1740.000000	1.224204
1738.000000	1.224998
1736.000000	1.225864
1734.000000	1.224914
1732.000000	1.225369
1730.000000	1.227020
1728.000000	1.227975
1726.000000	1.228658
1724.000000	1.228885
1722.000000	1.229349
1720.000000	1.229946
1718.000000	1.229296
1716.000000	1.229010
1714.000000	1.230123
1712.000000	1.231141
1710.000000	1.231644
1708.000000	1.231758
1706.000000	1.231564
1704.000000	1.231644
1702.000000	1.231693
1700.000000	1.229972
1698.000000	1.230158
1696.000000	1.229752
1694.000000	1.229414
1692.000000	1.230479
1690.000000	1.230485
1688.000000	1.230587
1686.000000	1.230060
1684.000000	1.228074
1682.000000	1.228506
1680.000000	1.229737
1678.000000	1.230293
1676.000000	1.229976
1674.000000	1.229544
1672.000000	1.230335
1670.000000	1.230221
1668.000000	1.230162
1666.000000	1.231017
1664.000000	1.231316
1662.000000	1.231108
1660.000000	1.231692
1658.000000	1.232414
1656.000000	1.233369
1654.000000	1.232171
1652.000000	1.230220
1650.000000	1.232217
1648.000000	1.233522
1646.000000	1.232777
1644.000000	1.233058
1642.000000	1.233910
1640.000000	1.234030
1638.000000	1.233900
1636.000000	1.232427
1634.000000	1.231610
1632.000000	1.232426
1630.000000	1.232474
1628.000000	1.232008
1626.000000	1.231942
1624.000000	1.231726
1622.000000	1.231190
1620.000000	1.231435
1618.000000	1.230954
1616.000000	1.229685
1614.000000	1.230195
1612.000000	1.230853
1610.000000	1.230732
1608.000000	1.230507
1606.000000	1.230158
1604.000000	1.230038
1602.000000	1.230278
1600.000000	1.230593
1598.000000	1.231025
1596.000000	1.231578
1594.000000	1.231908
1592.000000	1.232334
1590.000000	1.232640
1588.000000	1.232752
1586.000000	1.232852
1584.000000	1.232926
1582.000000	1.232966
1580.000000	1.233402
1578.000000	1.233340
1576.000000	1.231840
1574.000000	1.231881
1572.000000	1.232899
1570.000000	1.232409
1568.000000	1.232195
1566.000000	1.232423
1564.000000	1.232433
1562.000000	1.232540
1560.000000	1.230638
1558.000000	1.228502
1556.000000	1.229521
1554.000000	1.230240
1552.000000	1.230420
1550.000000	1.230471
1548.000000	1.230534
1546.000000	1.230516
1544.000000	1.230363
1542.000000	1.230008
1540.000000	1.228702
1538.000000	1.228775
1536.000000	1.230713
1534.000000	1.230978
1532.000000	1.231101
1530.000000	1.232001
1528.000000	1.232317
1526.000000	1.232139
1524.000000	1.232322
1522.000000	1.232079
1520.000000	1.231788
1518.000000	1.232238
1516.000000	1.232205
1514.000000	1.232487
1512.000000	1.232638
1510.000000	1.232905
1508.000000	1.232385
1506.000000	1.230900
1504.000000	1.231602
1502.000000	1.233333
1500.000000	1.234021
1498.000000	1.233673
1496.000000	1.232093
1494.000000	1.230886
1492.000000	1.230193
1490.000000	1.229606
1488.000000	1.229534
1486.000000	1.229750
1484.000000	1.230166
1482.000000	1.230401
1480.000000	1.230705
1478.000000	1.231034
1476.000000	1.231092
1474.000000	1.231001
1472.000000	1.230852
1470.000000	1.231674
1468.000000	1.232634
1466.000000	1.232669
1464.000000	1.232150
1462.000000	1.232450
1460.000000	1.233043
1458.000000	1.232327
1456.000000	1.231288
1454.000000	1.232106
1452.000000	1.232520
1450.000000	1.231843
1448.000000	1.231215
1446.000000	1.231496
1444.000000	1.231972
1442.000000	1.231945
1440.000000	1.231813
1438.000000	1.231167
1436.000000	1.230150
1434.000000	1.230267
1432.000000	1.230316
1430.000000	1.229863
1428.000000	1.229681
1426.000000	1.229746
1424.000000	1.229593
1422.000000	1.229835
1420.000000	1.229679
1418.000000	1.229361
1416.000000	1.229993
1414.000000	1.230718
1412.000000	1.230936
1410.000000	1.230935
1408.000000	1.231268
1406.000000	1.231368
1404.000000	1.231065
1402.000000	1.230955
1400.000000	1.230812
1398.000000	1.230676
1396.000000	1.230692
1394.000000	1.230579
1392.000000	1.230844
1390.000000	1.231268
1388.000000	1.231144
1386.000000	1.230790
1384.000000	1.230583
1382.000000	1.230226
1380.000000	1.229911
1378.000000	1.229535
1376.000000	1.229009
1374.000000	1.228179
1372.000000	1.227811
1370.000000	1.227856
1368.000000	1.227726
1366.000000	1.227426
1364.000000	1.227105
1362.000000	1.226910
1360.000000	1.226986
1358.000000	1.227253
1356.000000	1.227570
1354.000000	1.227673
1352.000000	1.227834
1350.000000	1.228241
1348.000000	1.228707
1346.000000	1.228893
1344.000000	1.228934
1342.000000	1.229001
1340.000000	1.229117
1338.000000	1.229270
1336.000000	1.229548
1334.000000	1.229871
1332.000000	1.230021
1330.000000	1.230075
1328.000000	1.229940
1326.000000	1.229842
1324.000000	1.229889
1322.000000	1.229780
1320.000000	1.229509
1318.000000	1.229022
1316.000000	1.228399
1314.000000	1.227641
1312.000000	1.227036
1310.000000	1.226803
1308.000000	1.226605
1306.000000	1.226251
1304.000000	1.225970
1302.000000	1.225883
1300.000000	1.225953
1298.000000	1.226261
1296.000000	1.226516
1294.000000	1.226520
1292.000000	1.226632
1290.000000	1.226872
1288.000000	1.226984
1286.000000	1.227300
1284.000000	1.227887
1282.000000	1.228354
1280.000000	1.228773
1278.000000	1.228982
1276.000000	1.229421
1274.000000	1.230333
1272.000000	1.231336
1270.000000	1.232177
1268.000000	1.232947
1266.000000	1.233674
1264.000000	1.234451
1262.000000	1.234657
1260.000000	1.233848
1258.000000	1.232412
1256.000000	1.231067
1254.000000	1.229958
1252.000000	1.229160
1250.000000	1.228479
1248.000000	1.227577
1246.000000	1.226910
1244.000000	1.226491
1242.000000	1.226119
1240.000000	1.225942
1238.000000	1.225700
1236.000000	1.225560
1234.000000	1.225517
1232.000000	1.225418
1230.000000	1.225101
1228.000000	1.224817
1226.000000	1.224832
1224.000000	1.225124
1222.000000	1.225766
1220.000000	1.226668
1218.000000	1.227575
1216.000000	1.228373
1214.000000	1.229179
1212.000000	1.230104
1210.000000	1.230683
1208.000000	1.231000
1206.000000	1.231121
1204.000000	1.231228
1202.000000	1.231346
1200.000000	1.231335
1198.000000	1.230884
1196.000000	1.230238
1194.000000	1.229838
1192.000000	1.229242
1190.000000	1.228390
1188.000000	1.227932
1186.000000	1.227819
1184.000000	1.227438
1182.000000	1.226412
1180.000000	1.225113
1178.000000	1.224401
1176.000000	1.224145
1174.000000	1.223688
1172.000000	1.223030
1170.000000	1.222623
1168.000000	1.222496
1166.000000	1.222735
1164.000000	1.223037
1162.000000	1.223367
1160.000000	1.224489
1158.000000	1.225781
1156.000000	1.227054
1154.000000	1.228028
1152.000000	1.229110
1150.000000	1.230618
1148.000000	1.231708
1146.000000	1.232464
1144.000000	1.232994
1142.000000	1.232999
1140.000000	1.232774
1138.000000	1.232192
1136.000000	1.231931
1134.000000	1.231963
1132.000000	1.231571
1130.000000	1.231013
1128.000000	1.230362
1126.000000	1.229485
1124.000000	1.228379
1122.000000	1.227263
1120.000000	1.225689
1118.000000	1.224086
1116.000000	1.222828
1114.000000	1.221370
1112.000000	1.219690
1110.000000	1.218394
1108.000000	1.217550
1106.000000	1.217994
1104.000000	1.218813
1102.000000	1.219244
1100.000000	1.220086
1098.000000	1.222142
1096.000000	1.224035
1094.000000	1.225061
1092.000000	1.226281
1090.000000	1.227769
1088.000000	1.229179
1086.000000	1.230469
1084.000000	1.231050
1082.000000	1.231741
1080.000000	1.232594
1078.000000	1.232824
1076.000000	1.233240
1074.000000	1.233354
1072.000000	1.233469
1070.000000	1.233632
1068.000000	1.233131
1066.000000	1.231882
1064.000000	1.230330
1062.000000	1.227832
1060.000000	1.224901
1058.000000	1.222081
1056.000000	1.218918
1054.000000	1.215038
1052.000000	1.210826
1050.000000	1.207354
1048.000000	1.205109
1046.000000	1.203979
1044.000000	1.202900
1042.000000	1.201750
1040.000000	1.201861
1038.000000	1.202889
1036.000000	1.204715
1034.000000	1.206451
1032.000000	1.207475
1030.000000	1.208400
1028.000000	1.210018
1026.000000	1.211304
1024.000000	1.212203
1022.000000	1.214425
1020.000000	1.217213
1018.000000	1.220550
1016.000000	1.223921
1014.000000	1.225980
1012.000000	1.228470
1010.000000	1.231256
1008.000000	1.232134
1006.000000	1.231161
1004.000000	1.229739
1002.000000	1.227050
1000.000000	1.223339
