PE IR       SUBTECH     SPECTRUM    ASCII       PEDS        4.00        
   -1
TE109A_020_90K.ASC
20/04/21
12:39:22.00
20/04/21
12:39:22.00
Administrator
TE109A, Tuesday, April 21 2020, 020.
1000.000000
#HDR
-1
-1
#GR
cm-1
A
1.0
0.0
6000.000000
-2.000000
2501
8
1.232529
1.125109
#DATA
6000.000000	1.168634
5998.000000	1.168926
5996.000000	1.168784
5994.000000	1.168354
5992.000000	1.167936
5990.000000	1.167573
5988.000000	1.167587
5986.000000	1.168669
5984.000000	1.169688
5982.000000	1.170007
5980.000000	1.169107
5978.000000	1.168083
5976.000000	1.168162
5974.000000	1.168246
5972.000000	1.168188
5970.000000	1.168466
5968.000000	1.168812
5966.000000	1.168937
5964.000000	1.168313
5962.000000	1.167979
5960.000000	1.168195
5958.000000	1.168437
5956.000000	1.168150
5954.000000	1.167410
5952.000000	1.166888
5950.000000	1.167241
5948.000000	1.167806
5946.000000	1.168009
5944.000000	1.167830
5942.000000	1.167836
5940.000000	1.167768
5938.000000	1.167477
5936.000000	1.167252
5934.000000	1.167708
5932.000000	1.168381
5930.000000	1.167911
5928.000000	1.166747
5926.000000	1.166551
5924.000000	1.166821
5922.000000	1.167505
5920.000000	1.167866
5918.000000	1.168033
5916.000000	1.168454
5914.000000	1.168320
5912.000000	1.167907
5910.000000	1.167578
5908.000000	1.167036
5906.000000	1.166344
5904.000000	1.166360
5902.000000	1.166878
5900.000000	1.167421
5898.000000	1.167725
5896.000000	1.167722
5894.000000	1.167737
5892.000000	1.167383
5890.000000	1.166952
5888.000000	1.166709
5886.000000	1.166273
5884.000000	1.166125
5882.000000	1.166637
5880.000000	1.167211
5878.000000	1.167162
5876.000000	1.166714
5874.000000	1.166345
5872.000000	1.166024
5870.000000	1.165672
5868.000000	1.165191
5866.000000	1.165428
5864.000000	1.165774
5862.000000	1.165767
5860.000000	1.165292
5858.000000	1.165088
5856.000000	1.165655
5854.000000	1.166165
5852.000000	1.166225
5850.000000	1.165669
5848.000000	1.165199
5846.000000	1.164987
5844.000000	1.165155
5842.000000	1.165584
5840.000000	1.165937
5838.000000	1.166377
5836.000000	1.166626
5834.000000	1.166298
5832.000000	1.165888
5830.000000	1.165883
5828.000000	1.166157
5826.000000	1.166579
5824.000000	1.166508
5822.000000	1.166239
5820.000000	1.165766
5818.000000	1.165735
5816.000000	1.166264
5814.000000	1.166780
5812.000000	1.166879
5810.000000	1.166614
5808.000000	1.166233
5806.000000	1.165825
5804.000000	1.165689
5802.000000	1.165590
5800.000000	1.165528
5798.000000	1.165344
5796.000000	1.164875
5794.000000	1.164752
5792.000000	1.165055
5790.000000	1.165844
5788.000000	1.166323
5786.000000	1.166007
5784.000000	1.165856
5782.000000	1.165989
5780.000000	1.166261
5778.000000	1.166445
5776.000000	1.166074
5774.000000	1.165745
5772.000000	1.165257
5770.000000	1.165042
5768.000000	1.165335
5766.000000	1.165540
5764.000000	1.165467
5762.000000	1.165894
5760.000000	1.166300
5758.000000	1.166193
5756.000000	1.165671
5754.000000	1.165148
5752.000000	1.164971
5750.000000	1.164738
5748.000000	1.164833
5746.000000	1.165387
5744.000000	1.165555
5742.000000	1.165433
5740.000000	1.165377
5738.000000	1.165310
5736.000000	1.165365
5734.000000	1.165496
5732.000000	1.165894
5730.000000	1.166091
5728.000000	1.165917
5726.000000	1.165723
5724.000000	1.165554
5722.000000	1.165336
5720.000000	1.165279
5718.000000	1.165136
5716.000000	1.165408
5714.000000	1.165677
5712.000000	1.165537
5710.000000	1.165268
5708.000000	1.165184
5706.000000	1.165597
5704.000000	1.166044
5702.000000	1.166096
5700.000000	1.165726
5698.000000	1.165024
5696.000000	1.164854
5694.000000	1.164940
5692.000000	1.165091
5690.000000	1.165226
5688.000000	1.165381
5686.000000	1.165462
5684.000000	1.165258
5682.000000	1.165165
5680.000000	1.165007
5678.000000	1.164875
5676.000000	1.165434
5674.000000	1.165985
5672.000000	1.166230
5670.000000	1.165793
5668.000000	1.165435
5666.000000	1.165167
5664.000000	1.164647
5662.000000	1.164493
5660.000000	1.164593
5658.000000	1.164802
5656.000000	1.164713
5654.000000	1.164325
5652.000000	1.164215
5650.000000	1.164495
5648.000000	1.164732
5646.000000	1.164816
5644.000000	1.164793
5642.000000	1.164823
5640.000000	1.164994
5638.000000	1.165211
5636.000000	1.165366
5634.000000	1.165085
5632.000000	1.164706
5630.000000	1.164483
5628.000000	1.164336
5626.000000	1.164284
5624.000000	1.164538
5622.000000	1.165132
5620.000000	1.165168
5618.000000	1.164780
5616.000000	1.164561
5614.000000	1.164437
5612.000000	1.164570
5610.000000	1.164594
5608.000000	1.164475
5606.000000	1.164611
5604.000000	1.164762
5602.000000	1.164855
5600.000000	1.164682
5598.000000	1.164406
5596.000000	1.164726
5594.000000	1.164918
5592.000000	1.164895
5590.000000	1.164712
5588.000000	1.164583
5586.000000	1.164550
5584.000000	1.164263
5582.000000	1.164142
5580.000000	1.164221
5578.000000	1.164651
5576.000000	1.164764
5574.000000	1.164249
5572.000000	1.163557
5570.000000	1.163233
5568.000000	1.163436
5566.000000	1.163760
5564.000000	1.163950
5562.000000	1.164210
5560.000000	1.164408
5558.000000	1.164545
5556.000000	1.164445
5554.000000	1.163953
5552.000000	1.163580
5550.000000	1.163257
5548.000000	1.163408
5546.000000	1.163878
5544.000000	1.164060
5542.000000	1.164059
5540.000000	1.164066
5538.000000	1.164188
5536.000000	1.164230
5534.000000	1.164041
5532.000000	1.164082
5530.000000	1.164333
5528.000000	1.164379
5526.000000	1.164284
5524.000000	1.164101
5522.000000	1.164217
5520.000000	1.164679
5518.000000	1.164513
5516.000000	1.163955
5514.000000	1.163348
5512.000000	1.163479
5510.000000	1.163863
5508.000000	1.164026
5506.000000	1.163931
5504.000000	1.163557
5502.000000	1.163131
5500.000000	1.163123
5498.000000	1.163322
5496.000000	1.163676
5494.000000	1.163720
5492.000000	1.163767
5490.000000	1.163616
5488.000000	1.163261
5486.000000	1.163077
5484.000000	1.162979
5482.000000	1.163109
5480.000000	1.163030
5478.000000	1.162886
5476.000000	1.162803
5474.000000	1.162397
5472.000000	1.162040
5470.000000	1.161984
5468.000000	1.162026
5466.000000	1.162057
5464.000000	1.162102
5462.000000	1.162219
5460.000000	1.162122
5458.000000	1.161886
5456.000000	1.162148
5454.000000	1.162389
5452.000000	1.162311
5450.000000	1.162037
5448.000000	1.162053
5446.000000	1.162419
5444.000000	1.162807
5442.000000	1.162883
5440.000000	1.162740
5438.000000	1.162458
5436.000000	1.162227
5434.000000	1.162197
5432.000000	1.162078
5430.000000	1.162241
5428.000000	1.162384
5426.000000	1.162609
5424.000000	1.162574
5422.000000	1.161945
5420.000000	1.161649
5418.000000	1.161796
5416.000000	1.161988
5414.000000	1.161955
5412.000000	1.161774
5410.000000	1.161840
5408.000000	1.161759
5406.000000	1.161491
5404.000000	1.161542
5402.000000	1.161699
5400.000000	1.161814
5398.000000	1.161886
5396.000000	1.161887
5394.000000	1.161854
5392.000000	1.161720
5390.000000	1.161465
5388.000000	1.161036
5386.000000	1.160783
5384.000000	1.161253
5382.000000	1.161842
5380.000000	1.162035
5378.000000	1.161722
5376.000000	1.161323
5374.000000	1.161118
5372.000000	1.161167
5370.000000	1.161229
5368.000000	1.161103
5366.000000	1.160992
5364.000000	1.161343
5362.000000	1.161672
5360.000000	1.161582
5358.000000	1.161507
5356.000000	1.161631
5354.000000	1.161805
5352.000000	1.161590
5350.000000	1.161286
5348.000000	1.161346
5346.000000	1.161637
5344.000000	1.161854
5342.000000	1.162034
5340.000000	1.161969
5338.000000	1.161612
5336.000000	1.161159
5334.000000	1.161176
5332.000000	1.161383
5330.000000	1.161317
5328.000000	1.161368
5326.000000	1.161554
5324.000000	1.161669
5322.000000	1.161801
5320.000000	1.162130
5318.000000	1.162673
5316.000000	1.162875
5314.000000	1.162969
5312.000000	1.162927
5310.000000	1.162768
5308.000000	1.162572
5306.000000	1.162594
5304.000000	1.162968
5302.000000	1.163336
5300.000000	1.163349
5298.000000	1.163255
5296.000000	1.163515
5294.000000	1.164128
5292.000000	1.164409
5290.000000	1.164291
5288.000000	1.164213
5286.000000	1.164336
5284.000000	1.164453
5282.000000	1.164571
5280.000000	1.164898
5278.000000	1.165464
5276.000000	1.165575
5274.000000	1.165489
5272.000000	1.165482
5270.000000	1.165761
5268.000000	1.165847
5266.000000	1.165717
5264.000000	1.165820
5262.000000	1.166229
5260.000000	1.166788
5258.000000	1.167094
5256.000000	1.167365
5254.000000	1.167800
5252.000000	1.168233
5250.000000	1.168068
5248.000000	1.167861
5246.000000	1.168049
5244.000000	1.168384
5242.000000	1.168688
5240.000000	1.169238
5238.000000	1.169759
5236.000000	1.170126
5234.000000	1.170535
5232.000000	1.170855
5230.000000	1.171110
5228.000000	1.171486
5226.000000	1.171885
5224.000000	1.172089
5222.000000	1.172456
5220.000000	1.172887
5218.000000	1.173087
5216.000000	1.173286
5214.000000	1.174088
5212.000000	1.174871
5210.000000	1.175247
5208.000000	1.175214
5206.000000	1.175307
5204.000000	1.175693
5202.000000	1.176275
5200.000000	1.176768
5198.000000	1.177044
5196.000000	1.177427
5194.000000	1.177967
5192.000000	1.178404
5190.000000	1.178740
5188.000000	1.179363
5186.000000	1.180017
5184.000000	1.180433
5182.000000	1.180850
5180.000000	1.181242
5178.000000	1.181469
5176.000000	1.181721
5174.000000	1.182005
5172.000000	1.181843
5170.000000	1.181654
5168.000000	1.182398
5166.000000	1.183610
5164.000000	1.184439
5162.000000	1.184650
5160.000000	1.184683
5158.000000	1.184810
5156.000000	1.185159
5154.000000	1.185812
5152.000000	1.186257
5150.000000	1.186401
5148.000000	1.186301
5146.000000	1.186425
5144.000000	1.186680
5142.000000	1.187043
5140.000000	1.187255
5138.000000	1.187667
5136.000000	1.187987
5134.000000	1.188385
5132.000000	1.188728
5130.000000	1.189221
5128.000000	1.189616
5126.000000	1.189546
5124.000000	1.189469
5122.000000	1.189439
5120.000000	1.189534
5118.000000	1.189360
5116.000000	1.189388
5114.000000	1.189782
5112.000000	1.190229
5110.000000	1.190368
5108.000000	1.190461
5106.000000	1.190548
5104.000000	1.190475
5102.000000	1.190428
5100.000000	1.190773
5098.000000	1.190968
5096.000000	1.190847
5094.000000	1.190831
5092.000000	1.191142
5090.000000	1.191341
5088.000000	1.191373
5086.000000	1.191370
5084.000000	1.191179
5082.000000	1.190969
5080.000000	1.191073
5078.000000	1.191283
5076.000000	1.191211
5074.000000	1.191003
5072.000000	1.190941
5070.000000	1.190815
5068.000000	1.190570
5066.000000	1.190832
5064.000000	1.191342
5062.000000	1.191346
5060.000000	1.190877
5058.000000	1.190704
5056.000000	1.190979
5054.000000	1.191221
5052.000000	1.191204
5050.000000	1.190774
5048.000000	1.190311
5046.000000	1.190284
5044.000000	1.190571
5042.000000	1.190558
5040.000000	1.190403
5038.000000	1.190473
5036.000000	1.190635
5034.000000	1.190487
5032.000000	1.190359
5030.000000	1.190241
5028.000000	1.190080
5026.000000	1.190029
5024.000000	1.189942
5022.000000	1.189776
5020.000000	1.189759
5018.000000	1.189969
5016.000000	1.190106
5014.000000	1.189978
5012.000000	1.189832
5010.000000	1.189680
5008.000000	1.189812
5006.000000	1.189880
5004.000000	1.189349
5002.000000	1.188880
5000.000000	1.188830
4998.000000	1.188838
4996.000000	1.188549
4994.000000	1.188507
4992.000000	1.188674
4990.000000	1.188604
4988.000000	1.188347
4986.000000	1.188041
4984.000000	1.187741
4982.000000	1.187512
4980.000000	1.187480
4978.000000	1.187354
4976.000000	1.187108
4974.000000	1.186846
4972.000000	1.186610
4970.000000	1.186547
4968.000000	1.186704
4966.000000	1.186817
4964.000000	1.186663
4962.000000	1.186577
4960.000000	1.186454
4958.000000	1.186117
4956.000000	1.185665
4954.000000	1.185461
4952.000000	1.185444
4950.000000	1.185429
4948.000000	1.185227
4946.000000	1.185089
4944.000000	1.185011
4942.000000	1.184822
4940.000000	1.184557
4938.000000	1.184430
4936.000000	1.184403
4934.000000	1.184340
4932.000000	1.184215
4930.000000	1.184123
4928.000000	1.183862
4926.000000	1.183348
4924.000000	1.182916
4922.000000	1.182962
4920.000000	1.183129
4918.000000	1.182995
4916.000000	1.182554
4914.000000	1.182151
4912.000000	1.182126
4910.000000	1.182297
4908.000000	1.182214
4906.000000	1.181734
4904.000000	1.181247
4902.000000	1.181084
4900.000000	1.181074
4898.000000	1.180970
4896.000000	1.180663
4894.000000	1.180353
4892.000000	1.180215
4890.000000	1.180245
4888.000000	1.180142
4886.000000	1.179719
4884.000000	1.179215
4882.000000	1.178692
4880.000000	1.178406
4878.000000	1.178447
4876.000000	1.178363
4874.000000	1.177972
4872.000000	1.177534
4870.000000	1.177412
4868.000000	1.177440
4866.000000	1.177388
4864.000000	1.177150
4862.000000	1.176815
4860.000000	1.176605
4858.000000	1.176410
4856.000000	1.176147
4854.000000	1.175879
4852.000000	1.175691
4850.000000	1.175521
4848.000000	1.175325
4846.000000	1.175168
4844.000000	1.174854
4842.000000	1.174401
4840.000000	1.174195
4838.000000	1.174101
4836.000000	1.173873
4834.000000	1.173578
4832.000000	1.173205
4830.000000	1.172785
4828.000000	1.172686
4826.000000	1.172788
4824.000000	1.172558
4822.000000	1.172015
4820.000000	1.171517
4818.000000	1.171235
4816.000000	1.171113
4814.000000	1.171126
4812.000000	1.171007
4810.000000	1.170688
4808.000000	1.170222
4806.000000	1.169742
4804.000000	1.169415
4802.000000	1.169303
4800.000000	1.169383
4798.000000	1.169399
4796.000000	1.169326
4794.000000	1.169020
4792.000000	1.168538
4790.000000	1.168123
4788.000000	1.167816
4786.000000	1.167575
4784.000000	1.167341
4782.000000	1.167156
4780.000000	1.166902
4778.000000	1.166529
4776.000000	1.166102
4774.000000	1.165802
4772.000000	1.165639
4770.000000	1.165516
4768.000000	1.165330
4766.000000	1.165048
4764.000000	1.164597
4762.000000	1.164175
4760.000000	1.163961
4758.000000	1.163966
4756.000000	1.164061
4754.000000	1.163957
4752.000000	1.163473
4750.000000	1.162755
4748.000000	1.162362
4746.000000	1.162345
4744.000000	1.162306
4742.000000	1.162192
4740.000000	1.162053
4738.000000	1.161831
4736.000000	1.161597
4734.000000	1.161425
4732.000000	1.161137
4730.000000	1.160886
4728.000000	1.160660
4726.000000	1.160223
4724.000000	1.159871
4722.000000	1.159852
4720.000000	1.159760
4718.000000	1.159374
4716.000000	1.159075
4714.000000	1.159060
4712.000000	1.158903
4710.000000	1.158377
4708.000000	1.157966
4706.000000	1.158050
4704.000000	1.158238
4702.000000	1.158100
4700.000000	1.157680
4698.000000	1.157347
4696.000000	1.157155
4694.000000	1.156887
4692.000000	1.156627
4690.000000	1.156590
4688.000000	1.156566
4686.000000	1.156322
4684.000000	1.155948
4682.000000	1.155752
4680.000000	1.155766
4678.000000	1.155602
4676.000000	1.155216
4674.000000	1.155071
4672.000000	1.154998
4670.000000	1.154742
4668.000000	1.154536
4666.000000	1.154469
4664.000000	1.154419
4662.000000	1.154352
4660.000000	1.154044
4658.000000	1.153612
4656.000000	1.153527
4654.000000	1.153699
4652.000000	1.153750
4650.000000	1.153682
4648.000000	1.153500
4646.000000	1.153087
4644.000000	1.152632
4642.000000	1.152495
4640.000000	1.152540
4638.000000	1.152579
4636.000000	1.152561
4634.000000	1.152492
4632.000000	1.152308
4630.000000	1.152066
4628.000000	1.151865
4626.000000	1.151724
4624.000000	1.151580
4622.000000	1.151411
4620.000000	1.151177
4618.000000	1.150974
4616.000000	1.150985
4614.000000	1.150992
4612.000000	1.150685
4610.000000	1.150337
4608.000000	1.150106
4606.000000	1.149909
4604.000000	1.149880
4602.000000	1.149954
4600.000000	1.149850
4598.000000	1.149819
4596.000000	1.149896
4594.000000	1.149665
4592.000000	1.149361
4590.000000	1.149430
4588.000000	1.149529
4586.000000	1.149435
4584.000000	1.149268
4582.000000	1.149070
4580.000000	1.148815
4578.000000	1.148750
4576.000000	1.148721
4574.000000	1.148552
4572.000000	1.148309
4570.000000	1.148206
4568.000000	1.148094
4566.000000	1.148117
4564.000000	1.148271
4562.000000	1.148176
4560.000000	1.147910
4558.000000	1.147894
4556.000000	1.147874
4554.000000	1.147580
4552.000000	1.147492
4550.000000	1.147669
4548.000000	1.147643
4546.000000	1.147375
4544.000000	1.147195
4542.000000	1.147153
4540.000000	1.147161
4538.000000	1.147100
4536.000000	1.146860
4534.000000	1.146655
4532.000000	1.146697
4530.000000	1.146830
4528.000000	1.146766
4526.000000	1.146539
4524.000000	1.146259
4522.000000	1.146078
4520.000000	1.146175
4518.000000	1.146336
4516.000000	1.146171
4514.000000	1.146022
4512.000000	1.146189
4510.000000	1.146241
4508.000000	1.146027
4506.000000	1.145899
4504.000000	1.145786
4502.000000	1.145580
4500.000000	1.145481
4498.000000	1.145475
4496.000000	1.145310
4494.000000	1.145119
4492.000000	1.145123
4490.000000	1.145157
4488.000000	1.144980
4486.000000	1.144713
4484.000000	1.144638
4482.000000	1.144889
4480.000000	1.145010
4478.000000	1.144683
4476.000000	1.144358
4474.000000	1.144387
4472.000000	1.144456
4470.000000	1.144444
4468.000000	1.144377
4466.000000	1.144197
4464.000000	1.144043
4462.000000	1.144049
4460.000000	1.144128
4458.000000	1.144164
4456.000000	1.144054
4454.000000	1.143871
4452.000000	1.143836
4450.000000	1.143843
4448.000000	1.143800
4446.000000	1.143736
4444.000000	1.143621
4442.000000	1.143539
4440.000000	1.143538
4438.000000	1.143556
4436.000000	1.143692
4434.000000	1.143790
4432.000000	1.143625
4430.000000	1.143278
4428.000000	1.143148
4426.000000	1.143299
4424.000000	1.143347
4422.000000	1.143245
4420.000000	1.143282
4418.000000	1.143333
4416.000000	1.143328
4414.000000	1.143296
4412.000000	1.143236
4410.000000	1.143256
4408.000000	1.143162
4406.000000	1.142897
4404.000000	1.142848
4402.000000	1.143087
4400.000000	1.143231
4398.000000	1.143206
4396.000000	1.143132
4394.000000	1.143189
4392.000000	1.143272
4390.000000	1.143097
4388.000000	1.142803
4386.000000	1.142751
4384.000000	1.142868
4382.000000	1.143030
4380.000000	1.143225
4378.000000	1.143304
4376.000000	1.143290
4374.000000	1.143354
4372.000000	1.143405
4370.000000	1.143410
4368.000000	1.143532
4366.000000	1.143690
4364.000000	1.143660
4362.000000	1.143712
4360.000000	1.143852
4358.000000	1.143813
4356.000000	1.143726
4354.000000	1.143745
4352.000000	1.143717
4350.000000	1.143703
4348.000000	1.143747
4346.000000	1.143788
4344.000000	1.143842
4342.000000	1.143906
4340.000000	1.143986
4338.000000	1.144117
4336.000000	1.144178
4334.000000	1.144120
4332.000000	1.144147
4330.000000	1.144377
4328.000000	1.144545
4326.000000	1.144579
4324.000000	1.144613
4322.000000	1.144626
4320.000000	1.144556
4318.000000	1.144576
4316.000000	1.144777
4314.000000	1.144992
4312.000000	1.145018
4310.000000	1.144944
4308.000000	1.144922
4306.000000	1.144898
4304.000000	1.144882
4302.000000	1.145046
4300.000000	1.145182
4298.000000	1.145101
4296.000000	1.145075
4294.000000	1.145151
4292.000000	1.145217
4290.000000	1.145326
4288.000000	1.145494
4286.000000	1.145702
4284.000000	1.145790
4282.000000	1.145732
4280.000000	1.145776
4278.000000	1.145883
4276.000000	1.145960
4274.000000	1.146078
4272.000000	1.146174
4270.000000	1.146126
4268.000000	1.146087
4266.000000	1.146302
4264.000000	1.146556
4262.000000	1.146619
4260.000000	1.146568
4258.000000	1.146530
4256.000000	1.146656
4254.000000	1.146797
4252.000000	1.146586
4250.000000	1.146402
4248.000000	1.146722
4246.000000	1.147096
4244.000000	1.147060
4242.000000	1.146987
4240.000000	1.147035
4238.000000	1.146936
4236.000000	1.146827
4234.000000	1.146942
4232.000000	1.147102
4230.000000	1.147180
4228.000000	1.147252
4226.000000	1.147351
4224.000000	1.147445
4222.000000	1.147514
4220.000000	1.147612
4218.000000	1.147714
4216.000000	1.147701
4214.000000	1.147729
4212.000000	1.147940
4210.000000	1.147976
4208.000000	1.147666
4206.000000	1.147424
4204.000000	1.147421
4202.000000	1.147534
4200.000000	1.147732
4198.000000	1.147829
4196.000000	1.147664
4194.000000	1.147526
4192.000000	1.147641
4190.000000	1.147877
4188.000000	1.148022
4186.000000	1.147963
4184.000000	1.147757
4182.000000	1.147646
4180.000000	1.147678
4178.000000	1.147774
4176.000000	1.147777
4174.000000	1.147790
4172.000000	1.147824
4170.000000	1.147770
4168.000000	1.147842
4166.000000	1.147973
4164.000000	1.147900
4162.000000	1.147856
4160.000000	1.147850
4158.000000	1.147861
4156.000000	1.147947
4154.000000	1.147952
4152.000000	1.147820
4150.000000	1.147657
4148.000000	1.147675
4146.000000	1.147843
4144.000000	1.147904
4142.000000	1.147889
4140.000000	1.147963
4138.000000	1.148005
4136.000000	1.147885
4134.000000	1.147855
4132.000000	1.147961
4130.000000	1.147871
4128.000000	1.147618
4126.000000	1.147485
4124.000000	1.147676
4122.000000	1.148045
4120.000000	1.148134
4118.000000	1.147971
4116.000000	1.147856
4114.000000	1.147743
4112.000000	1.147658
4110.000000	1.147756
4108.000000	1.147812
4106.000000	1.147725
4104.000000	1.147776
4102.000000	1.147979
4100.000000	1.148020
4098.000000	1.147900
4096.000000	1.147867
4094.000000	1.147919
4092.000000	1.147908
4090.000000	1.147799
4088.000000	1.147724
4086.000000	1.147726
4084.000000	1.147712
4082.000000	1.147828
4080.000000	1.148060
4078.000000	1.148102
4076.000000	1.148049
4074.000000	1.148066
4072.000000	1.148082
4070.000000	1.148086
4068.000000	1.148091
4066.000000	1.147997
4064.000000	1.147820
4062.000000	1.147736
4060.000000	1.147902
4058.000000	1.148152
4056.000000	1.148275
4054.000000	1.148273
4052.000000	1.148306
4050.000000	1.148421
4048.000000	1.148484
4046.000000	1.148429
4044.000000	1.148336
4042.000000	1.148227
4040.000000	1.148194
4038.000000	1.148286
4036.000000	1.148283
4034.000000	1.148133
4032.000000	1.148082
4030.000000	1.148094
4028.000000	1.148066
4026.000000	1.148129
4024.000000	1.148287
4022.000000	1.148343
4020.000000	1.148248
4018.000000	1.148183
4016.000000	1.148092
4014.000000	1.148016
4012.000000	1.148088
4010.000000	1.148124
4008.000000	1.148020
4006.000000	1.147904
4004.000000	1.147860
4002.000000	1.147782
4000.000000	1.147662
3998.000000	1.147656
3996.000000	1.147690
3994.000000	1.147705
3992.000000	1.147659
3990.000000	1.147565
3988.000000	1.147501
3986.000000	1.147378
3984.000000	1.147115
3982.000000	1.146905
3980.000000	1.146882
3978.000000	1.146814
3976.000000	1.146614
3974.000000	1.146485
3972.000000	1.146364
3970.000000	1.146213
3968.000000	1.146137
3966.000000	1.145999
3964.000000	1.145819
3962.000000	1.145794
3960.000000	1.145622
3958.000000	1.145215
3956.000000	1.144998
3954.000000	1.144962
3952.000000	1.144779
3950.000000	1.144415
3948.000000	1.144015
3946.000000	1.143776
3944.000000	1.143589
3942.000000	1.143369
3940.000000	1.143232
3938.000000	1.142953
3936.000000	1.142542
3934.000000	1.142184
3932.000000	1.141738
3930.000000	1.141427
3928.000000	1.141368
3926.000000	1.141008
3924.000000	1.140482
3922.000000	1.140312
3920.000000	1.140065
3918.000000	1.139426
3916.000000	1.138880
3914.000000	1.138690
3912.000000	1.138561
3910.000000	1.138409
3908.000000	1.138280
3906.000000	1.137848
3904.000000	1.137041
3902.000000	1.136291
3900.000000	1.135783
3898.000000	1.135609
3896.000000	1.135815
3894.000000	1.135821
3892.000000	1.135112
3890.000000	1.134655
3888.000000	1.134636
3886.000000	1.133940
3884.000000	1.133454
3882.000000	1.133504
3880.000000	1.133084
3878.000000	1.132866
3876.000000	1.132911
3874.000000	1.132814
3872.000000	1.132343
3870.000000	1.131302
3868.000000	1.130955
3866.000000	1.131120
3864.000000	1.130746
3862.000000	1.130471
3860.000000	1.130704
3858.000000	1.131345
3856.000000	1.130918
3854.000000	1.128492
3852.000000	1.127072
3850.000000	1.128012
3848.000000	1.129108
3846.000000	1.129425
3844.000000	1.129292
3842.000000	1.129255
3840.000000	1.128951
3838.000000	1.127819
3836.000000	1.127240
3834.000000	1.127518
3832.000000	1.127597
3830.000000	1.127688
3828.000000	1.127831
3826.000000	1.127989
3824.000000	1.127991
3822.000000	1.126999
3820.000000	1.126523
3818.000000	1.126843
3816.000000	1.126184
3814.000000	1.126018
3812.000000	1.126880
3810.000000	1.127213
3808.000000	1.126427
3806.000000	1.125985
3804.000000	1.126524
3802.000000	1.125928
3800.000000	1.125360
3798.000000	1.125918
3796.000000	1.126052
3794.000000	1.126107
3792.000000	1.126372
3790.000000	1.126521
3788.000000	1.126633
3786.000000	1.126561
3784.000000	1.126502
3782.000000	1.126517
3780.000000	1.126321
3778.000000	1.126165
3776.000000	1.126369
3774.000000	1.126756
3772.000000	1.126835
3770.000000	1.126508
3768.000000	1.126389
3766.000000	1.126437
3764.000000	1.126574
3762.000000	1.126764
3760.000000	1.126645
3758.000000	1.126510
3756.000000	1.126909
3754.000000	1.127077
3752.000000	1.126153
3750.000000	1.125374
3748.000000	1.126191
3746.000000	1.126402
3744.000000	1.125109
3742.000000	1.125647
3740.000000	1.127198
3738.000000	1.127422
3736.000000	1.126907
3734.000000	1.126661
3732.000000	1.126724
3730.000000	1.127221
3728.000000	1.127808
3726.000000	1.128013
3724.000000	1.128253
3722.000000	1.128558
3720.000000	1.128935
3718.000000	1.129392
3716.000000	1.130037
3714.000000	1.130417
3712.000000	1.130254
3710.000000	1.130669
3708.000000	1.131798
3706.000000	1.132751
3704.000000	1.133406
3702.000000	1.133915
3700.000000	1.134686
3698.000000	1.135806
3696.000000	1.136986
3694.000000	1.138121
3692.000000	1.139141
3690.000000	1.139562
3688.000000	1.139817
3686.000000	1.141414
3684.000000	1.143650
3682.000000	1.145545
3680.000000	1.147472
3678.000000	1.149085
3676.000000	1.149804
3674.000000	1.151448
3672.000000	1.153883
3670.000000	1.155380
3668.000000	1.157431
3666.000000	1.160166
3664.000000	1.162580
3662.000000	1.164806
3660.000000	1.167000
3658.000000	1.168667
3656.000000	1.170023
3654.000000	1.172391
3652.000000	1.174789
3650.000000	1.175686
3648.000000	1.176613
3646.000000	1.178869
3644.000000	1.181411
3642.000000	1.183363
3640.000000	1.185000
3638.000000	1.186530
3636.000000	1.187985
3634.000000	1.189590
3632.000000	1.191333
3630.000000	1.191799
3628.000000	1.191893
3626.000000	1.193612
3624.000000	1.195630
3622.000000	1.196943
3620.000000	1.197511
3618.000000	1.198055
3616.000000	1.199251
3614.000000	1.200442
3612.000000	1.201379
3610.000000	1.201904
3608.000000	1.202281
3606.000000	1.203285
3604.000000	1.204373
3602.000000	1.205140
3600.000000	1.205810
3598.000000	1.206412
3596.000000	1.206834
3594.000000	1.207252
3592.000000	1.208062
3590.000000	1.208874
3588.000000	1.209021
3586.000000	1.209081
3584.000000	1.209724
3582.000000	1.210483
3580.000000	1.211008
3578.000000	1.211319
3576.000000	1.211557
3574.000000	1.211873
3572.000000	1.212384
3570.000000	1.212847
3568.000000	1.212696
3566.000000	1.212507
3564.000000	1.212861
3562.000000	1.213280
3560.000000	1.213556
3558.000000	1.213971
3556.000000	1.214388
3554.000000	1.214634
3552.000000	1.214840
3550.000000	1.215119
3548.000000	1.215291
3546.000000	1.215250
3544.000000	1.215439
3542.000000	1.215893
3540.000000	1.216216
3538.000000	1.216351
3536.000000	1.216403
3534.000000	1.216581
3532.000000	1.216952
3530.000000	1.217166
3528.000000	1.217267
3526.000000	1.217476
3524.000000	1.217613
3522.000000	1.217831
3520.000000	1.218092
3518.000000	1.218054
3516.000000	1.218115
3514.000000	1.218412
3512.000000	1.218694
3510.000000	1.218971
3508.000000	1.219299
3506.000000	1.219587
3504.000000	1.219673
3502.000000	1.219856
3500.000000	1.220186
3498.000000	1.220302
3496.000000	1.220379
3494.000000	1.220563
3492.000000	1.220744
3490.000000	1.220954
3488.000000	1.221179
3486.000000	1.221309
3484.000000	1.221407
3482.000000	1.221480
3480.000000	1.221482
3478.000000	1.221629
3476.000000	1.221977
3474.000000	1.222225
3472.000000	1.222185
3470.000000	1.222259
3468.000000	1.222479
3466.000000	1.222562
3464.000000	1.222698
3462.000000	1.223065
3460.000000	1.223437
3458.000000	1.223660
3456.000000	1.223858
3454.000000	1.224045
3452.000000	1.224236
3450.000000	1.224309
3448.000000	1.224371
3446.000000	1.224563
3444.000000	1.224790
3442.000000	1.225001
3440.000000	1.225211
3438.000000	1.225309
3436.000000	1.225322
3434.000000	1.225361
3432.000000	1.225519
3430.000000	1.225696
3428.000000	1.225898
3426.000000	1.226108
3424.000000	1.226197
3422.000000	1.226362
3420.000000	1.226545
3418.000000	1.226671
3416.000000	1.226867
3414.000000	1.227096
3412.000000	1.227290
3410.000000	1.227495
3408.000000	1.227650
3406.000000	1.227486
3404.000000	1.227308
3402.000000	1.227477
3400.000000	1.227776
3398.000000	1.227882
3396.000000	1.227954
3394.000000	1.228125
3392.000000	1.228210
3390.000000	1.228224
3388.000000	1.228235
3386.000000	1.228245
3384.000000	1.228343
3382.000000	1.228491
3380.000000	1.228647
3378.000000	1.228768
3376.000000	1.228763
3374.000000	1.228747
3372.000000	1.228844
3370.000000	1.228909
3368.000000	1.228898
3366.000000	1.228911
3364.000000	1.228897
3362.000000	1.228914
3360.000000	1.229048
3358.000000	1.229173
3356.000000	1.229212
3354.000000	1.229155
3352.000000	1.229095
3350.000000	1.229034
3348.000000	1.229031
3346.000000	1.229142
3344.000000	1.229192
3342.000000	1.229244
3340.000000	1.229291
3338.000000	1.229247
3336.000000	1.229248
3334.000000	1.229404
3332.000000	1.229533
3330.000000	1.229510
3328.000000	1.229512
3326.000000	1.229523
3324.000000	1.229495
3322.000000	1.229535
3320.000000	1.229695
3318.000000	1.229720
3316.000000	1.229666
3314.000000	1.229777
3312.000000	1.229838
3310.000000	1.229922
3308.000000	1.229998
3306.000000	1.229960
3304.000000	1.230064
3302.000000	1.230218
3300.000000	1.230255
3298.000000	1.230298
3296.000000	1.230466
3294.000000	1.230617
3292.000000	1.230662
3290.000000	1.230628
3288.000000	1.230524
3286.000000	1.230367
3284.000000	1.230387
3282.000000	1.230719
3280.000000	1.230906
3278.000000	1.230883
3276.000000	1.231051
3274.000000	1.231189
3272.000000	1.231130
3270.000000	1.231055
3268.000000	1.230991
3266.000000	1.231056
3264.000000	1.231326
3262.000000	1.231600
3260.000000	1.231631
3258.000000	1.231431
3256.000000	1.231422
3254.000000	1.231568
3252.000000	1.231604
3250.000000	1.231553
3248.000000	1.231540
3246.000000	1.231588
3244.000000	1.231638
3242.000000	1.231659
3240.000000	1.231633
3238.000000	1.231697
3236.000000	1.231790
3234.000000	1.231775
3232.000000	1.231862
3230.000000	1.232043
3228.000000	1.232136
3226.000000	1.232125
3224.000000	1.232110
3222.000000	1.232101
3220.000000	1.232159
3218.000000	1.232225
3216.000000	1.232263
3214.000000	1.232322
3212.000000	1.232314
3210.000000	1.232297
3208.000000	1.232383
3206.000000	1.232345
3204.000000	1.232224
3202.000000	1.232237
3200.000000	1.232304
3198.000000	1.232272
3196.000000	1.232311
3194.000000	1.232322
3192.000000	1.232280
3190.000000	1.232434
3188.000000	1.232529
3186.000000	1.232361
3184.000000	1.232231
3182.000000	1.232261
3180.000000	1.232271
3178.000000	1.232196
3176.000000	1.232247
3174.000000	1.232396
3172.000000	1.232489
3170.000000	1.232495
3168.000000	1.232477
3166.000000	1.232429
3164.000000	1.232248
3162.000000	1.232143
3160.000000	1.232293
3158.000000	1.232440
3156.000000	1.232403
3154.000000	1.232341
3152.000000	1.232252
3150.000000	1.232283
3148.000000	1.232431
3146.000000	1.232444
3144.000000	1.232309
3142.000000	1.232224
3140.000000	1.232255
3138.000000	1.232232
3136.000000	1.232142
3134.000000	1.232132
3132.000000	1.232172
3130.000000	1.232058
3128.000000	1.232027
3126.000000	1.232229
3124.000000	1.232373
3122.000000	1.232360
3120.000000	1.232362
3118.000000	1.232369
3116.000000	1.232325
3114.000000	1.232430
3112.000000	1.232487
3110.000000	1.232283
3108.000000	1.232264
3106.000000	1.232385
3104.000000	1.232404
3102.000000	1.232326
3100.000000	1.232216
3098.000000	1.232137
3096.000000	1.232189
3094.000000	1.232148
3092.000000	1.232014
3090.000000	1.232025
3088.000000	1.232064
3086.000000	1.232074
3084.000000	1.232114
3082.000000	1.232183
3080.000000	1.232122
3078.000000	1.231856
3076.000000	1.231783
3074.000000	1.231997
3072.000000	1.232023
3070.000000	1.231997
3068.000000	1.232054
3066.000000	1.231881
3064.000000	1.231769
3062.000000	1.231797
3060.000000	1.231698
3058.000000	1.231707
3056.000000	1.231706
3054.000000	1.231590
3052.000000	1.231582
3050.000000	1.231437
3048.000000	1.231179
3046.000000	1.231085
3044.000000	1.231174
3042.000000	1.231223
3040.000000	1.231111
3038.000000	1.230965
3036.000000	1.230755
3034.000000	1.230512
3032.000000	1.230501
3030.000000	1.230513
3028.000000	1.230357
3026.000000	1.230403
3024.000000	1.230479
3022.000000	1.230194
3020.000000	1.229924
3018.000000	1.229623
3016.000000	1.229197
3014.000000	1.228911
3012.000000	1.228814
3010.000000	1.228737
3008.000000	1.228650
3006.000000	1.228562
3004.000000	1.228394
3002.000000	1.228098
3000.000000	1.227774
2998.000000	1.227594
2996.000000	1.227520
2994.000000	1.227298
2992.000000	1.226955
2990.000000	1.226759
2988.000000	1.226596
2986.000000	1.226384
2984.000000	1.226241
2982.000000	1.226092
2980.000000	1.225855
2978.000000	1.225690
2976.000000	1.225507
2974.000000	1.225286
2972.000000	1.225218
2970.000000	1.225187
2968.000000	1.225001
2966.000000	1.224681
2964.000000	1.224272
2962.000000	1.223777
2960.000000	1.223117
2958.000000	1.222477
2956.000000	1.221916
2954.000000	1.221436
2952.000000	1.221108
2950.000000	1.220817
2948.000000	1.220376
2946.000000	1.220016
2944.000000	1.219854
2942.000000	1.219694
2940.000000	1.219291
2938.000000	1.218757
2936.000000	1.218303
2934.000000	1.217913
2932.000000	1.217604
2930.000000	1.217116
2928.000000	1.216543
2926.000000	1.215941
2924.000000	1.215132
2922.000000	1.214341
2920.000000	1.213843
2918.000000	1.213503
2916.000000	1.213150
2914.000000	1.212786
2912.000000	1.212545
2910.000000	1.212361
2908.000000	1.212070
2906.000000	1.211821
2904.000000	1.211477
2902.000000	1.211081
2900.000000	1.210745
2898.000000	1.210417
2896.000000	1.210081
2894.000000	1.209772
2892.000000	1.209478
2890.000000	1.209093
2888.000000	1.208670
2886.000000	1.208353
2884.000000	1.208097
2882.000000	1.207822
2880.000000	1.207605
2878.000000	1.207351
2876.000000	1.206937
2874.000000	1.206573
2872.000000	1.206355
2870.000000	1.206156
2868.000000	1.205890
2866.000000	1.205497
2864.000000	1.205096
2862.000000	1.204689
2860.000000	1.204275
2858.000000	1.203835
2856.000000	1.203317
2854.000000	1.202942
2852.000000	1.202605
2850.000000	1.202260
2848.000000	1.202018
2846.000000	1.201909
2844.000000	1.201770
2842.000000	1.201535
2840.000000	1.201374
2838.000000	1.201271
2836.000000	1.201185
2834.000000	1.200936
2832.000000	1.200620
2830.000000	1.200504
2828.000000	1.200364
2826.000000	1.200116
2824.000000	1.199785
2822.000000	1.199508
2820.000000	1.199340
2818.000000	1.199209
2816.000000	1.199094
2814.000000	1.198988
2812.000000	1.198842
2810.000000	1.198615
2808.000000	1.198308
2806.000000	1.198049
2804.000000	1.197836
2802.000000	1.197747
2800.000000	1.197653
2798.000000	1.197411
2796.000000	1.197227
2794.000000	1.197093
2792.000000	1.196978
2790.000000	1.196835
2788.000000	1.196629
2786.000000	1.196532
2784.000000	1.196446
2782.000000	1.196281
2780.000000	1.196132
2778.000000	1.196055
2776.000000	1.196002
2774.000000	1.195898
2772.000000	1.195679
2770.000000	1.195496
2768.000000	1.195414
2766.000000	1.195418
2764.000000	1.195356
2762.000000	1.195183
2760.000000	1.195038
2758.000000	1.194881
2756.000000	1.194761
2754.000000	1.194744
2752.000000	1.194750
2750.000000	1.194700
2748.000000	1.194571
2746.000000	1.194429
2744.000000	1.194468
2742.000000	1.194516
2740.000000	1.194459
2738.000000	1.194322
2736.000000	1.194229
2734.000000	1.194184
2732.000000	1.194153
2730.000000	1.194044
2728.000000	1.193928
2726.000000	1.193962
2724.000000	1.194042
2722.000000	1.194079
2720.000000	1.194034
2718.000000	1.193993
2716.000000	1.194037
2714.000000	1.194066
2712.000000	1.194110
2710.000000	1.194031
2708.000000	1.193956
2706.000000	1.194018
2704.000000	1.193999
2702.000000	1.193976
2700.000000	1.193984
2698.000000	1.194031
2696.000000	1.194080
2694.000000	1.194150
2692.000000	1.194206
2690.000000	1.194225
2688.000000	1.194245
2686.000000	1.194298
2684.000000	1.194386
2682.000000	1.194377
2680.000000	1.194360
2678.000000	1.194518
2676.000000	1.194705
2674.000000	1.194777
2672.000000	1.194797
2670.000000	1.194835
2668.000000	1.194989
2666.000000	1.195235
2664.000000	1.195392
2662.000000	1.195420
2660.000000	1.195380
2658.000000	1.195410
2656.000000	1.195555
2654.000000	1.195805
2652.000000	1.195986
2650.000000	1.196078
2648.000000	1.196308
2646.000000	1.196571
2644.000000	1.196686
2642.000000	1.196850
2640.000000	1.197046
2638.000000	1.197115
2636.000000	1.197258
2634.000000	1.197491
2632.000000	1.197643
2630.000000	1.197796
2628.000000	1.198006
2626.000000	1.198262
2624.000000	1.198428
2622.000000	1.198546
2620.000000	1.198684
2618.000000	1.198878
2616.000000	1.199188
2614.000000	1.199387
2612.000000	1.199509
2610.000000	1.199726
2608.000000	1.200106
2606.000000	1.200420
2604.000000	1.200553
2602.000000	1.200701
2600.000000	1.200925
2598.000000	1.201179
2596.000000	1.201435
2594.000000	1.201696
2592.000000	1.201884
2590.000000	1.202038
2588.000000	1.202210
2586.000000	1.202527
2584.000000	1.202841
2582.000000	1.203040
2580.000000	1.203248
2578.000000	1.203501
2576.000000	1.203812
2574.000000	1.204084
2572.000000	1.204361
2570.000000	1.204625
2568.000000	1.204883
2566.000000	1.205180
2564.000000	1.205499
2562.000000	1.205814
2560.000000	1.206121
2558.000000	1.206434
2556.000000	1.206667
2554.000000	1.206919
2552.000000	1.207226
2550.000000	1.207562
2548.000000	1.207923
2546.000000	1.208258
2544.000000	1.208661
2542.000000	1.209149
2540.000000	1.209485
2538.000000	1.209768
2536.000000	1.210111
2534.000000	1.210427
2532.000000	1.210731
2530.000000	1.211055
2528.000000	1.211416
2526.000000	1.211764
2524.000000	1.212066
2522.000000	1.212492
2520.000000	1.212971
2518.000000	1.213351
2516.000000	1.213656
2514.000000	1.213973
2512.000000	1.214303
2510.000000	1.214663
2508.000000	1.215163
2506.000000	1.215549
2504.000000	1.215857
2502.000000	1.216190
2500.000000	1.216465
2498.000000	1.216757
2496.000000	1.217071
2494.000000	1.217382
2492.000000	1.217672
2490.000000	1.217860
2488.000000	1.218011
2486.000000	1.218200
2484.000000	1.218458
2482.000000	1.218676
2480.000000	1.218936
2478.000000	1.219339
2476.000000	1.219677
2474.000000	1.219862
2472.000000	1.219975
2470.000000	1.220080
2468.000000	1.220174
2466.000000	1.220350
2464.000000	1.220637
2462.000000	1.220809
2460.000000	1.220946
2458.000000	1.221174
2456.000000	1.221225
2454.000000	1.221252
2452.000000	1.221401
2450.000000	1.221491
2448.000000	1.221487
2446.000000	1.221382
2444.000000	1.221221
2442.000000	1.221262
2440.000000	1.221452
2438.000000	1.221410
2436.000000	1.221287
2434.000000	1.221189
2432.000000	1.221153
2430.000000	1.221052
2428.000000	1.220928
2426.000000	1.220851
2424.000000	1.220774
2422.000000	1.220737
2420.000000	1.220561
2418.000000	1.220255
2416.000000	1.220150
2414.000000	1.220077
2412.000000	1.219829
2410.000000	1.219644
2408.000000	1.219496
2406.000000	1.219271
2404.000000	1.219189
2402.000000	1.219269
2400.000000	1.219206
2398.000000	1.219074
2396.000000	1.218947
2394.000000	1.218704
2392.000000	1.218505
2390.000000	1.218482
2388.000000	1.218485
2386.000000	1.218370
2384.000000	1.218313
2382.000000	1.218423
2380.000000	1.218648
2378.000000	1.218858
2376.000000	1.219002
2374.000000	1.219073
2372.000000	1.219135
2370.000000	1.219219
2368.000000	1.219343
2366.000000	1.219289
2364.000000	1.219148
2362.000000	1.219201
2360.000000	1.219361
2358.000000	1.219513
2356.000000	1.219700
2354.000000	1.220012
2352.000000	1.220582
2350.000000	1.221294
2348.000000	1.221831
2346.000000	1.222102
2344.000000	1.222505
2342.000000	1.223083
2340.000000	1.223341
2338.000000	1.222812
2336.000000	1.221918
2334.000000	1.221411
2332.000000	1.221313
2330.000000	1.221330
2328.000000	1.221402
2326.000000	1.221540
2324.000000	1.221713
2322.000000	1.221728
2320.000000	1.221857
2318.000000	1.222071
2316.000000	1.222121
2314.000000	1.222306
2312.000000	1.222519
2310.000000	1.222602
2308.000000	1.222717
2306.000000	1.222791
2304.000000	1.222976
2302.000000	1.223161
2300.000000	1.223255
2298.000000	1.223397
2296.000000	1.223517
2294.000000	1.223668
2292.000000	1.223897
2290.000000	1.223937
2288.000000	1.223877
2286.000000	1.224009
2284.000000	1.224290
2282.000000	1.224501
2280.000000	1.224635
2278.000000	1.224722
2276.000000	1.224819
2274.000000	1.224913
2272.000000	1.225027
2270.000000	1.225168
2268.000000	1.225323
2266.000000	1.225379
2264.000000	1.225443
2262.000000	1.225587
2260.000000	1.225672
2258.000000	1.225714
2256.000000	1.225882
2254.000000	1.225997
2252.000000	1.226003
2250.000000	1.226229
2248.000000	1.226446
2246.000000	1.226428
2244.000000	1.226384
2242.000000	1.226489
2240.000000	1.226633
2238.000000	1.226734
2236.000000	1.226781
2234.000000	1.226751
2232.000000	1.226810
2230.000000	1.226978
2228.000000	1.227101
2226.000000	1.227096
2224.000000	1.227040
2222.000000	1.226992
2220.000000	1.227093
2218.000000	1.227293
2216.000000	1.227349
2214.000000	1.227202
2212.000000	1.227142
2210.000000	1.227250
2208.000000	1.227335
2206.000000	1.227314
2204.000000	1.227285
2202.000000	1.227222
2200.000000	1.227181
2198.000000	1.227169
2196.000000	1.227198
2194.000000	1.227236
2192.000000	1.227200
2190.000000	1.227131
2188.000000	1.227184
2186.000000	1.227233
2184.000000	1.227186
2182.000000	1.226999
2180.000000	1.226879
2178.000000	1.226883
2176.000000	1.226819
2174.000000	1.226803
2172.000000	1.226804
2170.000000	1.226728
2168.000000	1.226659
2166.000000	1.226552
2164.000000	1.226363
2162.000000	1.226220
2160.000000	1.226230
2158.000000	1.226132
2156.000000	1.225888
2154.000000	1.225785
2152.000000	1.225655
2150.000000	1.225512
2148.000000	1.225384
2146.000000	1.225152
2144.000000	1.224938
2142.000000	1.224815
2140.000000	1.224769
2138.000000	1.224581
2136.000000	1.224394
2134.000000	1.224271
2132.000000	1.223959
2130.000000	1.223652
2128.000000	1.223563
2126.000000	1.223377
2124.000000	1.223140
2122.000000	1.222909
2120.000000	1.222655
2118.000000	1.222315
2116.000000	1.221908
2114.000000	1.221641
2112.000000	1.221546
2110.000000	1.221430
2108.000000	1.221063
2106.000000	1.220638
2104.000000	1.220361
2102.000000	1.220122
2100.000000	1.219879
2098.000000	1.219600
2096.000000	1.219244
2094.000000	1.218974
2092.000000	1.218749
2090.000000	1.218452
2088.000000	1.218102
2086.000000	1.217677
2084.000000	1.217271
2082.000000	1.216948
2080.000000	1.216632
2078.000000	1.216250
2076.000000	1.215912
2074.000000	1.215605
2072.000000	1.215186
2070.000000	1.214842
2068.000000	1.214546
2066.000000	1.214201
2064.000000	1.213817
2062.000000	1.213351
2060.000000	1.213036
2058.000000	1.212796
2056.000000	1.212458
2054.000000	1.212115
2052.000000	1.211761
2050.000000	1.211356
2048.000000	1.211078
2046.000000	1.210822
2044.000000	1.210453
2042.000000	1.210088
2040.000000	1.209668
2038.000000	1.209297
2036.000000	1.208989
2034.000000	1.208665
2032.000000	1.208396
2030.000000	1.208034
2028.000000	1.207725
2026.000000	1.207485
2024.000000	1.207207
2022.000000	1.206872
2020.000000	1.206501
2018.000000	1.206181
2016.000000	1.205880
2014.000000	1.205619
2012.000000	1.205411
2010.000000	1.205147
2008.000000	1.204826
2006.000000	1.204554
2004.000000	1.204274
2002.000000	1.203969
2000.000000	1.203768
1998.000000	1.203643
1996.000000	1.203491
1994.000000	1.203304
1992.000000	1.203035
1990.000000	1.202740
1988.000000	1.202481
1986.000000	1.202269
1984.000000	1.202119
1982.000000	1.201970
1980.000000	1.201867
1978.000000	1.201747
1976.000000	1.201564
1974.000000	1.201406
1972.000000	1.201219
1970.000000	1.200987
1968.000000	1.200866
1966.000000	1.200900
1964.000000	1.200864
1962.000000	1.200799
1960.000000	1.200733
1958.000000	1.200511
1956.000000	1.200357
1954.000000	1.200246
1952.000000	1.200260
1950.000000	1.200280
1948.000000	1.200219
1946.000000	1.200178
1944.000000	1.200056
1942.000000	1.199752
1940.000000	1.199736
1938.000000	1.199951
1936.000000	1.199998
1934.000000	1.199858
1932.000000	1.199767
1930.000000	1.199770
1928.000000	1.199823
1926.000000	1.199812
1924.000000	1.199758
1922.000000	1.199704
1920.000000	1.199748
1918.000000	1.199584
1916.000000	1.199614
1914.000000	1.199851
1912.000000	1.199914
1910.000000	1.199901
1908.000000	1.199935
1906.000000	1.200004
1904.000000	1.200104
1902.000000	1.200221
1900.000000	1.200291
1898.000000	1.200306
1896.000000	1.200385
1894.000000	1.200416
1892.000000	1.200398
1890.000000	1.200302
1888.000000	1.200244
1886.000000	1.200443
1884.000000	1.200707
1882.000000	1.200792
1880.000000	1.200759
1878.000000	1.200827
1876.000000	1.200987
1874.000000	1.201120
1872.000000	1.201337
1870.000000	1.201329
1868.000000	1.201157
1866.000000	1.201346
1864.000000	1.201641
1862.000000	1.201880
1860.000000	1.202099
1858.000000	1.202250
1856.000000	1.202308
1854.000000	1.202348
1852.000000	1.202469
1850.000000	1.202748
1848.000000	1.203040
1846.000000	1.203225
1844.000000	1.202871
1842.000000	1.203121
1840.000000	1.203765
1838.000000	1.203995
1836.000000	1.204177
1834.000000	1.204441
1832.000000	1.204709
1830.000000	1.204709
1828.000000	1.205004
1826.000000	1.205324
1824.000000	1.205427
1822.000000	1.205956
1820.000000	1.206493
1818.000000	1.206734
1816.000000	1.206934
1814.000000	1.207373
1812.000000	1.207659
1810.000000	1.207865
1808.000000	1.208237
1806.000000	1.208639
1804.000000	1.208971
1802.000000	1.209277
1800.000000	1.209512
1798.000000	1.209948
1796.000000	1.210577
1794.000000	1.210934
1792.000000	1.210769
1790.000000	1.211212
1788.000000	1.212100
1786.000000	1.212616
1784.000000	1.212909
1782.000000	1.213453
1780.000000	1.213857
1778.000000	1.214352
1776.000000	1.214948
1774.000000	1.215220
1772.000000	1.215006
1770.000000	1.215664
1768.000000	1.216434
1766.000000	1.217188
1764.000000	1.217994
1762.000000	1.218123
1760.000000	1.218458
1758.000000	1.219122
1756.000000	1.219623
1754.000000	1.220480
1752.000000	1.220642
1750.000000	1.220623
1748.000000	1.221301
1746.000000	1.222000
1744.000000	1.222525
1742.000000	1.222963
1740.000000	1.223141
1738.000000	1.223706
1736.000000	1.224502
1734.000000	1.223457
1732.000000	1.223647
1730.000000	1.225124
1728.000000	1.225857
1726.000000	1.226318
1724.000000	1.226594
1722.000000	1.226941
1720.000000	1.227297
1718.000000	1.226527
1716.000000	1.226127
1714.000000	1.226951
1712.000000	1.227505
1710.000000	1.227918
1708.000000	1.228102
1706.000000	1.227977
1704.000000	1.228288
1702.000000	1.228592
1700.000000	1.227082
1698.000000	1.227576
1696.000000	1.227351
1694.000000	1.227223
1692.000000	1.228659
1690.000000	1.229122
1688.000000	1.229584
1686.000000	1.229065
1684.000000	1.227233
1682.000000	1.227848
1680.000000	1.229083
1678.000000	1.229585
1676.000000	1.229314
1674.000000	1.228932
1672.000000	1.229546
1670.000000	1.229263
1668.000000	1.229043
1666.000000	1.229707
1664.000000	1.229829
1662.000000	1.229444
1660.000000	1.229790
1658.000000	1.230215
1656.000000	1.230721
1654.000000	1.229089
1652.000000	1.226994
1650.000000	1.228800
1648.000000	1.229879
1646.000000	1.229068
1644.000000	1.229262
1642.000000	1.230014
1640.000000	1.230279
1638.000000	1.230404
1636.000000	1.229349
1634.000000	1.228845
1632.000000	1.229834
1630.000000	1.230202
1628.000000	1.229998
1626.000000	1.230004
1624.000000	1.229900
1622.000000	1.229727
1620.000000	1.230124
1618.000000	1.229759
1616.000000	1.228768
1614.000000	1.229466
1612.000000	1.230208
1610.000000	1.230071
1608.000000	1.229821
1606.000000	1.229552
1604.000000	1.229376
1602.000000	1.229314
1600.000000	1.229349
1598.000000	1.229494
1596.000000	1.229625
1594.000000	1.229634
1592.000000	1.229667
1590.000000	1.229742
1588.000000	1.229875
1586.000000	1.229901
1584.000000	1.229848
1582.000000	1.229820
1580.000000	1.230023
1578.000000	1.229846
1576.000000	1.228488
1574.000000	1.228762
1572.000000	1.229869
1570.000000	1.229393
1568.000000	1.229099
1566.000000	1.229398
1564.000000	1.229823
1562.000000	1.230375
1560.000000	1.228714
1558.000000	1.226939
1556.000000	1.228125
1554.000000	1.228917
1552.000000	1.229303
1550.000000	1.229504
1548.000000	1.229717
1546.000000	1.229695
1544.000000	1.229462
1542.000000	1.229087
1540.000000	1.227683
1538.000000	1.227550
1536.000000	1.229339
1534.000000	1.229519
1532.000000	1.229310
1530.000000	1.229874
1528.000000	1.229986
1526.000000	1.229731
1524.000000	1.229845
1522.000000	1.229252
1520.000000	1.228780
1518.000000	1.229468
1516.000000	1.229689
1514.000000	1.229891
1512.000000	1.229877
1510.000000	1.230235
1508.000000	1.229746
1506.000000	1.228332
1504.000000	1.229174
1502.000000	1.230950
1500.000000	1.231720
1498.000000	1.231565
1496.000000	1.230186
1494.000000	1.229176
1492.000000	1.228562
1490.000000	1.227922
1488.000000	1.228053
1486.000000	1.228696
1484.000000	1.229316
1482.000000	1.229523
1480.000000	1.229654
1478.000000	1.229813
1476.000000	1.229639
1474.000000	1.229308
1472.000000	1.228883
1470.000000	1.229300
1468.000000	1.229796
1466.000000	1.229642
1464.000000	1.229447
1462.000000	1.229845
1460.000000	1.230196
1458.000000	1.229444
1456.000000	1.228370
1454.000000	1.229183
1452.000000	1.229613
1450.000000	1.229128
1448.000000	1.228708
1446.000000	1.228886
1444.000000	1.229267
1442.000000	1.229343
1440.000000	1.229414
1438.000000	1.228997
1436.000000	1.228196
1434.000000	1.228695
1432.000000	1.229158
1430.000000	1.229077
1428.000000	1.229062
1426.000000	1.229180
1424.000000	1.229047
1422.000000	1.228945
1420.000000	1.228415
1418.000000	1.228033
1416.000000	1.228564
1414.000000	1.228902
1412.000000	1.229018
1410.000000	1.229157
1408.000000	1.229220
1406.000000	1.228973
1404.000000	1.228489
1402.000000	1.228200
1400.000000	1.227931
1398.000000	1.227867
1396.000000	1.227891
1394.000000	1.227617
1392.000000	1.227808
1390.000000	1.228020
1388.000000	1.227813
1386.000000	1.227693
1384.000000	1.227732
1382.000000	1.227575
1380.000000	1.227572
1378.000000	1.227470
1376.000000	1.227298
1374.000000	1.227073
1372.000000	1.227001
1370.000000	1.227026
1368.000000	1.226987
1366.000000	1.227077
1364.000000	1.226979
1362.000000	1.226631
1360.000000	1.226596
1358.000000	1.226695
1356.000000	1.226670
1354.000000	1.226596
1352.000000	1.226663
1350.000000	1.226859
1348.000000	1.226848
1346.000000	1.226699
1344.000000	1.226509
1342.000000	1.226372
1340.000000	1.226264
1338.000000	1.226200
1336.000000	1.226280
1334.000000	1.226383
1332.000000	1.226396
1330.000000	1.226353
1328.000000	1.226328
1326.000000	1.226299
1324.000000	1.226374
1322.000000	1.226342
1320.000000	1.226350
1318.000000	1.226351
1316.000000	1.226458
1314.000000	1.226563
1312.000000	1.226310
1310.000000	1.226017
1308.000000	1.225980
1306.000000	1.225936
1304.000000	1.225997
1302.000000	1.226220
1300.000000	1.226359
1298.000000	1.226113
1296.000000	1.225939
1294.000000	1.226013
1292.000000	1.226265
1290.000000	1.226353
1288.000000	1.226282
1286.000000	1.226265
1284.000000	1.226242
1282.000000	1.226334
1280.000000	1.226371
1278.000000	1.226356
1276.000000	1.226397
1274.000000	1.226488
1272.000000	1.226696
1270.000000	1.227012
1268.000000	1.227692
1266.000000	1.228505
1264.000000	1.229227
1262.000000	1.229625
1260.000000	1.229381
1258.000000	1.228649
1256.000000	1.227819
1254.000000	1.227252
1252.000000	1.227051
1250.000000	1.226980
1248.000000	1.226842
1246.000000	1.226817
1244.000000	1.226769
1242.000000	1.226541
1240.000000	1.226377
1238.000000	1.226290
1236.000000	1.226177
1234.000000	1.226064
1232.000000	1.226130
1230.000000	1.226268
1228.000000	1.226228
1226.000000	1.226009
1224.000000	1.225934
1222.000000	1.225888
1220.000000	1.225593
1218.000000	1.225410
1216.000000	1.225678
1214.000000	1.226011
1212.000000	1.225977
1210.000000	1.225689
1208.000000	1.225557
1206.000000	1.225370
1204.000000	1.225284
1202.000000	1.225184
1200.000000	1.225353
1198.000000	1.225786
1196.000000	1.225736
1194.000000	1.225231
1192.000000	1.225279
1190.000000	1.225545
1188.000000	1.225578
1186.000000	1.225434
1184.000000	1.225585
1182.000000	1.225784
1180.000000	1.225564
1178.000000	1.225396
1176.000000	1.225493
1174.000000	1.225694
1172.000000	1.225968
1170.000000	1.225935
1168.000000	1.225726
1166.000000	1.225993
1164.000000	1.226187
1162.000000	1.225983
1160.000000	1.225875
1158.000000	1.225940
1156.000000	1.226025
1154.000000	1.226262
1152.000000	1.226237
1150.000000	1.226044
1148.000000	1.226010
1146.000000	1.226035
1144.000000	1.225929
1142.000000	1.225520
1140.000000	1.225245
1138.000000	1.225557
1136.000000	1.225755
1134.000000	1.225299
1132.000000	1.224773
1130.000000	1.224625
1128.000000	1.224706
1126.000000	1.224722
1124.000000	1.224532
1122.000000	1.224480
1120.000000	1.224589
1118.000000	1.224865
1116.000000	1.224993
1114.000000	1.225463
1112.000000	1.225865
1110.000000	1.225316
1108.000000	1.225026
1106.000000	1.225428
1104.000000	1.225617
1102.000000	1.225852
1100.000000	1.226256
1098.000000	1.226538
1096.000000	1.226780
1094.000000	1.226359
1092.000000	1.225381
1090.000000	1.225199
1088.000000	1.225701
1086.000000	1.225691
1084.000000	1.225250
1082.000000	1.224935
1080.000000	1.224718
1078.000000	1.224079
1076.000000	1.222900
1074.000000	1.221687
1072.000000	1.220979
1070.000000	1.220804
1068.000000	1.220747
1066.000000	1.220465
1064.000000	1.220393
1062.000000	1.220561
1060.000000	1.220421
1058.000000	1.219632
1056.000000	1.219026
1054.000000	1.219015
1052.000000	1.218459
1050.000000	1.216808
1048.000000	1.215344
1046.000000	1.214766
1044.000000	1.214891
1042.000000	1.214405
1040.000000	1.213688
1038.000000	1.213820
1036.000000	1.213996
1034.000000	1.213688
1032.000000	1.213057
1030.000000	1.213337
1028.000000	1.212966
1026.000000	1.211653
1024.000000	1.211492
1022.000000	1.211915
1020.000000	1.210948
1018.000000	1.210035
1016.000000	1.210776
1014.000000	1.210690
1012.000000	1.209816
1010.000000	1.210371
1008.000000	1.209997
1006.000000	1.209126
1004.000000	1.208912
1002.000000	1.208307
1000.000000	1.207724
