PE IR       SUBTECH     SPECTRUM    ASCII       PEDS        4.00        
   -1
TE109A_063_130K.ASC
20/04/21
18:39:52.00
20/04/21
18:39:52.00
Administrator
TE109A, Tuesday, April 21 2020, 063.
1000.000000
#HDR
-1
-1
#GR
cm-1
A
1.0
0.0
6000.000000
-2.000000
2501
8
0.992703
0.916578
#DATA
6000.000000	0.920512
5998.000000	0.920347
5996.000000	0.920318
5994.000000	0.920388
5992.000000	0.920358
5990.000000	0.920502
5988.000000	0.920591
5986.000000	0.920868
5984.000000	0.920656
5982.000000	0.919903
5980.000000	0.919341
5978.000000	0.919412
5976.000000	0.919960
5974.000000	0.920319
5972.000000	0.920339
5970.000000	0.920140
5968.000000	0.919956
5966.000000	0.919901
5964.000000	0.919985
5962.000000	0.920218
5960.000000	0.920371
5958.000000	0.920427
5956.000000	0.920667
5954.000000	0.920704
5952.000000	0.920708
5950.000000	0.920481
5948.000000	0.920409
5946.000000	0.920383
5944.000000	0.920426
5942.000000	0.920585
5940.000000	0.920648
5938.000000	0.920558
5936.000000	0.920404
5934.000000	0.920430
5932.000000	0.920354
5930.000000	0.920187
5928.000000	0.920180
5926.000000	0.920670
5924.000000	0.921113
5922.000000	0.921174
5920.000000	0.921148
5918.000000	0.921254
5916.000000	0.921354
5914.000000	0.921314
5912.000000	0.921160
5910.000000	0.921133
5908.000000	0.921074
5906.000000	0.920841
5904.000000	0.920566
5902.000000	0.920401
5900.000000	0.920491
5898.000000	0.920616
5896.000000	0.920777
5894.000000	0.920830
5892.000000	0.920757
5890.000000	0.920833
5888.000000	0.921019
5886.000000	0.921522
5884.000000	0.921567
5882.000000	0.921175
5880.000000	0.920939
5878.000000	0.921017
5876.000000	0.921019
5874.000000	0.920732
5872.000000	0.920380
5870.000000	0.920448
5868.000000	0.920610
5866.000000	0.920660
5864.000000	0.920765
5862.000000	0.920758
5860.000000	0.920801
5858.000000	0.920761
5856.000000	0.920800
5854.000000	0.920759
5852.000000	0.920862
5850.000000	0.920950
5848.000000	0.921002
5846.000000	0.920817
5844.000000	0.920500
5842.000000	0.920552
5840.000000	0.920748
5838.000000	0.920955
5836.000000	0.920981
5834.000000	0.920999
5832.000000	0.921125
5830.000000	0.921208
5828.000000	0.921129
5826.000000	0.920863
5824.000000	0.920447
5822.000000	0.920273
5820.000000	0.920471
5818.000000	0.920923
5816.000000	0.921146
5814.000000	0.921149
5812.000000	0.921274
5810.000000	0.921606
5808.000000	0.921935
5806.000000	0.922104
5804.000000	0.922084
5802.000000	0.922023
5800.000000	0.921705
5798.000000	0.921431
5796.000000	0.921411
5794.000000	0.921634
5792.000000	0.921810
5790.000000	0.921832
5788.000000	0.921865
5786.000000	0.921919
5784.000000	0.921862
5782.000000	0.921596
5780.000000	0.921600
5778.000000	0.921934
5776.000000	0.922152
5774.000000	0.922051
5772.000000	0.921697
5770.000000	0.921793
5768.000000	0.921873
5766.000000	0.921748
5764.000000	0.921674
5762.000000	0.921937
5760.000000	0.922183
5758.000000	0.921997
5756.000000	0.921772
5754.000000	0.921831
5752.000000	0.922054
5750.000000	0.921950
5748.000000	0.921723
5746.000000	0.921452
5744.000000	0.921429
5742.000000	0.921877
5740.000000	0.922179
5738.000000	0.922299
5736.000000	0.921955
5734.000000	0.921714
5732.000000	0.921737
5730.000000	0.921596
5728.000000	0.921474
5726.000000	0.921505
5724.000000	0.921837
5722.000000	0.922223
5720.000000	0.922252
5718.000000	0.922238
5716.000000	0.922276
5714.000000	0.922291
5712.000000	0.922242
5710.000000	0.922176
5708.000000	0.922216
5706.000000	0.922346
5704.000000	0.922593
5702.000000	0.922563
5700.000000	0.922331
5698.000000	0.922290
5696.000000	0.922578
5694.000000	0.922693
5692.000000	0.922407
5690.000000	0.922211
5688.000000	0.922350
5686.000000	0.922632
5684.000000	0.922749
5682.000000	0.922860
5680.000000	0.922807
5678.000000	0.922689
5676.000000	0.922544
5674.000000	0.922435
5672.000000	0.922343
5670.000000	0.922197
5668.000000	0.922276
5666.000000	0.922463
5664.000000	0.922697
5662.000000	0.922844
5660.000000	0.922876
5658.000000	0.922863
5656.000000	0.922747
5654.000000	0.922722
5652.000000	0.922698
5650.000000	0.922732
5648.000000	0.922772
5646.000000	0.922610
5644.000000	0.922511
5642.000000	0.922537
5640.000000	0.922650
5638.000000	0.922613
5636.000000	0.922237
5634.000000	0.922160
5632.000000	0.922339
5630.000000	0.922721
5628.000000	0.922886
5626.000000	0.922886
5624.000000	0.922721
5622.000000	0.922512
5620.000000	0.922377
5618.000000	0.922278
5616.000000	0.922411
5614.000000	0.922641
5612.000000	0.922819
5610.000000	0.922850
5608.000000	0.922950
5606.000000	0.923375
5604.000000	0.923795
5602.000000	0.923754
5600.000000	0.923426
5598.000000	0.923161
5596.000000	0.922973
5594.000000	0.922895
5592.000000	0.922972
5590.000000	0.923088
5588.000000	0.923002
5586.000000	0.922758
5584.000000	0.922834
5582.000000	0.923117
5580.000000	0.923237
5578.000000	0.923207
5576.000000	0.923194
5574.000000	0.923337
5572.000000	0.923546
5570.000000	0.923606
5568.000000	0.923423
5566.000000	0.923031
5564.000000	0.922747
5562.000000	0.922805
5560.000000	0.923137
5558.000000	0.923406
5556.000000	0.923428
5554.000000	0.923189
5552.000000	0.923146
5550.000000	0.923299
5548.000000	0.923489
5546.000000	0.923511
5544.000000	0.923431
5542.000000	0.923425
5540.000000	0.923423
5538.000000	0.923409
5536.000000	0.923401
5534.000000	0.923422
5532.000000	0.923469
5530.000000	0.923477
5528.000000	0.923457
5526.000000	0.923489
5524.000000	0.923596
5522.000000	0.923683
5520.000000	0.923748
5518.000000	0.923724
5516.000000	0.923853
5514.000000	0.923965
5512.000000	0.924021
5510.000000	0.923793
5508.000000	0.923683
5506.000000	0.923689
5504.000000	0.923808
5502.000000	0.923776
5500.000000	0.923799
5498.000000	0.923872
5496.000000	0.923822
5494.000000	0.923669
5492.000000	0.923699
5490.000000	0.923881
5488.000000	0.924014
5486.000000	0.924056
5484.000000	0.924081
5482.000000	0.923939
5480.000000	0.923581
5478.000000	0.923412
5476.000000	0.923666
5474.000000	0.923976
5472.000000	0.924125
5470.000000	0.924107
5468.000000	0.924068
5466.000000	0.924017
5464.000000	0.923998
5462.000000	0.923932
5460.000000	0.923891
5458.000000	0.923876
5456.000000	0.923862
5454.000000	0.923799
5452.000000	0.923724
5450.000000	0.923735
5448.000000	0.923686
5446.000000	0.923663
5444.000000	0.923637
5442.000000	0.923600
5440.000000	0.923745
5438.000000	0.924043
5436.000000	0.924252
5434.000000	0.924148
5432.000000	0.923974
5430.000000	0.923896
5428.000000	0.923864
5426.000000	0.923851
5424.000000	0.923897
5422.000000	0.924112
5420.000000	0.924297
5418.000000	0.924378
5416.000000	0.924361
5414.000000	0.924290
5412.000000	0.924270
5410.000000	0.924124
5408.000000	0.923954
5406.000000	0.923755
5404.000000	0.923718
5402.000000	0.923906
5400.000000	0.924224
5398.000000	0.924246
5396.000000	0.924143
5394.000000	0.924072
5392.000000	0.924284
5390.000000	0.924416
5388.000000	0.924230
5386.000000	0.924233
5384.000000	0.924346
5382.000000	0.924389
5380.000000	0.924310
5378.000000	0.924413
5376.000000	0.924596
5374.000000	0.924645
5372.000000	0.924607
5370.000000	0.924628
5368.000000	0.924533
5366.000000	0.924566
5364.000000	0.924721
5362.000000	0.924698
5360.000000	0.924409
5358.000000	0.924308
5356.000000	0.924379
5354.000000	0.924394
5352.000000	0.924336
5350.000000	0.924435
5348.000000	0.924630
5346.000000	0.924684
5344.000000	0.924617
5342.000000	0.924538
5340.000000	0.924545
5338.000000	0.924641
5336.000000	0.924648
5334.000000	0.924615
5332.000000	0.924719
5330.000000	0.924838
5328.000000	0.924899
5326.000000	0.924793
5324.000000	0.924679
5322.000000	0.924744
5320.000000	0.924984
5318.000000	0.925175
5316.000000	0.925239
5314.000000	0.925352
5312.000000	0.925489
5310.000000	0.925467
5308.000000	0.925300
5306.000000	0.925376
5304.000000	0.925602
5302.000000	0.925748
5300.000000	0.925719
5298.000000	0.925694
5296.000000	0.925716
5294.000000	0.925622
5292.000000	0.925435
5290.000000	0.925394
5288.000000	0.925478
5286.000000	0.925588
5284.000000	0.925680
5282.000000	0.925759
5280.000000	0.925829
5278.000000	0.925846
5276.000000	0.925913
5274.000000	0.926038
5272.000000	0.926229
5270.000000	0.926373
5268.000000	0.926280
5266.000000	0.926135
5264.000000	0.926140
5262.000000	0.926307
5260.000000	0.926346
5258.000000	0.926440
5256.000000	0.926624
5254.000000	0.926754
5252.000000	0.926792
5250.000000	0.926935
5248.000000	0.927160
5246.000000	0.927215
5244.000000	0.927090
5242.000000	0.926966
5240.000000	0.927010
5238.000000	0.927207
5236.000000	0.927428
5234.000000	0.927505
5232.000000	0.927527
5230.000000	0.927704
5228.000000	0.928029
5226.000000	0.928301
5224.000000	0.928417
5222.000000	0.928453
5220.000000	0.928485
5218.000000	0.928484
5216.000000	0.928469
5214.000000	0.928498
5212.000000	0.928658
5210.000000	0.928874
5208.000000	0.929055
5206.000000	0.929176
5204.000000	0.929340
5202.000000	0.929527
5200.000000	0.929662
5198.000000	0.929644
5196.000000	0.929575
5194.000000	0.929661
5192.000000	0.929890
5190.000000	0.930196
5188.000000	0.930465
5186.000000	0.930583
5184.000000	0.930608
5182.000000	0.930721
5180.000000	0.930981
5178.000000	0.931117
5176.000000	0.931064
5174.000000	0.931044
5172.000000	0.931167
5170.000000	0.931391
5168.000000	0.931526
5166.000000	0.931624
5164.000000	0.931756
5162.000000	0.931907
5160.000000	0.931946
5158.000000	0.932028
5156.000000	0.932222
5154.000000	0.932406
5152.000000	0.932537
5150.000000	0.932662
5148.000000	0.932861
5146.000000	0.933097
5144.000000	0.933378
5142.000000	0.933557
5140.000000	0.933530
5138.000000	0.933426
5136.000000	0.933447
5134.000000	0.933642
5132.000000	0.934012
5130.000000	0.934342
5128.000000	0.934493
5126.000000	0.934379
5124.000000	0.934308
5122.000000	0.934464
5120.000000	0.934666
5118.000000	0.934694
5116.000000	0.934669
5114.000000	0.934839
5112.000000	0.935017
5110.000000	0.935121
5108.000000	0.935212
5106.000000	0.935295
5104.000000	0.935382
5102.000000	0.935489
5100.000000	0.935600
5098.000000	0.935614
5096.000000	0.935609
5094.000000	0.935638
5092.000000	0.935754
5090.000000	0.936037
5088.000000	0.936242
5086.000000	0.936190
5084.000000	0.935979
5082.000000	0.935832
5080.000000	0.935862
5078.000000	0.936016
5076.000000	0.936156
5074.000000	0.936209
5072.000000	0.936351
5070.000000	0.936454
5068.000000	0.936567
5066.000000	0.936607
5064.000000	0.936523
5062.000000	0.936309
5060.000000	0.936284
5058.000000	0.936425
5056.000000	0.936566
5054.000000	0.936578
5052.000000	0.936591
5050.000000	0.936606
5048.000000	0.936721
5046.000000	0.936845
5044.000000	0.936893
5042.000000	0.936883
5040.000000	0.936883
5038.000000	0.937006
5036.000000	0.937138
5034.000000	0.937169
5032.000000	0.937211
5030.000000	0.937320
5028.000000	0.937433
5026.000000	0.937411
5024.000000	0.937283
5022.000000	0.937231
5020.000000	0.937257
5018.000000	0.937405
5016.000000	0.937534
5014.000000	0.937581
5012.000000	0.937548
5010.000000	0.937425
5008.000000	0.937279
5006.000000	0.937301
5004.000000	0.937402
5002.000000	0.937378
5000.000000	0.937382
4998.000000	0.937569
4996.000000	0.937568
4994.000000	0.937423
4992.000000	0.937364
4990.000000	0.937403
4988.000000	0.937536
4986.000000	0.937742
4984.000000	0.937700
4982.000000	0.937435
4980.000000	0.937237
4978.000000	0.937176
4976.000000	0.937231
4974.000000	0.937350
4972.000000	0.937432
4970.000000	0.937472
4968.000000	0.937472
4966.000000	0.937278
4964.000000	0.937047
4962.000000	0.937014
4960.000000	0.937166
4958.000000	0.937320
4956.000000	0.937332
4954.000000	0.937241
4952.000000	0.937173
4950.000000	0.937236
4948.000000	0.937267
4946.000000	0.937207
4944.000000	0.937130
4942.000000	0.937141
4940.000000	0.937232
4938.000000	0.937306
4936.000000	0.937363
4934.000000	0.937359
4932.000000	0.937234
4930.000000	0.937076
4928.000000	0.937029
4926.000000	0.937036
4924.000000	0.937062
4922.000000	0.937196
4920.000000	0.937265
4918.000000	0.937109
4916.000000	0.936830
4914.000000	0.936639
4912.000000	0.936652
4910.000000	0.936818
4908.000000	0.936952
4906.000000	0.936962
4904.000000	0.937000
4902.000000	0.936982
4900.000000	0.936831
4898.000000	0.936656
4896.000000	0.936634
4894.000000	0.936692
4892.000000	0.936703
4890.000000	0.936583
4888.000000	0.936363
4886.000000	0.936251
4884.000000	0.936280
4882.000000	0.936206
4880.000000	0.935972
4878.000000	0.935804
4876.000000	0.935771
4874.000000	0.935831
4872.000000	0.935852
4870.000000	0.935809
4868.000000	0.935669
4866.000000	0.935641
4864.000000	0.935713
4862.000000	0.935767
4860.000000	0.935701
4858.000000	0.935501
4856.000000	0.935283
4854.000000	0.935120
4852.000000	0.935103
4850.000000	0.935056
4848.000000	0.934912
4846.000000	0.934737
4844.000000	0.934750
4842.000000	0.934834
4840.000000	0.934879
4838.000000	0.934850
4836.000000	0.934824
4834.000000	0.934794
4832.000000	0.934779
4830.000000	0.934656
4828.000000	0.934386
4826.000000	0.934204
4824.000000	0.934176
4822.000000	0.934140
4820.000000	0.934038
4818.000000	0.933940
4816.000000	0.933811
4814.000000	0.933714
4812.000000	0.933673
4810.000000	0.933568
4808.000000	0.933395
4806.000000	0.933271
4804.000000	0.933275
4802.000000	0.933290
4800.000000	0.933213
4798.000000	0.933071
4796.000000	0.932974
4794.000000	0.932906
4792.000000	0.932797
4790.000000	0.932729
4788.000000	0.932704
4786.000000	0.932601
4784.000000	0.932430
4782.000000	0.932293
4780.000000	0.932217
4778.000000	0.932047
4776.000000	0.931825
4774.000000	0.931681
4772.000000	0.931632
4770.000000	0.931645
4768.000000	0.931541
4766.000000	0.931411
4764.000000	0.931364
4762.000000	0.931369
4760.000000	0.931239
4758.000000	0.931049
4756.000000	0.930860
4754.000000	0.930703
4752.000000	0.930623
4750.000000	0.930530
4748.000000	0.930399
4746.000000	0.930400
4744.000000	0.930489
4742.000000	0.930427
4740.000000	0.930134
4738.000000	0.929836
4736.000000	0.929727
4734.000000	0.929742
4732.000000	0.929753
4730.000000	0.929680
4728.000000	0.929556
4726.000000	0.929400
4724.000000	0.929341
4722.000000	0.929396
4720.000000	0.929430
4718.000000	0.929315
4716.000000	0.929118
4714.000000	0.928913
4712.000000	0.928721
4710.000000	0.928628
4708.000000	0.928652
4706.000000	0.928679
4704.000000	0.928591
4702.000000	0.928437
4700.000000	0.928260
4698.000000	0.928085
4696.000000	0.927982
4694.000000	0.927997
4692.000000	0.928096
4690.000000	0.928123
4688.000000	0.928023
4686.000000	0.927869
4684.000000	0.927711
4682.000000	0.927595
4680.000000	0.927628
4678.000000	0.927699
4676.000000	0.927604
4674.000000	0.927417
4672.000000	0.927240
4670.000000	0.927213
4668.000000	0.927252
4666.000000	0.927181
4664.000000	0.927089
4662.000000	0.927122
4660.000000	0.927096
4658.000000	0.926958
4656.000000	0.926913
4654.000000	0.926991
4652.000000	0.927024
4650.000000	0.926960
4648.000000	0.926893
4646.000000	0.926798
4644.000000	0.926694
4642.000000	0.926714
4640.000000	0.926722
4638.000000	0.926587
4636.000000	0.926504
4634.000000	0.926456
4632.000000	0.926379
4630.000000	0.926345
4628.000000	0.926361
4626.000000	0.926375
4624.000000	0.926420
4622.000000	0.926302
4620.000000	0.926119
4618.000000	0.926124
4616.000000	0.926179
4614.000000	0.926115
4612.000000	0.926067
4610.000000	0.926047
4608.000000	0.925928
4606.000000	0.925843
4604.000000	0.925831
4602.000000	0.925762
4600.000000	0.925625
4598.000000	0.925615
4596.000000	0.925710
4594.000000	0.925727
4592.000000	0.925630
4590.000000	0.925507
4588.000000	0.925424
4586.000000	0.925427
4584.000000	0.925509
4582.000000	0.925499
4580.000000	0.925379
4578.000000	0.925364
4576.000000	0.925519
4574.000000	0.925565
4572.000000	0.925374
4570.000000	0.925207
4568.000000	0.925244
4566.000000	0.925230
4564.000000	0.925090
4562.000000	0.925062
4560.000000	0.925151
4558.000000	0.925150
4556.000000	0.925119
4554.000000	0.925137
4552.000000	0.925100
4550.000000	0.925064
4548.000000	0.925086
4546.000000	0.925070
4544.000000	0.925058
4542.000000	0.925169
4540.000000	0.925277
4538.000000	0.925223
4536.000000	0.925055
4534.000000	0.924905
4532.000000	0.924749
4530.000000	0.924591
4528.000000	0.924561
4526.000000	0.924656
4524.000000	0.924763
4522.000000	0.924759
4520.000000	0.924670
4518.000000	0.924714
4516.000000	0.924848
4514.000000	0.924839
4512.000000	0.924804
4510.000000	0.924786
4508.000000	0.924709
4506.000000	0.924624
4504.000000	0.924540
4502.000000	0.924449
4500.000000	0.924436
4498.000000	0.924477
4496.000000	0.924504
4494.000000	0.924513
4492.000000	0.924477
4490.000000	0.924452
4488.000000	0.924461
4486.000000	0.924446
4484.000000	0.924315
4482.000000	0.924127
4480.000000	0.924062
4478.000000	0.924135
4476.000000	0.924237
4474.000000	0.924287
4472.000000	0.924257
4470.000000	0.924189
4468.000000	0.924185
4466.000000	0.924168
4464.000000	0.924173
4462.000000	0.924259
4460.000000	0.924311
4458.000000	0.924202
4456.000000	0.924089
4454.000000	0.924098
4452.000000	0.924217
4450.000000	0.924241
4448.000000	0.924103
4446.000000	0.924002
4444.000000	0.924053
4442.000000	0.924106
4440.000000	0.924093
4438.000000	0.924077
4436.000000	0.924063
4434.000000	0.924049
4432.000000	0.924078
4430.000000	0.924141
4428.000000	0.924152
4426.000000	0.924040
4424.000000	0.923909
4422.000000	0.923909
4420.000000	0.924041
4418.000000	0.924107
4416.000000	0.924071
4414.000000	0.924119
4412.000000	0.924188
4410.000000	0.924075
4408.000000	0.923926
4406.000000	0.923930
4404.000000	0.924016
4402.000000	0.924137
4400.000000	0.924183
4398.000000	0.924093
4396.000000	0.923999
4394.000000	0.924012
4392.000000	0.924086
4390.000000	0.924124
4388.000000	0.924119
4386.000000	0.924098
4384.000000	0.924069
4382.000000	0.924028
4380.000000	0.924053
4378.000000	0.924111
4376.000000	0.924178
4374.000000	0.924275
4372.000000	0.924300
4370.000000	0.924243
4368.000000	0.924285
4366.000000	0.924437
4364.000000	0.924542
4362.000000	0.924485
4360.000000	0.924350
4358.000000	0.924334
4356.000000	0.924408
4354.000000	0.924423
4352.000000	0.924363
4350.000000	0.924331
4348.000000	0.924469
4346.000000	0.924692
4344.000000	0.924737
4342.000000	0.924601
4340.000000	0.924527
4338.000000	0.924622
4336.000000	0.924740
4334.000000	0.924733
4332.000000	0.924731
4330.000000	0.924803
4328.000000	0.924865
4326.000000	0.924924
4324.000000	0.924978
4322.000000	0.924996
4320.000000	0.925047
4318.000000	0.925098
4316.000000	0.925177
4314.000000	0.925277
4312.000000	0.925217
4310.000000	0.925024
4308.000000	0.924938
4306.000000	0.924958
4304.000000	0.925065
4302.000000	0.925255
4300.000000	0.925376
4298.000000	0.925368
4296.000000	0.925320
4294.000000	0.925305
4292.000000	0.925351
4290.000000	0.925402
4288.000000	0.925409
4286.000000	0.925435
4284.000000	0.925448
4282.000000	0.925431
4280.000000	0.925437
4278.000000	0.925475
4276.000000	0.925542
4274.000000	0.925656
4272.000000	0.925728
4270.000000	0.925782
4268.000000	0.925840
4266.000000	0.925811
4264.000000	0.925753
4262.000000	0.925785
4260.000000	0.925823
4258.000000	0.925859
4256.000000	0.925928
4254.000000	0.925948
4252.000000	0.925922
4250.000000	0.925920
4248.000000	0.925968
4246.000000	0.926040
4244.000000	0.926067
4242.000000	0.926106
4240.000000	0.926138
4238.000000	0.926030
4236.000000	0.925903
4234.000000	0.925902
4232.000000	0.925949
4230.000000	0.926017
4228.000000	0.926106
4226.000000	0.926190
4224.000000	0.926267
4222.000000	0.926250
4220.000000	0.926162
4218.000000	0.926161
4216.000000	0.926215
4214.000000	0.926223
4212.000000	0.926216
4210.000000	0.926213
4208.000000	0.926176
4206.000000	0.926071
4204.000000	0.925992
4202.000000	0.926037
4200.000000	0.926138
4198.000000	0.926179
4196.000000	0.926155
4194.000000	0.926121
4192.000000	0.926154
4190.000000	0.926253
4188.000000	0.926278
4186.000000	0.926201
4184.000000	0.926192
4182.000000	0.926234
4180.000000	0.926189
4178.000000	0.926165
4176.000000	0.926176
4174.000000	0.926140
4172.000000	0.926150
4170.000000	0.926175
4168.000000	0.926181
4166.000000	0.926214
4164.000000	0.926236
4162.000000	0.926233
4160.000000	0.926167
4158.000000	0.926057
4156.000000	0.925980
4154.000000	0.925961
4152.000000	0.926014
4150.000000	0.926065
4148.000000	0.926078
4146.000000	0.926161
4144.000000	0.926283
4142.000000	0.926307
4140.000000	0.926248
4138.000000	0.926181
4136.000000	0.926134
4134.000000	0.926166
4132.000000	0.926222
4130.000000	0.926214
4128.000000	0.926246
4126.000000	0.926295
4124.000000	0.926258
4122.000000	0.926242
4120.000000	0.926257
4118.000000	0.926221
4116.000000	0.926158
4114.000000	0.926131
4112.000000	0.926168
4110.000000	0.926186
4108.000000	0.926119
4106.000000	0.926033
4104.000000	0.925959
4102.000000	0.925934
4100.000000	0.925983
4098.000000	0.926018
4096.000000	0.925983
4094.000000	0.925921
4092.000000	0.925881
4090.000000	0.925837
4088.000000	0.925795
4086.000000	0.925801
4084.000000	0.925826
4082.000000	0.925823
4080.000000	0.925823
4078.000000	0.925870
4076.000000	0.925891
4074.000000	0.925866
4072.000000	0.925907
4070.000000	0.925905
4068.000000	0.925841
4066.000000	0.925860
4064.000000	0.925866
4062.000000	0.925791
4060.000000	0.925740
4058.000000	0.925763
4056.000000	0.925807
4054.000000	0.925798
4052.000000	0.925747
4050.000000	0.925674
4048.000000	0.925642
4046.000000	0.925670
4044.000000	0.925702
4042.000000	0.925774
4040.000000	0.925797
4038.000000	0.925688
4036.000000	0.925620
4034.000000	0.925647
4032.000000	0.925643
4030.000000	0.925615
4028.000000	0.925600
4026.000000	0.925588
4024.000000	0.925600
4022.000000	0.925616
4020.000000	0.925569
4018.000000	0.925482
4016.000000	0.925488
4014.000000	0.925544
4012.000000	0.925538
4010.000000	0.925507
4008.000000	0.925415
4006.000000	0.925249
4004.000000	0.925167
4002.000000	0.925160
4000.000000	0.925110
3998.000000	0.925131
3996.000000	0.925186
3994.000000	0.925099
3992.000000	0.924996
3990.000000	0.925020
3988.000000	0.925091
3986.000000	0.925094
3984.000000	0.925028
3982.000000	0.924945
3980.000000	0.924887
3978.000000	0.924831
3976.000000	0.924729
3974.000000	0.924658
3972.000000	0.924689
3970.000000	0.924787
3968.000000	0.924825
3966.000000	0.924694
3964.000000	0.924501
3962.000000	0.924431
3960.000000	0.924414
3958.000000	0.924341
3956.000000	0.924303
3954.000000	0.924235
3952.000000	0.924125
3950.000000	0.924140
3948.000000	0.924171
3946.000000	0.924080
3944.000000	0.923958
3942.000000	0.923886
3940.000000	0.923853
3938.000000	0.923772
3936.000000	0.923655
3934.000000	0.923595
3932.000000	0.923535
3930.000000	0.923451
3928.000000	0.923435
3926.000000	0.923389
3924.000000	0.923235
3922.000000	0.923136
3920.000000	0.923132
3918.000000	0.923036
3916.000000	0.922794
3914.000000	0.922610
3912.000000	0.922640
3910.000000	0.922741
3908.000000	0.922714
3906.000000	0.922563
3904.000000	0.922302
3902.000000	0.922008
3900.000000	0.921769
3898.000000	0.921637
3896.000000	0.921749
3894.000000	0.921911
3892.000000	0.921777
3890.000000	0.921558
3888.000000	0.921588
3886.000000	0.921508
3884.000000	0.921253
3882.000000	0.921198
3880.000000	0.921130
3878.000000	0.921080
3876.000000	0.921171
3874.000000	0.921134
3872.000000	0.920926
3870.000000	0.920541
3868.000000	0.920338
3866.000000	0.920483
3864.000000	0.920430
3862.000000	0.920207
3860.000000	0.920205
3858.000000	0.920447
3856.000000	0.920503
3854.000000	0.919805
3852.000000	0.919023
3850.000000	0.919140
3848.000000	0.919653
3846.000000	0.919801
3844.000000	0.919710
3842.000000	0.919673
3840.000000	0.919587
3838.000000	0.919199
3836.000000	0.918872
3834.000000	0.918970
3832.000000	0.919113
3830.000000	0.919135
3828.000000	0.919178
3826.000000	0.919140
3824.000000	0.919026
3822.000000	0.918718
3820.000000	0.918435
3818.000000	0.918480
3816.000000	0.918272
3814.000000	0.917984
3812.000000	0.918130
3810.000000	0.918300
3808.000000	0.918144
3806.000000	0.917906
3804.000000	0.918007
3802.000000	0.917905
3800.000000	0.917555
3798.000000	0.917637
3796.000000	0.917749
3794.000000	0.917669
3792.000000	0.917678
3790.000000	0.917706
3788.000000	0.917695
3786.000000	0.917663
3784.000000	0.917562
3782.000000	0.917445
3780.000000	0.917380
3778.000000	0.917369
3776.000000	0.917420
3774.000000	0.917464
3772.000000	0.917470
3770.000000	0.917356
3768.000000	0.917217
3766.000000	0.917164
3764.000000	0.917173
3762.000000	0.917231
3760.000000	0.917210
3758.000000	0.917179
3756.000000	0.917341
3754.000000	0.917400
3752.000000	0.917043
3750.000000	0.916619
3748.000000	0.916719
3746.000000	0.917007
3744.000000	0.916687
3742.000000	0.916578
3740.000000	0.917180
3738.000000	0.917562
3736.000000	0.917431
3734.000000	0.917204
3732.000000	0.917112
3730.000000	0.917278
3728.000000	0.917597
3726.000000	0.917715
3724.000000	0.917748
3722.000000	0.917779
3720.000000	0.917840
3718.000000	0.918037
3716.000000	0.918328
3714.000000	0.918525
3712.000000	0.918378
3710.000000	0.918182
3708.000000	0.918391
3706.000000	0.918870
3704.000000	0.919227
3702.000000	0.919315
3700.000000	0.919426
3698.000000	0.919781
3696.000000	0.920190
3694.000000	0.920564
3692.000000	0.920933
3690.000000	0.921036
3688.000000	0.920859
3686.000000	0.921013
3684.000000	0.921608
3682.000000	0.922249
3680.000000	0.922785
3678.000000	0.923160
3676.000000	0.923195
3674.000000	0.923316
3672.000000	0.923978
3670.000000	0.924531
3668.000000	0.924996
3666.000000	0.925724
3664.000000	0.926395
3662.000000	0.926978
3660.000000	0.927690
3658.000000	0.928370
3656.000000	0.928861
3654.000000	0.929516
3652.000000	0.930410
3650.000000	0.930961
3648.000000	0.931239
3646.000000	0.931892
3644.000000	0.932942
3642.000000	0.934000
3640.000000	0.934901
3638.000000	0.935699
3636.000000	0.936443
3634.000000	0.937217
3632.000000	0.938079
3630.000000	0.938774
3628.000000	0.939223
3626.000000	0.940035
3624.000000	0.941221
3622.000000	0.942262
3620.000000	0.943028
3618.000000	0.943693
3616.000000	0.944495
3614.000000	0.945306
3612.000000	0.945998
3610.000000	0.946680
3608.000000	0.947342
3606.000000	0.948073
3604.000000	0.948886
3602.000000	0.949668
3600.000000	0.950396
3598.000000	0.951026
3596.000000	0.951565
3594.000000	0.952117
3592.000000	0.952784
3590.000000	0.953458
3588.000000	0.953925
3586.000000	0.954265
3584.000000	0.954736
3582.000000	0.955285
3580.000000	0.955764
3578.000000	0.956172
3576.000000	0.956575
3574.000000	0.957011
3572.000000	0.957409
3570.000000	0.957748
3568.000000	0.958005
3566.000000	0.958157
3564.000000	0.958426
3562.000000	0.958806
3560.000000	0.959103
3558.000000	0.959348
3556.000000	0.959597
3554.000000	0.959778
3552.000000	0.959922
3550.000000	0.960100
3548.000000	0.960268
3546.000000	0.960456
3544.000000	0.960682
3542.000000	0.960900
3540.000000	0.961121
3538.000000	0.961276
3536.000000	0.961361
3534.000000	0.961492
3532.000000	0.961727
3530.000000	0.961965
3528.000000	0.962140
3526.000000	0.962247
3524.000000	0.962357
3522.000000	0.962535
3520.000000	0.962720
3518.000000	0.962899
3516.000000	0.963057
3514.000000	0.963256
3512.000000	0.963558
3510.000000	0.963815
3508.000000	0.964054
3506.000000	0.964362
3504.000000	0.964591
3502.000000	0.964776
3500.000000	0.965002
3498.000000	0.965246
3496.000000	0.965495
3494.000000	0.965742
3492.000000	0.965987
3490.000000	0.966225
3488.000000	0.966499
3486.000000	0.966753
3484.000000	0.966945
3482.000000	0.967174
3480.000000	0.967458
3478.000000	0.967658
3476.000000	0.967879
3474.000000	0.968203
3472.000000	0.968482
3470.000000	0.968662
3468.000000	0.968839
3466.000000	0.969115
3464.000000	0.969386
3462.000000	0.969604
3460.000000	0.969835
3458.000000	0.970011
3456.000000	0.970201
3454.000000	0.970493
3452.000000	0.970811
3450.000000	0.971062
3448.000000	0.971154
3446.000000	0.971211
3444.000000	0.971368
3442.000000	0.971608
3440.000000	0.971861
3438.000000	0.971957
3436.000000	0.972048
3434.000000	0.972245
3432.000000	0.972405
3430.000000	0.972493
3428.000000	0.972587
3426.000000	0.972732
3424.000000	0.972921
3422.000000	0.973109
3420.000000	0.973168
3418.000000	0.973194
3416.000000	0.973317
3414.000000	0.973492
3412.000000	0.973652
3410.000000	0.973773
3408.000000	0.973861
3406.000000	0.973978
3404.000000	0.974091
3402.000000	0.974093
3400.000000	0.974169
3398.000000	0.974379
3396.000000	0.974495
3394.000000	0.974490
3392.000000	0.974488
3390.000000	0.974570
3388.000000	0.974650
3386.000000	0.974693
3384.000000	0.974740
3382.000000	0.974751
3380.000000	0.974818
3378.000000	0.974967
3376.000000	0.975050
3374.000000	0.975082
3372.000000	0.975119
3370.000000	0.975168
3368.000000	0.975229
3366.000000	0.975300
3364.000000	0.975314
3362.000000	0.975286
3360.000000	0.975277
3358.000000	0.975331
3356.000000	0.975416
3354.000000	0.975497
3352.000000	0.975617
3350.000000	0.975677
3348.000000	0.975657
3346.000000	0.975636
3344.000000	0.975641
3342.000000	0.975717
3340.000000	0.975744
3338.000000	0.975753
3336.000000	0.975826
3334.000000	0.975827
3332.000000	0.975819
3330.000000	0.975912
3328.000000	0.975964
3326.000000	0.975969
3324.000000	0.976037
3322.000000	0.976095
3320.000000	0.976130
3318.000000	0.976199
3316.000000	0.976223
3314.000000	0.976256
3312.000000	0.976348
3310.000000	0.976461
3308.000000	0.976549
3306.000000	0.976530
3304.000000	0.976516
3302.000000	0.976599
3300.000000	0.976671
3298.000000	0.976704
3296.000000	0.976704
3294.000000	0.976777
3292.000000	0.976937
3290.000000	0.976974
3288.000000	0.976923
3286.000000	0.976962
3284.000000	0.977041
3282.000000	0.977082
3280.000000	0.977140
3278.000000	0.977188
3276.000000	0.977259
3274.000000	0.977330
3272.000000	0.977409
3270.000000	0.977490
3268.000000	0.977515
3266.000000	0.977506
3264.000000	0.977557
3262.000000	0.977688
3260.000000	0.977733
3258.000000	0.977676
3256.000000	0.977713
3254.000000	0.977831
3252.000000	0.977892
3250.000000	0.977955
3248.000000	0.978015
3246.000000	0.978043
3244.000000	0.978100
3242.000000	0.978162
3240.000000	0.978194
3238.000000	0.978183
3236.000000	0.978197
3234.000000	0.978221
3232.000000	0.978233
3230.000000	0.978234
3228.000000	0.978196
3226.000000	0.978155
3224.000000	0.978193
3222.000000	0.978323
3220.000000	0.978427
3218.000000	0.978482
3216.000000	0.978527
3214.000000	0.978526
3212.000000	0.978506
3210.000000	0.978556
3208.000000	0.978612
3206.000000	0.978630
3204.000000	0.978696
3202.000000	0.978726
3200.000000	0.978698
3198.000000	0.978692
3196.000000	0.978721
3194.000000	0.978708
3192.000000	0.978694
3190.000000	0.978801
3188.000000	0.978928
3186.000000	0.978961
3184.000000	0.978923
3182.000000	0.978923
3180.000000	0.978948
3178.000000	0.978952
3176.000000	0.978987
3174.000000	0.978992
3172.000000	0.979037
3170.000000	0.979150
3168.000000	0.979168
3166.000000	0.979135
3164.000000	0.979165
3162.000000	0.979198
3160.000000	0.979180
3158.000000	0.979214
3156.000000	0.979303
3154.000000	0.979346
3152.000000	0.979376
3150.000000	0.979398
3148.000000	0.979442
3146.000000	0.979485
3144.000000	0.979531
3142.000000	0.979556
3140.000000	0.979489
3138.000000	0.979391
3136.000000	0.979372
3134.000000	0.979447
3132.000000	0.979517
3130.000000	0.979510
3128.000000	0.979534
3126.000000	0.979630
3124.000000	0.979774
3122.000000	0.979855
3120.000000	0.979874
3118.000000	0.979869
3116.000000	0.979868
3114.000000	0.979936
3112.000000	0.979960
3110.000000	0.979971
3108.000000	0.980001
3106.000000	0.980002
3104.000000	0.979993
3102.000000	0.979981
3100.000000	0.979998
3098.000000	0.979985
3096.000000	0.979933
3094.000000	0.979912
3092.000000	0.979951
3090.000000	0.980055
3088.000000	0.980151
3086.000000	0.980225
3084.000000	0.980270
3082.000000	0.980296
3080.000000	0.980326
3078.000000	0.980310
3076.000000	0.980292
3074.000000	0.980305
3072.000000	0.980300
3070.000000	0.980352
3068.000000	0.980432
3066.000000	0.980432
3064.000000	0.980412
3062.000000	0.980412
3060.000000	0.980385
3058.000000	0.980396
3056.000000	0.980437
3054.000000	0.980474
3052.000000	0.980451
3050.000000	0.980401
3048.000000	0.980359
3046.000000	0.980380
3044.000000	0.980459
3042.000000	0.980452
3040.000000	0.980379
3038.000000	0.980429
3036.000000	0.980470
3034.000000	0.980435
3032.000000	0.980448
3030.000000	0.980485
3028.000000	0.980514
3026.000000	0.980492
3024.000000	0.980525
3022.000000	0.980534
3020.000000	0.980484
3018.000000	0.980402
3016.000000	0.980269
3014.000000	0.980223
3012.000000	0.980190
3010.000000	0.980127
3008.000000	0.980133
3006.000000	0.980189
3004.000000	0.980251
3002.000000	0.980256
3000.000000	0.980195
2998.000000	0.980196
2996.000000	0.980249
2994.000000	0.980296
2992.000000	0.980268
2990.000000	0.980200
2988.000000	0.980164
2986.000000	0.980201
2984.000000	0.980294
2982.000000	0.980342
2980.000000	0.980372
2978.000000	0.980448
2976.000000	0.980515
2974.000000	0.980630
2972.000000	0.980840
2970.000000	0.981038
2968.000000	0.981210
2966.000000	0.981304
2964.000000	0.981223
2962.000000	0.980966
2960.000000	0.980630
2958.000000	0.980365
2956.000000	0.980080
2954.000000	0.979769
2952.000000	0.979619
2950.000000	0.979537
2948.000000	0.979454
2946.000000	0.979451
2944.000000	0.979519
2942.000000	0.979522
2940.000000	0.979397
2938.000000	0.979260
2936.000000	0.979121
2934.000000	0.978920
2932.000000	0.978814
2930.000000	0.978731
2928.000000	0.978538
2926.000000	0.978284
2924.000000	0.978015
2922.000000	0.977759
2920.000000	0.977511
2918.000000	0.977367
2916.000000	0.977270
2914.000000	0.977209
2912.000000	0.977170
2910.000000	0.977115
2908.000000	0.977081
2906.000000	0.977066
2904.000000	0.977011
2902.000000	0.976887
2900.000000	0.976738
2898.000000	0.976516
2896.000000	0.976298
2894.000000	0.976200
2892.000000	0.976077
2890.000000	0.975879
2888.000000	0.975775
2886.000000	0.975683
2884.000000	0.975569
2882.000000	0.975464
2880.000000	0.975338
2878.000000	0.975188
2876.000000	0.975012
2874.000000	0.974903
2872.000000	0.974951
2870.000000	0.974923
2868.000000	0.974812
2866.000000	0.974683
2864.000000	0.974426
2862.000000	0.974076
2860.000000	0.973771
2858.000000	0.973508
2856.000000	0.973237
2854.000000	0.973002
2852.000000	0.972814
2850.000000	0.972691
2848.000000	0.972629
2846.000000	0.972530
2844.000000	0.972367
2842.000000	0.972227
2840.000000	0.972150
2838.000000	0.972110
2836.000000	0.972007
2834.000000	0.971824
2832.000000	0.971713
2830.000000	0.971660
2828.000000	0.971548
2826.000000	0.971430
2824.000000	0.971331
2822.000000	0.971151
2820.000000	0.970946
2818.000000	0.970842
2816.000000	0.970810
2814.000000	0.970755
2812.000000	0.970650
2810.000000	0.970534
2808.000000	0.970434
2806.000000	0.970379
2804.000000	0.970296
2802.000000	0.970144
2800.000000	0.970028
2798.000000	0.970005
2796.000000	0.969991
2794.000000	0.969834
2792.000000	0.969682
2790.000000	0.969598
2788.000000	0.969523
2786.000000	0.969448
2784.000000	0.969379
2782.000000	0.969313
2780.000000	0.969260
2778.000000	0.969203
2776.000000	0.969177
2774.000000	0.969158
2772.000000	0.969123
2770.000000	0.969051
2768.000000	0.969002
2766.000000	0.968994
2764.000000	0.968918
2762.000000	0.968832
2760.000000	0.968768
2758.000000	0.968732
2756.000000	0.968671
2754.000000	0.968586
2752.000000	0.968495
2750.000000	0.968443
2748.000000	0.968441
2746.000000	0.968493
2744.000000	0.968527
2742.000000	0.968448
2740.000000	0.968395
2738.000000	0.968404
2736.000000	0.968357
2734.000000	0.968331
2732.000000	0.968339
2730.000000	0.968311
2728.000000	0.968326
2726.000000	0.968377
2724.000000	0.968383
2722.000000	0.968353
2720.000000	0.968343
2718.000000	0.968331
2716.000000	0.968325
2714.000000	0.968328
2712.000000	0.968297
2710.000000	0.968292
2708.000000	0.968353
2706.000000	0.968390
2704.000000	0.968365
2702.000000	0.968375
2700.000000	0.968445
2698.000000	0.968489
2696.000000	0.968529
2694.000000	0.968588
2692.000000	0.968620
2690.000000	0.968662
2688.000000	0.968714
2686.000000	0.968733
2684.000000	0.968779
2682.000000	0.968848
2680.000000	0.968914
2678.000000	0.968931
2676.000000	0.969002
2674.000000	0.969173
2672.000000	0.969238
2670.000000	0.969209
2668.000000	0.969268
2666.000000	0.969358
2664.000000	0.969418
2662.000000	0.969499
2660.000000	0.969606
2658.000000	0.969681
2656.000000	0.969748
2654.000000	0.969825
2652.000000	0.969925
2650.000000	0.970025
2648.000000	0.970077
2646.000000	0.970182
2644.000000	0.970349
2642.000000	0.970444
2640.000000	0.970492
2638.000000	0.970585
2636.000000	0.970715
2634.000000	0.970787
2632.000000	0.970807
2630.000000	0.970896
2628.000000	0.971004
2626.000000	0.971100
2624.000000	0.971202
2622.000000	0.971277
2620.000000	0.971348
2618.000000	0.971420
2616.000000	0.971533
2614.000000	0.971643
2612.000000	0.971763
2610.000000	0.971875
2608.000000	0.971969
2606.000000	0.972079
2604.000000	0.972207
2602.000000	0.972321
2600.000000	0.972394
2598.000000	0.972448
2596.000000	0.972521
2594.000000	0.972639
2592.000000	0.972779
2590.000000	0.972867
2588.000000	0.972952
2586.000000	0.973085
2584.000000	0.973200
2582.000000	0.973326
2580.000000	0.973433
2578.000000	0.973486
2576.000000	0.973590
2574.000000	0.973723
2572.000000	0.973789
2570.000000	0.973851
2568.000000	0.973916
2566.000000	0.973986
2564.000000	0.974080
2562.000000	0.974160
2560.000000	0.974232
2558.000000	0.974324
2556.000000	0.974476
2554.000000	0.974591
2552.000000	0.974649
2550.000000	0.974784
2548.000000	0.974884
2546.000000	0.974965
2544.000000	0.975059
2542.000000	0.975170
2540.000000	0.975301
2538.000000	0.975430
2536.000000	0.975535
2534.000000	0.975596
2532.000000	0.975675
2530.000000	0.975781
2528.000000	0.975829
2526.000000	0.975966
2524.000000	0.976148
2522.000000	0.976221
2520.000000	0.976230
2518.000000	0.976305
2516.000000	0.976420
2514.000000	0.976497
2512.000000	0.976630
2510.000000	0.976778
2508.000000	0.976925
2506.000000	0.977121
2504.000000	0.977307
2502.000000	0.977433
2500.000000	0.977504
2498.000000	0.977624
2496.000000	0.977765
2494.000000	0.977867
2492.000000	0.977976
2490.000000	0.978132
2488.000000	0.978330
2486.000000	0.978506
2484.000000	0.978704
2482.000000	0.978878
2480.000000	0.979030
2478.000000	0.979203
2476.000000	0.979330
2474.000000	0.979492
2472.000000	0.979706
2470.000000	0.979923
2468.000000	0.980171
2466.000000	0.980413
2464.000000	0.980589
2462.000000	0.980745
2460.000000	0.980924
2458.000000	0.981130
2456.000000	0.981338
2454.000000	0.981513
2452.000000	0.981607
2450.000000	0.981655
2448.000000	0.981806
2446.000000	0.981983
2444.000000	0.982104
2442.000000	0.982159
2440.000000	0.982210
2438.000000	0.982282
2436.000000	0.982393
2434.000000	0.982477
2432.000000	0.982498
2430.000000	0.982482
2428.000000	0.982462
2426.000000	0.982463
2424.000000	0.982448
2422.000000	0.982377
2420.000000	0.982325
2418.000000	0.982262
2416.000000	0.982155
2414.000000	0.982049
2412.000000	0.981942
2410.000000	0.981872
2408.000000	0.981833
2406.000000	0.981739
2404.000000	0.981621
2402.000000	0.981549
2400.000000	0.981507
2398.000000	0.981494
2396.000000	0.981470
2394.000000	0.981435
2392.000000	0.981391
2390.000000	0.981395
2388.000000	0.981446
2386.000000	0.981452
2384.000000	0.981407
2382.000000	0.981386
2380.000000	0.981415
2378.000000	0.981480
2376.000000	0.981502
2374.000000	0.981486
2372.000000	0.981548
2370.000000	0.981572
2368.000000	0.981571
2366.000000	0.981595
2364.000000	0.981630
2362.000000	0.981677
2360.000000	0.981690
2358.000000	0.981747
2356.000000	0.981831
2354.000000	0.981899
2352.000000	0.981979
2350.000000	0.982173
2348.000000	0.982440
2346.000000	0.982675
2344.000000	0.983021
2342.000000	0.983496
2340.000000	0.983694
2338.000000	0.983411
2336.000000	0.982999
2334.000000	0.982811
2332.000000	0.982853
2330.000000	0.982881
2328.000000	0.982886
2326.000000	0.982969
2324.000000	0.983051
2322.000000	0.983113
2320.000000	0.983213
2318.000000	0.983373
2316.000000	0.983552
2314.000000	0.983646
2312.000000	0.983744
2310.000000	0.983841
2308.000000	0.983923
2306.000000	0.984024
2304.000000	0.984079
2302.000000	0.984121
2300.000000	0.984208
2298.000000	0.984312
2296.000000	0.984426
2294.000000	0.984525
2292.000000	0.984585
2290.000000	0.984650
2288.000000	0.984696
2286.000000	0.984723
2284.000000	0.984841
2282.000000	0.984969
2280.000000	0.984996
2278.000000	0.985075
2276.000000	0.985199
2274.000000	0.985221
2272.000000	0.985240
2270.000000	0.985342
2268.000000	0.985392
2266.000000	0.985457
2264.000000	0.985566
2262.000000	0.985617
2260.000000	0.985643
2258.000000	0.985733
2256.000000	0.985879
2254.000000	0.985886
2252.000000	0.985874
2250.000000	0.985948
2248.000000	0.986023
2246.000000	0.986060
2244.000000	0.986081
2242.000000	0.986119
2240.000000	0.986154
2238.000000	0.986194
2236.000000	0.986204
2234.000000	0.986261
2232.000000	0.986370
2230.000000	0.986404
2228.000000	0.986386
2226.000000	0.986397
2224.000000	0.986450
2222.000000	0.986484
2220.000000	0.986509
2218.000000	0.986552
2216.000000	0.986518
2214.000000	0.986548
2212.000000	0.986623
2210.000000	0.986638
2208.000000	0.986622
2206.000000	0.986652
2204.000000	0.986660
2202.000000	0.986525
2200.000000	0.986395
2198.000000	0.986370
2196.000000	0.986385
2194.000000	0.986405
2192.000000	0.986393
2190.000000	0.986304
2188.000000	0.986255
2186.000000	0.986233
2184.000000	0.986197
2182.000000	0.986183
2180.000000	0.986145
2178.000000	0.986051
2176.000000	0.985980
2174.000000	0.985984
2172.000000	0.985991
2170.000000	0.985922
2168.000000	0.985814
2166.000000	0.985726
2164.000000	0.985636
2162.000000	0.985577
2160.000000	0.985578
2158.000000	0.985532
2156.000000	0.985415
2154.000000	0.985283
2152.000000	0.985162
2150.000000	0.985094
2148.000000	0.985075
2146.000000	0.985040
2144.000000	0.984928
2142.000000	0.984823
2140.000000	0.984740
2138.000000	0.984659
2136.000000	0.984583
2134.000000	0.984475
2132.000000	0.984348
2130.000000	0.984196
2128.000000	0.984114
2126.000000	0.984053
2124.000000	0.983928
2122.000000	0.983836
2120.000000	0.983707
2118.000000	0.983564
2116.000000	0.983473
2114.000000	0.983399
2112.000000	0.983310
2110.000000	0.983177
2108.000000	0.983054
2106.000000	0.982901
2104.000000	0.982782
2102.000000	0.982665
2100.000000	0.982503
2098.000000	0.982393
2096.000000	0.982327
2094.000000	0.982232
2092.000000	0.982101
2090.000000	0.981967
2088.000000	0.981818
2086.000000	0.981664
2084.000000	0.981570
2082.000000	0.981466
2080.000000	0.981337
2078.000000	0.981236
2076.000000	0.981092
2074.000000	0.980954
2072.000000	0.980821
2070.000000	0.980678
2068.000000	0.980602
2066.000000	0.980556
2064.000000	0.980439
2062.000000	0.980259
2060.000000	0.980104
2058.000000	0.979977
2056.000000	0.979849
2054.000000	0.979773
2052.000000	0.979696
2050.000000	0.979572
2048.000000	0.979425
2046.000000	0.979307
2044.000000	0.979175
2042.000000	0.979052
2040.000000	0.978980
2038.000000	0.978879
2036.000000	0.978752
2034.000000	0.978654
2032.000000	0.978554
2030.000000	0.978412
2028.000000	0.978289
2026.000000	0.978218
2024.000000	0.978140
2022.000000	0.978045
2020.000000	0.977893
2018.000000	0.977736
2016.000000	0.977579
2014.000000	0.977492
2012.000000	0.977482
2010.000000	0.977390
2008.000000	0.977275
2006.000000	0.977206
2004.000000	0.977063
2002.000000	0.976952
2000.000000	0.976935
1998.000000	0.976875
1996.000000	0.976807
1994.000000	0.976741
1992.000000	0.976597
1990.000000	0.976530
1988.000000	0.976521
1986.000000	0.976463
1984.000000	0.976378
1982.000000	0.976310
1980.000000	0.976244
1978.000000	0.976201
1976.000000	0.976190
1974.000000	0.976155
1972.000000	0.976065
1970.000000	0.976074
1968.000000	0.976121
1966.000000	0.976061
1964.000000	0.975964
1962.000000	0.975983
1960.000000	0.976066
1958.000000	0.976068
1956.000000	0.976023
1954.000000	0.975985
1952.000000	0.975987
1950.000000	0.975960
1948.000000	0.975915
1946.000000	0.975895
1944.000000	0.975955
1942.000000	0.975984
1940.000000	0.975994
1938.000000	0.976021
1936.000000	0.976086
1934.000000	0.976098
1932.000000	0.976085
1930.000000	0.976106
1928.000000	0.976101
1926.000000	0.976125
1924.000000	0.976143
1922.000000	0.976208
1920.000000	0.976272
1918.000000	0.976217
1916.000000	0.976236
1914.000000	0.976367
1912.000000	0.976386
1910.000000	0.976384
1908.000000	0.976463
1906.000000	0.976581
1904.000000	0.976626
1902.000000	0.976650
1900.000000	0.976712
1898.000000	0.976776
1896.000000	0.976892
1894.000000	0.976977
1892.000000	0.977004
1890.000000	0.977037
1888.000000	0.977106
1886.000000	0.977121
1884.000000	0.977100
1882.000000	0.977170
1880.000000	0.977260
1878.000000	0.977367
1876.000000	0.977502
1874.000000	0.977551
1872.000000	0.977626
1870.000000	0.977675
1868.000000	0.977647
1866.000000	0.977729
1864.000000	0.977863
1862.000000	0.977968
1860.000000	0.977963
1858.000000	0.978000
1856.000000	0.978102
1854.000000	0.978212
1852.000000	0.978287
1850.000000	0.978360
1848.000000	0.978453
1846.000000	0.978527
1844.000000	0.978478
1842.000000	0.978597
1840.000000	0.978873
1838.000000	0.978993
1836.000000	0.979066
1834.000000	0.979196
1832.000000	0.979294
1830.000000	0.979255
1828.000000	0.979355
1826.000000	0.979622
1824.000000	0.979708
1822.000000	0.979866
1820.000000	0.980061
1818.000000	0.980188
1816.000000	0.980283
1814.000000	0.980426
1812.000000	0.980554
1810.000000	0.980653
1808.000000	0.980840
1806.000000	0.981005
1804.000000	0.981099
1802.000000	0.981195
1800.000000	0.981272
1798.000000	0.981415
1796.000000	0.981643
1794.000000	0.981806
1792.000000	0.981734
1790.000000	0.981893
1788.000000	0.982235
1786.000000	0.982431
1784.000000	0.982528
1782.000000	0.982651
1780.000000	0.982763
1778.000000	0.982989
1776.000000	0.983259
1774.000000	0.983404
1772.000000	0.983339
1770.000000	0.983550
1768.000000	0.983845
1766.000000	0.984066
1764.000000	0.984364
1762.000000	0.984467
1760.000000	0.984637
1758.000000	0.984876
1756.000000	0.984965
1754.000000	0.985225
1752.000000	0.985391
1750.000000	0.985464
1748.000000	0.985696
1746.000000	0.985870
1744.000000	0.986055
1742.000000	0.986268
1740.000000	0.986366
1738.000000	0.986515
1736.000000	0.986803
1734.000000	0.986532
1732.000000	0.986560
1730.000000	0.987066
1728.000000	0.987330
1726.000000	0.987499
1724.000000	0.987627
1722.000000	0.987811
1720.000000	0.988001
1718.000000	0.987703
1716.000000	0.987425
1714.000000	0.987808
1712.000000	0.988149
1710.000000	0.988383
1708.000000	0.988486
1706.000000	0.988417
1704.000000	0.988406
1702.000000	0.988555
1700.000000	0.988156
1698.000000	0.988269
1696.000000	0.988324
1694.000000	0.988322
1692.000000	0.988831
1690.000000	0.988992
1688.000000	0.989122
1686.000000	0.989095
1684.000000	0.988545
1682.000000	0.988647
1680.000000	0.989125
1678.000000	0.989353
1676.000000	0.989316
1674.000000	0.989138
1672.000000	0.989330
1670.000000	0.989334
1668.000000	0.989275
1666.000000	0.989506
1664.000000	0.989654
1662.000000	0.989536
1660.000000	0.989615
1658.000000	0.989828
1656.000000	0.990045
1654.000000	0.989617
1652.000000	0.988870
1650.000000	0.989382
1648.000000	0.989830
1646.000000	0.989554
1644.000000	0.989627
1642.000000	0.989953
1640.000000	0.990140
1638.000000	0.990187
1636.000000	0.989773
1634.000000	0.989469
1632.000000	0.989805
1630.000000	0.990033
1628.000000	0.990004
1626.000000	0.990030
1624.000000	0.990003
1622.000000	0.989911
1620.000000	0.990095
1618.000000	0.990106
1616.000000	0.989813
1614.000000	0.989984
1612.000000	0.990285
1610.000000	0.990296
1608.000000	0.990209
1606.000000	0.990116
1604.000000	0.990077
1602.000000	0.990086
1600.000000	0.990134
1598.000000	0.990177
1596.000000	0.990197
1594.000000	0.990189
1592.000000	0.990242
1590.000000	0.990331
1588.000000	0.990360
1586.000000	0.990319
1584.000000	0.990295
1582.000000	0.990356
1580.000000	0.990448
1578.000000	0.990485
1576.000000	0.990031
1574.000000	0.990003
1572.000000	0.990466
1570.000000	0.990465
1568.000000	0.990448
1566.000000	0.990615
1564.000000	0.990712
1562.000000	0.990845
1560.000000	0.990434
1558.000000	0.989768
1556.000000	0.990068
1554.000000	0.990386
1552.000000	0.990568
1550.000000	0.990794
1548.000000	0.990899
1546.000000	0.990901
1544.000000	0.990878
1542.000000	0.990732
1540.000000	0.990168
1538.000000	0.990033
1536.000000	0.990727
1534.000000	0.990988
1532.000000	0.990989
1530.000000	0.991172
1528.000000	0.991211
1526.000000	0.991197
1524.000000	0.991316
1522.000000	0.991106
1520.000000	0.990869
1518.000000	0.991126
1516.000000	0.991216
1514.000000	0.991290
1512.000000	0.991323
1510.000000	0.991332
1508.000000	0.991285
1506.000000	0.990922
1504.000000	0.991263
1502.000000	0.992131
1500.000000	0.992624
1498.000000	0.992703
1496.000000	0.992056
1494.000000	0.991213
1492.000000	0.990693
1490.000000	0.990384
1488.000000	0.990356
1486.000000	0.990651
1484.000000	0.991031
1482.000000	0.991215
1480.000000	0.991363
1478.000000	0.991555
1476.000000	0.991498
1474.000000	0.991289
1472.000000	0.991051
1470.000000	0.991188
1468.000000	0.991496
1466.000000	0.991402
1464.000000	0.991205
1462.000000	0.991361
1460.000000	0.991572
1458.000000	0.991350
1456.000000	0.990967
1454.000000	0.991231
1452.000000	0.991395
1450.000000	0.990974
1448.000000	0.990568
1446.000000	0.990635
1444.000000	0.990904
1442.000000	0.990904
1440.000000	0.990886
1438.000000	0.990769
1436.000000	0.990438
1434.000000	0.990495
1432.000000	0.990675
1430.000000	0.990732
1428.000000	0.990716
1426.000000	0.990664
1424.000000	0.990591
1422.000000	0.990633
1420.000000	0.990517
1418.000000	0.990296
1416.000000	0.990409
1414.000000	0.990526
1412.000000	0.990582
1410.000000	0.990622
1408.000000	0.990679
1406.000000	0.990550
1404.000000	0.990225
1402.000000	0.989905
1400.000000	0.989626
1398.000000	0.989481
1396.000000	0.989491
1394.000000	0.989460
1392.000000	0.989515
1390.000000	0.989546
1388.000000	0.989493
1386.000000	0.989466
1384.000000	0.989380
1382.000000	0.989200
1380.000000	0.989198
1378.000000	0.989228
1376.000000	0.989182
1374.000000	0.988979
1372.000000	0.988864
1370.000000	0.988871
1368.000000	0.988752
1366.000000	0.988764
1364.000000	0.988666
1362.000000	0.988362
1360.000000	0.988251
1358.000000	0.988314
1356.000000	0.988353
1354.000000	0.988239
1352.000000	0.988139
1350.000000	0.988108
1348.000000	0.988073
1346.000000	0.987927
1344.000000	0.987810
1342.000000	0.987799
1340.000000	0.987719
1338.000000	0.987496
1336.000000	0.987379
1334.000000	0.987412
1332.000000	0.987407
1330.000000	0.987314
1328.000000	0.987283
1326.000000	0.987231
1324.000000	0.987155
1322.000000	0.987105
1320.000000	0.986990
1318.000000	0.986940
1316.000000	0.986925
1314.000000	0.986832
1312.000000	0.986681
1310.000000	0.986558
1308.000000	0.986546
1306.000000	0.986503
1304.000000	0.986425
1302.000000	0.986337
1300.000000	0.986310
1298.000000	0.986304
1296.000000	0.986244
1294.000000	0.986221
1292.000000	0.986137
1290.000000	0.986027
1288.000000	0.985938
1286.000000	0.985815
1284.000000	0.985840
1282.000000	0.985871
1280.000000	0.985864
1278.000000	0.985924
1276.000000	0.986000
1274.000000	0.986037
1272.000000	0.986187
1270.000000	0.986522
1268.000000	0.987239
1266.000000	0.988281
1264.000000	0.989388
1262.000000	0.990040
1260.000000	0.990012
1258.000000	0.989312
1256.000000	0.988217
1254.000000	0.987248
1252.000000	0.986668
1250.000000	0.986378
1248.000000	0.986219
1246.000000	0.986252
1244.000000	0.986259
1242.000000	0.986139
1240.000000	0.986146
1238.000000	0.986198
1236.000000	0.986192
1234.000000	0.986082
1232.000000	0.985999
1230.000000	0.985992
1228.000000	0.986054
1226.000000	0.986052
1224.000000	0.985972
1222.000000	0.985955
1220.000000	0.985932
1218.000000	0.985998
1216.000000	0.986073
1214.000000	0.986115
1212.000000	0.986136
1210.000000	0.986007
1208.000000	0.985851
1206.000000	0.985774
1204.000000	0.985784
1202.000000	0.985836
1200.000000	0.986027
1198.000000	0.986159
1196.000000	0.986324
1194.000000	0.986548
1192.000000	0.986520
1190.000000	0.986473
1188.000000	0.986672
1186.000000	0.986978
1184.000000	0.987232
1182.000000	0.987423
1180.000000	0.987433
1178.000000	0.987366
1176.000000	0.987406
1174.000000	0.987619
1172.000000	0.987880
1170.000000	0.988041
1168.000000	0.988163
1166.000000	0.988220
1164.000000	0.988335
1162.000000	0.988545
1160.000000	0.988652
1158.000000	0.988770
1156.000000	0.988803
1154.000000	0.988802
1152.000000	0.988897
1150.000000	0.989022
1148.000000	0.988964
1146.000000	0.988901
1144.000000	0.988909
1142.000000	0.988979
1140.000000	0.989002
1138.000000	0.989166
1136.000000	0.989352
1134.000000	0.989366
1132.000000	0.989251
1130.000000	0.989287
1128.000000	0.989375
1126.000000	0.989451
1124.000000	0.989620
1122.000000	0.989732
1120.000000	0.989834
1118.000000	0.990098
1116.000000	0.990239
1114.000000	0.990292
1112.000000	0.990399
1110.000000	0.990638
1108.000000	0.991108
1106.000000	0.991469
1104.000000	0.991612
1102.000000	0.991794
1100.000000	0.991863
1098.000000	0.991989
1096.000000	0.992383
1094.000000	0.992614
1092.000000	0.992363
1090.000000	0.992003
1088.000000	0.992029
1086.000000	0.992061
1084.000000	0.992086
1082.000000	0.991797
1080.000000	0.991281
1078.000000	0.990696
1076.000000	0.990255
1074.000000	0.989673
1072.000000	0.989435
1070.000000	0.989239
1068.000000	0.988558
1066.000000	0.987782
1064.000000	0.987353
1062.000000	0.987002
1060.000000	0.986193
1058.000000	0.985444
1056.000000	0.985032
1054.000000	0.984354
1052.000000	0.983776
1050.000000	0.983595
1048.000000	0.982977
1046.000000	0.982387
1044.000000	0.981946
1042.000000	0.981369
1040.000000	0.980384
1038.000000	0.979459
1036.000000	0.979720
1034.000000	0.979942
1032.000000	0.979111
1030.000000	0.978497
1028.000000	0.977979
1026.000000	0.977558
1024.000000	0.977490
1022.000000	0.977033
1020.000000	0.976688
1018.000000	0.976310
1016.000000	0.976230
1014.000000	0.976229
1012.000000	0.975683
1010.000000	0.974499
1008.000000	0.973269
1006.000000	0.972674
1004.000000	0.972135
1002.000000	0.971554
1000.000000	0.971708
