PE IR       SUBTECH     SPECTRUM    ASCII       PEDS        4.00        
   -1
TE109A_034_105K.ASC
20/04/21
14:13:18.00
20/04/21
14:13:18.00
Administrator
TE109A, Tuesday, April 21 2020, 034.
1000.000000
#HDR
-1
-1
#GR
cm-1
A
1.0
0.0
6000.000000
-2.000000
2501
8
1.227498
1.093769
#DATA
6000.000000	1.107520
5998.000000	1.107569
5996.000000	1.107315
5994.000000	1.106540
5992.000000	1.106216
5990.000000	1.106081
5988.000000	1.106030
5986.000000	1.105662
5984.000000	1.105070
5982.000000	1.104966
5980.000000	1.105204
5978.000000	1.105375
5976.000000	1.105231
5974.000000	1.105562
5972.000000	1.105861
5970.000000	1.105869
5968.000000	1.105928
5966.000000	1.106094
5964.000000	1.106328
5962.000000	1.106228
5960.000000	1.105657
5958.000000	1.105687
5956.000000	1.105896
5954.000000	1.105803
5952.000000	1.105751
5950.000000	1.105870
5948.000000	1.106194
5946.000000	1.105906
5944.000000	1.105358
5942.000000	1.104911
5940.000000	1.104904
5938.000000	1.105136
5936.000000	1.105168
5934.000000	1.105402
5932.000000	1.105164
5930.000000	1.105163
5928.000000	1.105132
5926.000000	1.105145
5924.000000	1.105299
5922.000000	1.105369
5920.000000	1.105474
5918.000000	1.105349
5916.000000	1.104940
5914.000000	1.104761
5912.000000	1.104514
5910.000000	1.104624
5908.000000	1.104755
5906.000000	1.104901
5904.000000	1.105009
5902.000000	1.105405
5900.000000	1.105638
5898.000000	1.105333
5896.000000	1.105225
5894.000000	1.105115
5892.000000	1.105144
5890.000000	1.105545
5888.000000	1.105619
5886.000000	1.105476
5884.000000	1.104765
5882.000000	1.104569
5880.000000	1.105074
5878.000000	1.105416
5876.000000	1.105249
5874.000000	1.105117
5872.000000	1.105414
5870.000000	1.105704
5868.000000	1.105646
5866.000000	1.105582
5864.000000	1.105252
5862.000000	1.105035
5860.000000	1.104548
5858.000000	1.104131
5856.000000	1.104034
5854.000000	1.104103
5852.000000	1.104128
5850.000000	1.104161
5848.000000	1.104126
5846.000000	1.104016
5844.000000	1.103981
5842.000000	1.104392
5840.000000	1.104694
5838.000000	1.104969
5836.000000	1.104882
5834.000000	1.104641
5832.000000	1.104522
5830.000000	1.104351
5828.000000	1.104588
5826.000000	1.104394
5824.000000	1.103932
5822.000000	1.104041
5820.000000	1.104882
5818.000000	1.105575
5816.000000	1.105667
5814.000000	1.105096
5812.000000	1.105038
5810.000000	1.105247
5808.000000	1.105403
5806.000000	1.105353
5804.000000	1.104987
5802.000000	1.104999
5800.000000	1.105381
5798.000000	1.105923
5796.000000	1.105893
5794.000000	1.105215
5792.000000	1.104593
5790.000000	1.104456
5788.000000	1.104788
5786.000000	1.104738
5784.000000	1.104465
5782.000000	1.104527
5780.000000	1.104764
5778.000000	1.104837
5776.000000	1.104738
5774.000000	1.104657
5772.000000	1.105099
5770.000000	1.105502
5768.000000	1.105313
5766.000000	1.104805
5764.000000	1.104726
5762.000000	1.104949
5760.000000	1.104977
5758.000000	1.104758
5756.000000	1.104610
5754.000000	1.104421
5752.000000	1.104198
5750.000000	1.104430
5748.000000	1.104892
5746.000000	1.104624
5744.000000	1.103828
5742.000000	1.103864
5740.000000	1.104523
5738.000000	1.104785
5736.000000	1.104521
5734.000000	1.104388
5732.000000	1.104248
5730.000000	1.104229
5728.000000	1.104255
5726.000000	1.104473
5724.000000	1.104673
5722.000000	1.104692
5720.000000	1.104962
5718.000000	1.105246
5716.000000	1.105173
5714.000000	1.104688
5712.000000	1.104358
5710.000000	1.104272
5708.000000	1.104713
5706.000000	1.105176
5704.000000	1.105545
5702.000000	1.105726
5700.000000	1.105511
5698.000000	1.105406
5696.000000	1.105260
5694.000000	1.104875
5692.000000	1.104722
5690.000000	1.104864
5688.000000	1.105204
5686.000000	1.105295
5684.000000	1.105287
5682.000000	1.105593
5680.000000	1.105567
5678.000000	1.105247
5676.000000	1.105064
5674.000000	1.105120
5672.000000	1.105283
5670.000000	1.105131
5668.000000	1.105010
5666.000000	1.104874
5664.000000	1.104626
5662.000000	1.104692
5660.000000	1.104655
5658.000000	1.104515
5656.000000	1.104324
5654.000000	1.104357
5652.000000	1.104508
5650.000000	1.104546
5648.000000	1.104430
5646.000000	1.104383
5644.000000	1.104515
5642.000000	1.104763
5640.000000	1.105010
5638.000000	1.105159
5636.000000	1.105186
5634.000000	1.105303
5632.000000	1.105387
5630.000000	1.105341
5628.000000	1.105263
5626.000000	1.105087
5624.000000	1.104865
5622.000000	1.104528
5620.000000	1.104245
5618.000000	1.104654
5616.000000	1.105201
5614.000000	1.105093
5612.000000	1.104517
5610.000000	1.104268
5608.000000	1.104716
5606.000000	1.104725
5604.000000	1.104213
5602.000000	1.104019
5600.000000	1.104462
5598.000000	1.105159
5596.000000	1.105398
5594.000000	1.105388
5592.000000	1.105252
5590.000000	1.105320
5588.000000	1.105348
5586.000000	1.105209
5584.000000	1.105024
5582.000000	1.104877
5580.000000	1.104898
5578.000000	1.104721
5576.000000	1.104613
5574.000000	1.104726
5572.000000	1.104829
5570.000000	1.104954
5568.000000	1.104982
5566.000000	1.105080
5564.000000	1.104972
5562.000000	1.104685
5560.000000	1.104431
5558.000000	1.104540
5556.000000	1.104730
5554.000000	1.105000
5552.000000	1.105014
5550.000000	1.104545
5548.000000	1.104121
5546.000000	1.103863
5544.000000	1.104209
5542.000000	1.104520
5540.000000	1.104431
5538.000000	1.104308
5536.000000	1.104138
5534.000000	1.104281
5532.000000	1.104434
5530.000000	1.104346
5528.000000	1.104096
5526.000000	1.103956
5524.000000	1.104126
5522.000000	1.104659
5520.000000	1.105073
5518.000000	1.104964
5516.000000	1.104618
5514.000000	1.104688
5512.000000	1.104907
5510.000000	1.104852
5508.000000	1.104579
5506.000000	1.104707
5504.000000	1.104942
5502.000000	1.104884
5500.000000	1.104758
5498.000000	1.104671
5496.000000	1.104475
5494.000000	1.104248
5492.000000	1.104175
5490.000000	1.104298
5488.000000	1.104472
5486.000000	1.104387
5484.000000	1.104274
5482.000000	1.104315
5480.000000	1.104499
5478.000000	1.104651
5476.000000	1.104393
5474.000000	1.104084
5472.000000	1.103900
5470.000000	1.104068
5468.000000	1.104447
5466.000000	1.104305
5464.000000	1.103979
5462.000000	1.103758
5460.000000	1.103863
5458.000000	1.104074
5456.000000	1.103853
5454.000000	1.103861
5452.000000	1.103858
5450.000000	1.103944
5448.000000	1.103997
5446.000000	1.104096
5444.000000	1.104421
5442.000000	1.104508
5440.000000	1.104411
5438.000000	1.104207
5436.000000	1.104065
5434.000000	1.104038
5432.000000	1.104209
5430.000000	1.104405
5428.000000	1.104382
5426.000000	1.104186
5424.000000	1.103990
5422.000000	1.103671
5420.000000	1.103688
5418.000000	1.104141
5416.000000	1.104410
5414.000000	1.104005
5412.000000	1.103424
5410.000000	1.103353
5408.000000	1.103637
5406.000000	1.103913
5404.000000	1.104098
5402.000000	1.104187
5400.000000	1.104150
5398.000000	1.104009
5396.000000	1.104120
5394.000000	1.104076
5392.000000	1.103952
5390.000000	1.103905
5388.000000	1.104160
5386.000000	1.104495
5384.000000	1.104331
5382.000000	1.104258
5380.000000	1.104217
5378.000000	1.104074
5376.000000	1.103873
5374.000000	1.104123
5372.000000	1.104798
5370.000000	1.105123
5368.000000	1.104800
5366.000000	1.104330
5364.000000	1.104206
5362.000000	1.104499
5360.000000	1.104839
5358.000000	1.104695
5356.000000	1.104128
5354.000000	1.103763
5352.000000	1.103910
5350.000000	1.104333
5348.000000	1.104719
5346.000000	1.104981
5344.000000	1.104793
5342.000000	1.104423
5340.000000	1.104506
5338.000000	1.104915
5336.000000	1.105068
5334.000000	1.104768
5332.000000	1.104726
5330.000000	1.104987
5328.000000	1.105306
5326.000000	1.105413
5324.000000	1.105547
5322.000000	1.105702
5320.000000	1.105861
5318.000000	1.106091
5316.000000	1.106255
5314.000000	1.106323
5312.000000	1.106303
5310.000000	1.106454
5308.000000	1.106554
5306.000000	1.106579
5304.000000	1.106743
5302.000000	1.107022
5300.000000	1.107348
5298.000000	1.107508
5296.000000	1.107656
5294.000000	1.107691
5292.000000	1.107598
5290.000000	1.107600
5288.000000	1.107771
5286.000000	1.108106
5284.000000	1.108399
5282.000000	1.108548
5280.000000	1.108649
5278.000000	1.108885
5276.000000	1.109254
5274.000000	1.109542
5272.000000	1.109729
5270.000000	1.109769
5268.000000	1.109951
5266.000000	1.110050
5264.000000	1.110108
5262.000000	1.110203
5260.000000	1.110535
5258.000000	1.111105
5256.000000	1.111446
5254.000000	1.111643
5252.000000	1.111890
5250.000000	1.112335
5248.000000	1.112745
5246.000000	1.112951
5244.000000	1.113142
5242.000000	1.113471
5240.000000	1.113899
5238.000000	1.114218
5236.000000	1.114458
5234.000000	1.114747
5232.000000	1.115255
5230.000000	1.115723
5228.000000	1.116062
5226.000000	1.116293
5224.000000	1.116815
5222.000000	1.117422
5220.000000	1.118107
5218.000000	1.118720
5216.000000	1.119195
5214.000000	1.119464
5212.000000	1.119504
5210.000000	1.119473
5208.000000	1.119583
5206.000000	1.120157
5204.000000	1.121016
5202.000000	1.121611
5200.000000	1.121805
5198.000000	1.121988
5196.000000	1.122293
5194.000000	1.122760
5192.000000	1.123450
5190.000000	1.124169
5188.000000	1.124821
5186.000000	1.125232
5184.000000	1.125483
5182.000000	1.125658
5180.000000	1.125851
5178.000000	1.126267
5176.000000	1.126704
5174.000000	1.127195
5172.000000	1.127524
5170.000000	1.127922
5168.000000	1.128424
5166.000000	1.128891
5164.000000	1.129138
5162.000000	1.129285
5160.000000	1.129644
5158.000000	1.129976
5156.000000	1.130229
5154.000000	1.130685
5152.000000	1.131379
5150.000000	1.131884
5148.000000	1.131953
5146.000000	1.132067
5144.000000	1.132472
5142.000000	1.132820
5140.000000	1.133072
5138.000000	1.133283
5136.000000	1.133565
5134.000000	1.133935
5132.000000	1.134197
5130.000000	1.134196
5128.000000	1.133934
5126.000000	1.134028
5124.000000	1.134425
5122.000000	1.134777
5120.000000	1.135144
5118.000000	1.135539
5116.000000	1.135762
5114.000000	1.135929
5112.000000	1.136115
5110.000000	1.136341
5108.000000	1.136399
5106.000000	1.136361
5104.000000	1.136234
5102.000000	1.136169
5100.000000	1.136265
5098.000000	1.136385
5096.000000	1.136466
5094.000000	1.136614
5092.000000	1.136752
5090.000000	1.136911
5088.000000	1.137029
5086.000000	1.137109
5084.000000	1.137055
5082.000000	1.136986
5080.000000	1.136996
5078.000000	1.136989
5076.000000	1.136874
5074.000000	1.136865
5072.000000	1.137082
5070.000000	1.137320
5068.000000	1.137340
5066.000000	1.137077
5064.000000	1.136880
5062.000000	1.137088
5060.000000	1.137446
5058.000000	1.137422
5056.000000	1.137352
5054.000000	1.137489
5052.000000	1.137637
5050.000000	1.137602
5048.000000	1.137649
5046.000000	1.137595
5044.000000	1.137248
5042.000000	1.136820
5040.000000	1.136740
5038.000000	1.136905
5036.000000	1.137136
5034.000000	1.137329
5032.000000	1.137332
5030.000000	1.137174
5028.000000	1.137009
5026.000000	1.137237
5024.000000	1.137674
5022.000000	1.137906
5020.000000	1.137548
5018.000000	1.136943
5016.000000	1.136707
5014.000000	1.136791
5012.000000	1.136957
5010.000000	1.137120
5008.000000	1.137252
5006.000000	1.137216
5004.000000	1.136994
5002.000000	1.136492
5000.000000	1.135980
4998.000000	1.135931
4996.000000	1.136316
4994.000000	1.136529
4992.000000	1.136400
4990.000000	1.136166
4988.000000	1.136006
4986.000000	1.136085
4984.000000	1.136300
4982.000000	1.136260
4980.000000	1.135916
4978.000000	1.135756
4976.000000	1.135685
4974.000000	1.135598
4972.000000	1.135585
4970.000000	1.135697
4968.000000	1.135649
4966.000000	1.135474
4964.000000	1.135306
4962.000000	1.135128
4960.000000	1.134906
4958.000000	1.134573
4956.000000	1.134156
4954.000000	1.133922
4952.000000	1.134098
4950.000000	1.134245
4948.000000	1.134099
4946.000000	1.133774
4944.000000	1.133697
4942.000000	1.133950
4940.000000	1.134208
4938.000000	1.134189
4936.000000	1.133941
4934.000000	1.133769
4932.000000	1.133524
4930.000000	1.133323
4928.000000	1.133254
4926.000000	1.133146
4924.000000	1.132975
4922.000000	1.132722
4920.000000	1.132416
4918.000000	1.132181
4916.000000	1.132243
4914.000000	1.132392
4912.000000	1.132355
4910.000000	1.132081
4908.000000	1.131742
4906.000000	1.131535
4904.000000	1.131346
4902.000000	1.131218
4900.000000	1.131094
4898.000000	1.130945
4896.000000	1.130838
4894.000000	1.130847
4892.000000	1.130747
4890.000000	1.130360
4888.000000	1.129851
4886.000000	1.129667
4884.000000	1.129845
4882.000000	1.129879
4880.000000	1.129512
4878.000000	1.129055
4876.000000	1.128773
4874.000000	1.128651
4872.000000	1.128588
4870.000000	1.128494
4868.000000	1.128452
4866.000000	1.128451
4864.000000	1.128421
4862.000000	1.128114
4860.000000	1.127588
4858.000000	1.127044
4856.000000	1.126927
4854.000000	1.127096
4852.000000	1.127240
4850.000000	1.127164
4848.000000	1.126908
4846.000000	1.126540
4844.000000	1.126167
4842.000000	1.126025
4840.000000	1.125878
4838.000000	1.125504
4836.000000	1.125085
4834.000000	1.124916
4832.000000	1.124937
4830.000000	1.124822
4828.000000	1.124539
4826.000000	1.124220
4824.000000	1.124012
4822.000000	1.123849
4820.000000	1.123697
4818.000000	1.123512
4816.000000	1.123347
4814.000000	1.123312
4812.000000	1.123261
4810.000000	1.122904
4808.000000	1.122384
4806.000000	1.122110
4804.000000	1.122133
4802.000000	1.122192
4800.000000	1.121978
4798.000000	1.121512
4796.000000	1.121124
4794.000000	1.121077
4792.000000	1.120972
4790.000000	1.120570
4788.000000	1.120185
4786.000000	1.120005
4784.000000	1.119796
4782.000000	1.119543
4780.000000	1.119367
4778.000000	1.119116
4776.000000	1.118809
4774.000000	1.118700
4772.000000	1.118752
4770.000000	1.118639
4768.000000	1.118423
4766.000000	1.118177
4764.000000	1.117971
4762.000000	1.117719
4760.000000	1.117516
4758.000000	1.117333
4756.000000	1.117076
4754.000000	1.116731
4752.000000	1.116484
4750.000000	1.116374
4748.000000	1.116262
4746.000000	1.116136
4744.000000	1.116039
4742.000000	1.115991
4740.000000	1.115882
4738.000000	1.115646
4736.000000	1.115506
4734.000000	1.115324
4732.000000	1.114953
4730.000000	1.114502
4728.000000	1.114272
4726.000000	1.114151
4724.000000	1.113966
4722.000000	1.113705
4720.000000	1.113549
4718.000000	1.113389
4716.000000	1.113166
4714.000000	1.113023
4712.000000	1.113027
4710.000000	1.113126
4708.000000	1.113193
4706.000000	1.113100
4704.000000	1.112830
4702.000000	1.112536
4700.000000	1.112329
4698.000000	1.112282
4696.000000	1.112170
4694.000000	1.111972
4692.000000	1.111736
4690.000000	1.111477
4688.000000	1.111181
4686.000000	1.110981
4684.000000	1.110870
4682.000000	1.110840
4680.000000	1.110760
4678.000000	1.110562
4676.000000	1.110376
4674.000000	1.110318
4672.000000	1.110101
4670.000000	1.109733
4668.000000	1.109473
4666.000000	1.109447
4664.000000	1.109536
4662.000000	1.109635
4660.000000	1.109561
4658.000000	1.109371
4656.000000	1.109178
4654.000000	1.109001
4652.000000	1.108973
4650.000000	1.108898
4648.000000	1.108621
4646.000000	1.108372
4644.000000	1.108388
4642.000000	1.108367
4640.000000	1.108203
4638.000000	1.108096
4636.000000	1.108184
4634.000000	1.108209
4632.000000	1.108042
4630.000000	1.107919
4628.000000	1.107994
4626.000000	1.108059
4624.000000	1.107909
4622.000000	1.107600
4620.000000	1.107278
4618.000000	1.107067
4616.000000	1.106990
4614.000000	1.107033
4612.000000	1.107129
4610.000000	1.107191
4608.000000	1.107115
4606.000000	1.107043
4604.000000	1.107003
4602.000000	1.106810
4600.000000	1.106557
4598.000000	1.106434
4596.000000	1.106398
4594.000000	1.106468
4592.000000	1.106531
4590.000000	1.106402
4588.000000	1.106205
4586.000000	1.106084
4584.000000	1.105930
4582.000000	1.105824
4580.000000	1.105922
4578.000000	1.106030
4576.000000	1.105911
4574.000000	1.105694
4572.000000	1.105627
4570.000000	1.105538
4568.000000	1.105267
4566.000000	1.105118
4564.000000	1.105183
4562.000000	1.105304
4560.000000	1.105382
4558.000000	1.105360
4556.000000	1.105221
4554.000000	1.105162
4552.000000	1.105132
4550.000000	1.105147
4548.000000	1.105130
4546.000000	1.104938
4544.000000	1.104666
4542.000000	1.104672
4540.000000	1.104795
4538.000000	1.104750
4536.000000	1.104543
4534.000000	1.104448
4532.000000	1.104483
4530.000000	1.104490
4528.000000	1.104425
4526.000000	1.104302
4524.000000	1.104240
4522.000000	1.104242
4520.000000	1.104127
4518.000000	1.103937
4516.000000	1.103932
4514.000000	1.103948
4512.000000	1.103877
4510.000000	1.103952
4508.000000	1.104018
4506.000000	1.103965
4504.000000	1.103864
4502.000000	1.103760
4500.000000	1.103699
4498.000000	1.103709
4496.000000	1.103613
4494.000000	1.103624
4492.000000	1.103680
4490.000000	1.103528
4488.000000	1.103373
4486.000000	1.103328
4484.000000	1.103229
4482.000000	1.103207
4480.000000	1.103227
4478.000000	1.103161
4476.000000	1.103119
4474.000000	1.103180
4472.000000	1.103277
4470.000000	1.103310
4468.000000	1.103221
4466.000000	1.103113
4464.000000	1.103091
4462.000000	1.103223
4460.000000	1.103330
4458.000000	1.103319
4456.000000	1.103415
4454.000000	1.103485
4452.000000	1.103280
4450.000000	1.103109
4448.000000	1.103218
4446.000000	1.103381
4444.000000	1.103366
4442.000000	1.103188
4440.000000	1.103049
4438.000000	1.103098
4436.000000	1.103195
4434.000000	1.103233
4432.000000	1.103260
4430.000000	1.103258
4428.000000	1.103245
4426.000000	1.103196
4424.000000	1.103072
4422.000000	1.103106
4420.000000	1.103210
4418.000000	1.103188
4416.000000	1.103204
4414.000000	1.103216
4412.000000	1.103075
4410.000000	1.103079
4408.000000	1.103263
4406.000000	1.103305
4404.000000	1.103183
4402.000000	1.103130
4400.000000	1.103134
4398.000000	1.103111
4396.000000	1.103118
4394.000000	1.103186
4392.000000	1.103300
4390.000000	1.103403
4388.000000	1.103450
4386.000000	1.103462
4384.000000	1.103475
4382.000000	1.103533
4380.000000	1.103548
4378.000000	1.103598
4376.000000	1.103814
4374.000000	1.104013
4372.000000	1.103982
4370.000000	1.103926
4368.000000	1.103994
4366.000000	1.104109
4364.000000	1.104193
4362.000000	1.104292
4360.000000	1.104399
4358.000000	1.104467
4356.000000	1.104534
4354.000000	1.104558
4352.000000	1.104594
4350.000000	1.104749
4348.000000	1.104860
4346.000000	1.104843
4344.000000	1.105011
4342.000000	1.105257
4340.000000	1.105197
4338.000000	1.104990
4336.000000	1.105063
4334.000000	1.105365
4332.000000	1.105559
4330.000000	1.105506
4328.000000	1.105437
4326.000000	1.105524
4324.000000	1.105678
4322.000000	1.105690
4320.000000	1.105718
4318.000000	1.105939
4316.000000	1.106260
4314.000000	1.106349
4312.000000	1.106208
4310.000000	1.106235
4308.000000	1.106476
4306.000000	1.106532
4304.000000	1.106484
4302.000000	1.106598
4300.000000	1.106810
4298.000000	1.106972
4296.000000	1.107076
4294.000000	1.107067
4292.000000	1.106992
4290.000000	1.107106
4288.000000	1.107342
4286.000000	1.107367
4284.000000	1.107374
4282.000000	1.107588
4280.000000	1.107750
4278.000000	1.107824
4276.000000	1.107988
4274.000000	1.108126
4272.000000	1.108229
4270.000000	1.108415
4268.000000	1.108599
4266.000000	1.108687
4264.000000	1.108674
4262.000000	1.108599
4260.000000	1.108555
4258.000000	1.108651
4256.000000	1.108806
4254.000000	1.108934
4252.000000	1.109156
4250.000000	1.109399
4248.000000	1.109490
4246.000000	1.109416
4244.000000	1.109283
4242.000000	1.109302
4240.000000	1.109493
4238.000000	1.109629
4236.000000	1.109647
4234.000000	1.109618
4232.000000	1.109693
4230.000000	1.109940
4228.000000	1.110217
4226.000000	1.110346
4224.000000	1.110368
4222.000000	1.110349
4220.000000	1.110307
4218.000000	1.110360
4216.000000	1.110515
4214.000000	1.110557
4212.000000	1.110603
4210.000000	1.110756
4208.000000	1.110748
4206.000000	1.110666
4204.000000	1.110757
4202.000000	1.110864
4200.000000	1.110895
4198.000000	1.110954
4196.000000	1.110989
4194.000000	1.110932
4192.000000	1.110870
4190.000000	1.110928
4188.000000	1.111039
4186.000000	1.111113
4184.000000	1.111181
4182.000000	1.111283
4180.000000	1.111391
4178.000000	1.111474
4176.000000	1.111454
4174.000000	1.111335
4172.000000	1.111247
4170.000000	1.111351
4168.000000	1.111522
4166.000000	1.111536
4164.000000	1.111447
4162.000000	1.111492
4160.000000	1.111638
4158.000000	1.111709
4156.000000	1.111733
4154.000000	1.111759
4152.000000	1.111796
4150.000000	1.111902
4148.000000	1.111950
4146.000000	1.111943
4144.000000	1.111964
4142.000000	1.111938
4140.000000	1.111912
4138.000000	1.111856
4136.000000	1.111772
4134.000000	1.111899
4132.000000	1.112054
4130.000000	1.112014
4128.000000	1.112021
4126.000000	1.112128
4124.000000	1.112190
4122.000000	1.112294
4120.000000	1.112372
4118.000000	1.112321
4116.000000	1.112259
4114.000000	1.112294
4112.000000	1.112347
4110.000000	1.112366
4108.000000	1.112367
4106.000000	1.112474
4104.000000	1.112612
4102.000000	1.112603
4100.000000	1.112480
4098.000000	1.112388
4096.000000	1.112371
4094.000000	1.112444
4092.000000	1.112539
4090.000000	1.112547
4088.000000	1.112489
4086.000000	1.112522
4084.000000	1.112647
4082.000000	1.112784
4080.000000	1.112845
4078.000000	1.112874
4076.000000	1.112971
4074.000000	1.113036
4072.000000	1.112982
4070.000000	1.112938
4068.000000	1.113028
4066.000000	1.113197
4064.000000	1.113336
4062.000000	1.113442
4060.000000	1.113415
4058.000000	1.113384
4056.000000	1.113505
4054.000000	1.113581
4052.000000	1.113505
4050.000000	1.113415
4048.000000	1.113477
4046.000000	1.113640
4044.000000	1.113682
4042.000000	1.113691
4040.000000	1.113775
4038.000000	1.113757
4036.000000	1.113721
4034.000000	1.113895
4032.000000	1.113959
4030.000000	1.113835
4028.000000	1.113817
4026.000000	1.113799
4024.000000	1.113783
4022.000000	1.113938
4020.000000	1.114005
4018.000000	1.113935
4016.000000	1.113997
4014.000000	1.114102
4012.000000	1.114026
4010.000000	1.113888
4008.000000	1.113820
4006.000000	1.113835
4004.000000	1.113879
4002.000000	1.113846
4000.000000	1.113837
3998.000000	1.113944
3996.000000	1.113919
3994.000000	1.113822
3992.000000	1.113794
3990.000000	1.113723
3988.000000	1.113737
3986.000000	1.113820
3984.000000	1.113679
3982.000000	1.113459
3980.000000	1.113389
3978.000000	1.113319
3976.000000	1.113209
3974.000000	1.113194
3972.000000	1.113096
3970.000000	1.112897
3968.000000	1.112726
3966.000000	1.112590
3964.000000	1.112543
3962.000000	1.112514
3960.000000	1.112421
3958.000000	1.112281
3956.000000	1.112040
3954.000000	1.111770
3952.000000	1.111428
3950.000000	1.111058
3948.000000	1.110918
3946.000000	1.110840
3944.000000	1.110487
3942.000000	1.110111
3940.000000	1.109946
3938.000000	1.109878
3936.000000	1.109760
3934.000000	1.109438
3932.000000	1.109000
3930.000000	1.108752
3928.000000	1.108597
3926.000000	1.108393
3924.000000	1.108205
3922.000000	1.107908
3920.000000	1.107367
3918.000000	1.106818
3916.000000	1.106602
3914.000000	1.106676
3912.000000	1.106581
3910.000000	1.106322
3908.000000	1.105995
3906.000000	1.105102
3904.000000	1.103906
3902.000000	1.103302
3900.000000	1.103309
3898.000000	1.103638
3896.000000	1.103959
3894.000000	1.103784
3892.000000	1.103119
3890.000000	1.102797
3888.000000	1.102620
3886.000000	1.101890
3884.000000	1.101533
3882.000000	1.101586
3880.000000	1.101419
3878.000000	1.101502
3876.000000	1.101442
3874.000000	1.100975
3872.000000	1.100246
3870.000000	1.099400
3868.000000	1.099361
3866.000000	1.099646
3864.000000	1.099513
3862.000000	1.099497
3860.000000	1.099601
3858.000000	1.099364
3856.000000	1.097534
3854.000000	1.094776
3852.000000	1.094653
3850.000000	1.096992
3848.000000	1.098560
3846.000000	1.098659
3844.000000	1.098251
3842.000000	1.097730
3840.000000	1.096708
3838.000000	1.095600
3836.000000	1.095676
3834.000000	1.096421
3832.000000	1.096828
3830.000000	1.097146
3828.000000	1.097291
3826.000000	1.097202
3824.000000	1.096804
3822.000000	1.095804
3820.000000	1.095394
3818.000000	1.095342
3816.000000	1.094843
3814.000000	1.095421
3812.000000	1.096638
3810.000000	1.096711
3808.000000	1.095676
3806.000000	1.095289
3804.000000	1.095475
3802.000000	1.094673
3800.000000	1.094533
3798.000000	1.095498
3796.000000	1.096088
3794.000000	1.096525
3792.000000	1.096902
3790.000000	1.097064
3788.000000	1.096987
3786.000000	1.096808
3784.000000	1.096857
3782.000000	1.096842
3780.000000	1.096624
3778.000000	1.096777
3776.000000	1.097163
3774.000000	1.097250
3772.000000	1.096985
3770.000000	1.096629
3768.000000	1.096665
3766.000000	1.096803
3764.000000	1.096972
3762.000000	1.097134
3760.000000	1.097001
3758.000000	1.097050
3756.000000	1.097288
3754.000000	1.096474
3752.000000	1.094644
3750.000000	1.093905
3748.000000	1.094693
3746.000000	1.094459
3744.000000	1.093769
3742.000000	1.095533
3740.000000	1.097440
3738.000000	1.097234
3736.000000	1.096490
3734.000000	1.096483
3732.000000	1.097032
3730.000000	1.098128
3728.000000	1.099133
3726.000000	1.099351
3724.000000	1.099411
3722.000000	1.099801
3720.000000	1.100425
3718.000000	1.101036
3716.000000	1.101542
3714.000000	1.101302
3712.000000	1.100607
3710.000000	1.101113
3708.000000	1.102715
3706.000000	1.104085
3704.000000	1.104855
3702.000000	1.105466
3700.000000	1.106446
3698.000000	1.107706
3696.000000	1.108853
3694.000000	1.109685
3692.000000	1.110029
3690.000000	1.109841
3688.000000	1.110437
3686.000000	1.112909
3684.000000	1.115558
3682.000000	1.117278
3680.000000	1.118618
3678.000000	1.119290
3676.000000	1.119463
3674.000000	1.121204
3672.000000	1.123573
3670.000000	1.125260
3668.000000	1.127965
3666.000000	1.131120
3664.000000	1.133508
3662.000000	1.135442
3660.000000	1.137349
3658.000000	1.138815
3656.000000	1.140111
3654.000000	1.142168
3652.000000	1.143609
3650.000000	1.143943
3648.000000	1.145383
3646.000000	1.148340
3644.000000	1.151200
3642.000000	1.153225
3640.000000	1.154857
3638.000000	1.156414
3636.000000	1.157789
3634.000000	1.159109
3632.000000	1.160173
3630.000000	1.160087
3628.000000	1.160677
3626.000000	1.163274
3624.000000	1.165524
3622.000000	1.166368
3620.000000	1.166710
3618.000000	1.167764
3616.000000	1.169307
3614.000000	1.170250
3612.000000	1.170934
3610.000000	1.171607
3608.000000	1.172335
3606.000000	1.173612
3604.000000	1.174989
3602.000000	1.175939
3600.000000	1.176567
3598.000000	1.177074
3596.000000	1.177599
3594.000000	1.178244
3592.000000	1.178972
3590.000000	1.179382
3588.000000	1.179429
3586.000000	1.179907
3584.000000	1.180854
3582.000000	1.181710
3580.000000	1.182264
3578.000000	1.182623
3576.000000	1.182999
3574.000000	1.183392
3572.000000	1.183813
3570.000000	1.183981
3568.000000	1.183718
3566.000000	1.183823
3564.000000	1.184577
3562.000000	1.185269
3560.000000	1.185690
3558.000000	1.186051
3556.000000	1.186450
3554.000000	1.186673
3552.000000	1.186888
3550.000000	1.187236
3548.000000	1.187297
3546.000000	1.187258
3544.000000	1.187640
3542.000000	1.188197
3540.000000	1.188498
3538.000000	1.188609
3536.000000	1.188760
3534.000000	1.189021
3532.000000	1.189264
3530.000000	1.189427
3528.000000	1.189583
3526.000000	1.189858
3524.000000	1.190130
3522.000000	1.190296
3520.000000	1.190410
3518.000000	1.190635
3516.000000	1.191091
3514.000000	1.191444
3512.000000	1.191616
3510.000000	1.191836
3508.000000	1.192033
3506.000000	1.192101
3504.000000	1.192216
3502.000000	1.192523
3500.000000	1.192736
3498.000000	1.192908
3496.000000	1.193211
3494.000000	1.193480
3492.000000	1.193796
3490.000000	1.194146
3488.000000	1.194486
3486.000000	1.194827
3484.000000	1.194996
3482.000000	1.195136
3480.000000	1.195466
3478.000000	1.195765
3476.000000	1.195955
3474.000000	1.196138
3472.000000	1.196320
3470.000000	1.196488
3468.000000	1.196747
3466.000000	1.197135
3464.000000	1.197483
3462.000000	1.197627
3460.000000	1.197738
3458.000000	1.198060
3456.000000	1.198385
3454.000000	1.198543
3452.000000	1.198723
3450.000000	1.199026
3448.000000	1.199325
3446.000000	1.199458
3444.000000	1.199596
3442.000000	1.199900
3440.000000	1.200319
3438.000000	1.200636
3436.000000	1.200666
3434.000000	1.200690
3432.000000	1.200864
3430.000000	1.201012
3428.000000	1.201141
3426.000000	1.201229
3424.000000	1.201250
3422.000000	1.201428
3420.000000	1.201700
3418.000000	1.201973
3416.000000	1.202221
3414.000000	1.202392
3412.000000	1.202491
3410.000000	1.202523
3408.000000	1.202718
3406.000000	1.203044
3404.000000	1.203264
3402.000000	1.203322
3400.000000	1.203417
3398.000000	1.203528
3396.000000	1.203637
3394.000000	1.203698
3392.000000	1.203671
3390.000000	1.203735
3388.000000	1.203844
3386.000000	1.203982
3384.000000	1.204239
3382.000000	1.204373
3380.000000	1.204397
3378.000000	1.204524
3376.000000	1.204585
3374.000000	1.204556
3372.000000	1.204619
3370.000000	1.204740
3368.000000	1.204865
3366.000000	1.205033
3364.000000	1.205157
3362.000000	1.205154
3360.000000	1.205093
3358.000000	1.205120
3356.000000	1.205251
3354.000000	1.205382
3352.000000	1.205500
3350.000000	1.205538
3348.000000	1.205591
3346.000000	1.205728
3344.000000	1.205779
3342.000000	1.205812
3340.000000	1.205969
3338.000000	1.206053
3336.000000	1.206069
3334.000000	1.206177
3332.000000	1.206307
3330.000000	1.206378
3328.000000	1.206342
3326.000000	1.206357
3324.000000	1.206529
3322.000000	1.206669
3320.000000	1.206661
3318.000000	1.206764
3316.000000	1.207048
3314.000000	1.207205
3312.000000	1.207147
3310.000000	1.207117
3308.000000	1.207181
3306.000000	1.207253
3304.000000	1.207352
3302.000000	1.207496
3300.000000	1.207688
3298.000000	1.207869
3296.000000	1.207850
3294.000000	1.207781
3292.000000	1.207875
3290.000000	1.208044
3288.000000	1.208187
3286.000000	1.208185
3284.000000	1.208260
3282.000000	1.208562
3280.000000	1.208763
3278.000000	1.208859
3276.000000	1.208930
3274.000000	1.208835
3272.000000	1.208751
3270.000000	1.208905
3268.000000	1.208989
3266.000000	1.209057
3264.000000	1.209295
3262.000000	1.209418
3260.000000	1.209396
3258.000000	1.209447
3256.000000	1.209681
3254.000000	1.209877
3252.000000	1.209832
3250.000000	1.209662
3248.000000	1.209688
3246.000000	1.209908
3244.000000	1.210044
3242.000000	1.210046
3240.000000	1.210068
3238.000000	1.210090
3236.000000	1.210134
3234.000000	1.210161
3232.000000	1.210132
3230.000000	1.210219
3228.000000	1.210298
3226.000000	1.210437
3224.000000	1.210682
3222.000000	1.210723
3220.000000	1.210549
3218.000000	1.210565
3216.000000	1.210787
3214.000000	1.210946
3212.000000	1.210991
3210.000000	1.211000
3208.000000	1.211001
3206.000000	1.210972
3204.000000	1.211031
3202.000000	1.211139
3200.000000	1.211253
3198.000000	1.211250
3196.000000	1.211162
3194.000000	1.211132
3192.000000	1.211184
3190.000000	1.211248
3188.000000	1.211298
3186.000000	1.211388
3184.000000	1.211512
3182.000000	1.211466
3180.000000	1.211299
3178.000000	1.211250
3176.000000	1.211294
3174.000000	1.211414
3172.000000	1.211632
3170.000000	1.211642
3168.000000	1.211611
3166.000000	1.211674
3164.000000	1.211649
3162.000000	1.211743
3160.000000	1.211918
3158.000000	1.211968
3156.000000	1.211927
3154.000000	1.211824
3152.000000	1.211827
3150.000000	1.211920
3148.000000	1.211878
3146.000000	1.211825
3144.000000	1.211941
3142.000000	1.212010
3140.000000	1.211946
3138.000000	1.212092
3136.000000	1.212282
3134.000000	1.212197
3132.000000	1.212063
3130.000000	1.212101
3128.000000	1.212135
3126.000000	1.212108
3124.000000	1.212119
3122.000000	1.212131
3120.000000	1.212011
3118.000000	1.211958
3116.000000	1.212098
3114.000000	1.212284
3112.000000	1.212393
3110.000000	1.212331
3108.000000	1.212348
3106.000000	1.212506
3104.000000	1.212481
3102.000000	1.212359
3100.000000	1.212395
3098.000000	1.212373
3096.000000	1.212314
3094.000000	1.212452
3092.000000	1.212674
3090.000000	1.212745
3088.000000	1.212641
3086.000000	1.212650
3084.000000	1.212623
3082.000000	1.212546
3080.000000	1.212615
3078.000000	1.212690
3076.000000	1.212672
3074.000000	1.212659
3072.000000	1.212735
3070.000000	1.212733
3068.000000	1.212524
3066.000000	1.212445
3064.000000	1.212540
3062.000000	1.212495
3060.000000	1.212418
3058.000000	1.212386
3056.000000	1.212345
3054.000000	1.212288
3052.000000	1.212326
3050.000000	1.212329
3048.000000	1.212270
3046.000000	1.212276
3044.000000	1.212194
3042.000000	1.212122
3040.000000	1.212159
3038.000000	1.212182
3036.000000	1.212129
3034.000000	1.212075
3032.000000	1.212048
3030.000000	1.211952
3028.000000	1.211777
3026.000000	1.211666
3024.000000	1.211652
3022.000000	1.211638
3020.000000	1.211651
3018.000000	1.211526
3016.000000	1.211126
3014.000000	1.210788
3012.000000	1.210644
3010.000000	1.210651
3008.000000	1.210661
3006.000000	1.210619
3004.000000	1.210587
3002.000000	1.210547
3000.000000	1.210389
2998.000000	1.210216
2996.000000	1.210058
2994.000000	1.209889
2992.000000	1.209771
2990.000000	1.209489
2988.000000	1.209234
2986.000000	1.209144
2984.000000	1.209058
2982.000000	1.209029
2980.000000	1.208922
2978.000000	1.208732
2976.000000	1.208677
2974.000000	1.208626
2972.000000	1.208615
2970.000000	1.208699
2968.000000	1.208648
2966.000000	1.208385
2964.000000	1.208009
2962.000000	1.207493
2960.000000	1.206951
2958.000000	1.206474
2956.000000	1.206034
2954.000000	1.205595
2952.000000	1.205087
2950.000000	1.204642
2948.000000	1.204464
2946.000000	1.204389
2944.000000	1.204240
2942.000000	1.204046
2940.000000	1.203854
2938.000000	1.203444
2936.000000	1.202874
2934.000000	1.202449
2932.000000	1.202243
2930.000000	1.201846
2928.000000	1.201323
2926.000000	1.200734
2924.000000	1.199935
2922.000000	1.199145
2920.000000	1.198556
2918.000000	1.198112
2916.000000	1.197827
2914.000000	1.197649
2912.000000	1.197496
2910.000000	1.197397
2908.000000	1.197360
2906.000000	1.197154
2904.000000	1.196736
2902.000000	1.196342
2900.000000	1.195966
2898.000000	1.195550
2896.000000	1.195205
2894.000000	1.194913
2892.000000	1.194506
2890.000000	1.194193
2888.000000	1.194052
2886.000000	1.193737
2884.000000	1.193334
2882.000000	1.193028
2880.000000	1.192749
2878.000000	1.192428
2876.000000	1.192183
2874.000000	1.191954
2872.000000	1.191670
2870.000000	1.191480
2868.000000	1.191459
2866.000000	1.191278
2864.000000	1.190705
2862.000000	1.189984
2860.000000	1.189365
2858.000000	1.188987
2856.000000	1.188696
2854.000000	1.188323
2852.000000	1.187837
2850.000000	1.187371
2848.000000	1.187143
2846.000000	1.187071
2844.000000	1.186965
2842.000000	1.186802
2840.000000	1.186603
2838.000000	1.186382
2836.000000	1.186169
2834.000000	1.185935
2832.000000	1.185693
2830.000000	1.185483
2828.000000	1.185311
2826.000000	1.185166
2824.000000	1.184983
2822.000000	1.184706
2820.000000	1.184386
2818.000000	1.184246
2816.000000	1.184173
2814.000000	1.184025
2812.000000	1.183821
2810.000000	1.183634
2808.000000	1.183449
2806.000000	1.183209
2804.000000	1.182938
2802.000000	1.182772
2800.000000	1.182691
2798.000000	1.182610
2796.000000	1.182483
2794.000000	1.182353
2792.000000	1.182239
2790.000000	1.182061
2788.000000	1.181858
2786.000000	1.181667
2784.000000	1.181557
2782.000000	1.181465
2780.000000	1.181386
2778.000000	1.181365
2776.000000	1.181324
2774.000000	1.181197
2772.000000	1.181026
2770.000000	1.180876
2768.000000	1.180699
2766.000000	1.180553
2764.000000	1.180548
2762.000000	1.180567
2760.000000	1.180500
2758.000000	1.180340
2756.000000	1.180129
2754.000000	1.180057
2752.000000	1.180095
2750.000000	1.180004
2748.000000	1.179999
2746.000000	1.180010
2744.000000	1.179791
2742.000000	1.179624
2740.000000	1.179608
2738.000000	1.179557
2736.000000	1.179551
2734.000000	1.179561
2732.000000	1.179552
2730.000000	1.179577
2728.000000	1.179524
2726.000000	1.179362
2724.000000	1.179220
2722.000000	1.179208
2720.000000	1.179293
2718.000000	1.179340
2716.000000	1.179414
2714.000000	1.179520
2712.000000	1.179529
2710.000000	1.179471
2708.000000	1.179482
2706.000000	1.179507
2704.000000	1.179482
2702.000000	1.179514
2700.000000	1.179612
2698.000000	1.179716
2696.000000	1.179810
2694.000000	1.179832
2692.000000	1.179916
2690.000000	1.180073
2688.000000	1.180127
2686.000000	1.180088
2684.000000	1.180113
2682.000000	1.180186
2680.000000	1.180331
2678.000000	1.180517
2676.000000	1.180579
2674.000000	1.180664
2672.000000	1.180763
2670.000000	1.180829
2668.000000	1.180947
2666.000000	1.181126
2664.000000	1.181244
2662.000000	1.181337
2660.000000	1.181486
2658.000000	1.181636
2656.000000	1.181822
2654.000000	1.182004
2652.000000	1.182191
2650.000000	1.182311
2648.000000	1.182441
2646.000000	1.182620
2644.000000	1.182749
2642.000000	1.182921
2640.000000	1.183102
2638.000000	1.183196
2636.000000	1.183361
2634.000000	1.183575
2632.000000	1.183804
2630.000000	1.184049
2628.000000	1.184272
2626.000000	1.184458
2624.000000	1.184654
2622.000000	1.184929
2620.000000	1.185207
2618.000000	1.185372
2616.000000	1.185596
2614.000000	1.185842
2612.000000	1.185957
2610.000000	1.186070
2608.000000	1.186284
2606.000000	1.186523
2604.000000	1.186765
2602.000000	1.187063
2600.000000	1.187357
2598.000000	1.187580
2596.000000	1.187714
2594.000000	1.187914
2592.000000	1.188212
2590.000000	1.188523
2588.000000	1.188783
2586.000000	1.188888
2584.000000	1.189104
2582.000000	1.189454
2580.000000	1.189680
2578.000000	1.189938
2576.000000	1.190303
2574.000000	1.190603
2572.000000	1.190859
2570.000000	1.191138
2568.000000	1.191398
2566.000000	1.191660
2564.000000	1.191970
2562.000000	1.192357
2560.000000	1.192630
2558.000000	1.192811
2556.000000	1.193137
2554.000000	1.193510
2552.000000	1.193815
2550.000000	1.194221
2548.000000	1.194695
2546.000000	1.194929
2544.000000	1.195175
2542.000000	1.195604
2540.000000	1.195928
2538.000000	1.196285
2536.000000	1.196730
2534.000000	1.197050
2532.000000	1.197348
2530.000000	1.197656
2528.000000	1.198036
2526.000000	1.198465
2524.000000	1.198859
2522.000000	1.199250
2520.000000	1.199599
2518.000000	1.199923
2516.000000	1.200202
2514.000000	1.200615
2512.000000	1.201099
2510.000000	1.201388
2508.000000	1.201629
2506.000000	1.201904
2504.000000	1.202307
2502.000000	1.202688
2500.000000	1.202995
2498.000000	1.203308
2496.000000	1.203656
2494.000000	1.203941
2492.000000	1.204155
2490.000000	1.204515
2488.000000	1.204851
2486.000000	1.205108
2484.000000	1.205344
2482.000000	1.205567
2480.000000	1.205798
2478.000000	1.205964
2476.000000	1.206254
2474.000000	1.206630
2472.000000	1.206865
2470.000000	1.207090
2468.000000	1.207365
2466.000000	1.207513
2464.000000	1.207593
2462.000000	1.207843
2460.000000	1.208121
2458.000000	1.208207
2456.000000	1.208264
2454.000000	1.208424
2452.000000	1.208558
2450.000000	1.208647
2448.000000	1.208635
2446.000000	1.208645
2444.000000	1.208770
2442.000000	1.208834
2440.000000	1.208854
2438.000000	1.208859
2436.000000	1.208867
2434.000000	1.208892
2432.000000	1.208917
2430.000000	1.208823
2428.000000	1.208690
2426.000000	1.208600
2424.000000	1.208444
2422.000000	1.208346
2420.000000	1.208345
2418.000000	1.208202
2416.000000	1.207937
2414.000000	1.207797
2412.000000	1.207716
2410.000000	1.207561
2408.000000	1.207490
2406.000000	1.207440
2404.000000	1.207296
2402.000000	1.207142
2400.000000	1.207125
2398.000000	1.207032
2396.000000	1.206877
2394.000000	1.206885
2392.000000	1.206862
2390.000000	1.206780
2388.000000	1.206803
2386.000000	1.206790
2384.000000	1.206810
2382.000000	1.206798
2380.000000	1.206676
2378.000000	1.206550
2376.000000	1.206429
2374.000000	1.206234
2372.000000	1.206010
2370.000000	1.205811
2368.000000	1.205501
2366.000000	1.205115
2364.000000	1.204889
2362.000000	1.204794
2360.000000	1.204987
2358.000000	1.205349
2356.000000	1.205712
2354.000000	1.206114
2352.000000	1.206735
2350.000000	1.207462
2348.000000	1.207974
2346.000000	1.208303
2344.000000	1.208747
2342.000000	1.209380
2340.000000	1.209767
2338.000000	1.209367
2336.000000	1.208541
2334.000000	1.208073
2332.000000	1.208023
2330.000000	1.208214
2328.000000	1.208510
2326.000000	1.208763
2324.000000	1.209001
2322.000000	1.209312
2320.000000	1.209683
2318.000000	1.210007
2316.000000	1.210226
2314.000000	1.210488
2312.000000	1.210743
2310.000000	1.210900
2308.000000	1.211174
2306.000000	1.211431
2304.000000	1.211606
2302.000000	1.211734
2300.000000	1.211949
2298.000000	1.212192
2296.000000	1.212288
2294.000000	1.212338
2292.000000	1.212550
2290.000000	1.212819
2288.000000	1.213003
2286.000000	1.213103
2284.000000	1.213288
2282.000000	1.213459
2280.000000	1.213635
2278.000000	1.213855
2276.000000	1.213971
2274.000000	1.213930
2272.000000	1.213923
2270.000000	1.214081
2268.000000	1.214310
2266.000000	1.214524
2264.000000	1.214653
2262.000000	1.214781
2260.000000	1.215014
2258.000000	1.215196
2256.000000	1.215222
2254.000000	1.215277
2252.000000	1.215457
2250.000000	1.215563
2248.000000	1.215592
2246.000000	1.215742
2244.000000	1.215869
2242.000000	1.215903
2240.000000	1.216011
2238.000000	1.216177
2236.000000	1.216316
2234.000000	1.216378
2232.000000	1.216431
2230.000000	1.216509
2228.000000	1.216649
2226.000000	1.216738
2224.000000	1.216809
2222.000000	1.216834
2220.000000	1.216867
2218.000000	1.216965
2216.000000	1.217058
2214.000000	1.217131
2212.000000	1.217171
2210.000000	1.217176
2208.000000	1.217187
2206.000000	1.217194
2204.000000	1.217215
2202.000000	1.217201
2200.000000	1.217205
2198.000000	1.217200
2196.000000	1.217126
2194.000000	1.217086
2192.000000	1.217145
2190.000000	1.217183
2188.000000	1.217155
2186.000000	1.217169
2184.000000	1.217194
2182.000000	1.217118
2180.000000	1.216942
2178.000000	1.216908
2176.000000	1.216986
2174.000000	1.216964
2172.000000	1.216890
2170.000000	1.216766
2168.000000	1.216709
2166.000000	1.216735
2164.000000	1.216627
2162.000000	1.216432
2160.000000	1.216321
2158.000000	1.216309
2156.000000	1.216236
2154.000000	1.215994
2152.000000	1.215828
2150.000000	1.215702
2148.000000	1.215588
2146.000000	1.215452
2144.000000	1.215314
2142.000000	1.215233
2140.000000	1.215128
2138.000000	1.214966
2136.000000	1.214836
2134.000000	1.214682
2132.000000	1.214497
2130.000000	1.214296
2128.000000	1.214054
2126.000000	1.213749
2124.000000	1.213586
2122.000000	1.213523
2120.000000	1.213326
2118.000000	1.213016
2116.000000	1.212786
2114.000000	1.212612
2112.000000	1.212373
2110.000000	1.212111
2108.000000	1.211863
2106.000000	1.211519
2104.000000	1.211224
2102.000000	1.211057
2100.000000	1.210838
2098.000000	1.210489
2096.000000	1.210264
2094.000000	1.210032
2092.000000	1.209685
2090.000000	1.209374
2088.000000	1.209163
2086.000000	1.208828
2084.000000	1.208479
2082.000000	1.208190
2080.000000	1.207846
2078.000000	1.207524
2076.000000	1.207244
2074.000000	1.206936
2072.000000	1.206601
2070.000000	1.206288
2068.000000	1.206048
2066.000000	1.205733
2064.000000	1.205308
2062.000000	1.204931
2060.000000	1.204606
2058.000000	1.204354
2056.000000	1.204097
2054.000000	1.203795
2052.000000	1.203503
2050.000000	1.203215
2048.000000	1.203012
2046.000000	1.202711
2044.000000	1.202360
2042.000000	1.202092
2040.000000	1.201800
2038.000000	1.201422
2036.000000	1.201017
2034.000000	1.200713
2032.000000	1.200544
2030.000000	1.200335
2028.000000	1.200061
2026.000000	1.199750
2024.000000	1.199433
2022.000000	1.199186
2020.000000	1.198899
2018.000000	1.198562
2016.000000	1.198229
2014.000000	1.198034
2012.000000	1.197857
2010.000000	1.197603
2008.000000	1.197415
2006.000000	1.197223
2004.000000	1.196937
2002.000000	1.196730
2000.000000	1.196528
1998.000000	1.196314
1996.000000	1.196104
1994.000000	1.195812
1992.000000	1.195547
1990.000000	1.195419
1988.000000	1.195299
1986.000000	1.195192
1984.000000	1.195138
1982.000000	1.195013
1980.000000	1.194924
1978.000000	1.194781
1976.000000	1.194629
1974.000000	1.194452
1972.000000	1.194371
1970.000000	1.194311
1968.000000	1.194034
1966.000000	1.193827
1964.000000	1.193922
1962.000000	1.194033
1960.000000	1.194011
1958.000000	1.193794
1956.000000	1.193618
1954.000000	1.193611
1952.000000	1.193571
1950.000000	1.193465
1948.000000	1.193461
1946.000000	1.193432
1944.000000	1.193256
1942.000000	1.193021
1940.000000	1.193254
1938.000000	1.193549
1936.000000	1.193516
1934.000000	1.193442
1932.000000	1.193457
1930.000000	1.193483
1928.000000	1.193492
1926.000000	1.193432
1924.000000	1.193284
1922.000000	1.193190
1920.000000	1.193198
1918.000000	1.193050
1916.000000	1.193316
1914.000000	1.193697
1912.000000	1.193849
1910.000000	1.193846
1908.000000	1.193800
1906.000000	1.193921
1904.000000	1.194044
1902.000000	1.194113
1900.000000	1.194186
1898.000000	1.194317
1896.000000	1.194365
1894.000000	1.194383
1892.000000	1.194505
1890.000000	1.194434
1888.000000	1.194498
1886.000000	1.194713
1884.000000	1.194875
1882.000000	1.195058
1880.000000	1.195250
1878.000000	1.195327
1876.000000	1.195381
1874.000000	1.195506
1872.000000	1.195536
1870.000000	1.195205
1868.000000	1.195031
1866.000000	1.195426
1864.000000	1.195972
1862.000000	1.196288
1860.000000	1.196401
1858.000000	1.196599
1856.000000	1.196854
1854.000000	1.197003
1852.000000	1.197180
1850.000000	1.197392
1848.000000	1.197433
1846.000000	1.197023
1844.000000	1.196480
1842.000000	1.197332
1840.000000	1.198360
1838.000000	1.198555
1836.000000	1.198638
1834.000000	1.198919
1832.000000	1.199050
1830.000000	1.198796
1828.000000	1.199113
1826.000000	1.199476
1824.000000	1.199846
1822.000000	1.200585
1820.000000	1.201069
1818.000000	1.201319
1816.000000	1.201635
1814.000000	1.201992
1812.000000	1.202186
1810.000000	1.202495
1808.000000	1.202971
1806.000000	1.203376
1804.000000	1.203588
1802.000000	1.203593
1800.000000	1.203911
1798.000000	1.204583
1796.000000	1.204999
1794.000000	1.204703
1792.000000	1.204448
1790.000000	1.205545
1788.000000	1.206684
1786.000000	1.207001
1784.000000	1.207321
1782.000000	1.207827
1780.000000	1.208255
1778.000000	1.208790
1776.000000	1.209125
1774.000000	1.208526
1772.000000	1.208004
1770.000000	1.209270
1768.000000	1.210407
1766.000000	1.211441
1764.000000	1.212149
1762.000000	1.212108
1760.000000	1.212737
1758.000000	1.213473
1756.000000	1.213954
1754.000000	1.214652
1752.000000	1.214284
1750.000000	1.214216
1748.000000	1.215296
1746.000000	1.216239
1744.000000	1.216889
1742.000000	1.217230
1740.000000	1.217119
1738.000000	1.217714
1736.000000	1.217300
1734.000000	1.215580
1732.000000	1.217251
1730.000000	1.219523
1728.000000	1.220365
1726.000000	1.220874
1724.000000	1.221105
1722.000000	1.221377
1720.000000	1.220749
1718.000000	1.218773
1716.000000	1.218763
1714.000000	1.220611
1712.000000	1.221968
1710.000000	1.222516
1708.000000	1.222464
1706.000000	1.222111
1704.000000	1.222100
1702.000000	1.220961
1700.000000	1.219000
1698.000000	1.219742
1696.000000	1.219549
1694.000000	1.220936
1692.000000	1.223238
1690.000000	1.223580
1688.000000	1.223427
1686.000000	1.221338
1684.000000	1.219507
1682.000000	1.221806
1680.000000	1.223833
1678.000000	1.224073
1676.000000	1.223082
1674.000000	1.222899
1672.000000	1.223657
1670.000000	1.223278
1668.000000	1.223500
1666.000000	1.224408
1664.000000	1.224317
1662.000000	1.224101
1660.000000	1.224828
1658.000000	1.225253
1656.000000	1.224106
1654.000000	1.219744
1652.000000	1.218642
1650.000000	1.222621
1648.000000	1.223376
1646.000000	1.222622
1644.000000	1.224062
1642.000000	1.225335
1640.000000	1.225237
1638.000000	1.224267
1636.000000	1.222341
1634.000000	1.222909
1632.000000	1.224981
1630.000000	1.225396
1628.000000	1.225084
1626.000000	1.224910
1624.000000	1.224452
1622.000000	1.224494
1620.000000	1.224955
1618.000000	1.223702
1616.000000	1.222873
1614.000000	1.224685
1612.000000	1.225823
1610.000000	1.225689
1608.000000	1.225432
1606.000000	1.225305
1604.000000	1.225254
1602.000000	1.225284
1600.000000	1.225460
1598.000000	1.225559
1596.000000	1.225449
1594.000000	1.225270
1592.000000	1.225338
1590.000000	1.225495
1588.000000	1.225612
1586.000000	1.225686
1584.000000	1.225690
1582.000000	1.225702
1580.000000	1.225668
1578.000000	1.224358
1576.000000	1.222581
1574.000000	1.223914
1572.000000	1.225248
1570.000000	1.224570
1568.000000	1.224719
1566.000000	1.225345
1564.000000	1.225484
1562.000000	1.224411
1560.000000	1.220615
1558.000000	1.219513
1556.000000	1.222334
1554.000000	1.223814
1552.000000	1.224833
1550.000000	1.225217
1548.000000	1.225375
1546.000000	1.225051
1544.000000	1.223911
1542.000000	1.222184
1540.000000	1.220479
1538.000000	1.221930
1536.000000	1.224606
1534.000000	1.224594
1532.000000	1.224910
1530.000000	1.225662
1528.000000	1.225435
1526.000000	1.224838
1524.000000	1.224333
1522.000000	1.222978
1520.000000	1.222985
1518.000000	1.224267
1516.000000	1.224771
1514.000000	1.225495
1512.000000	1.225663
1510.000000	1.225228
1508.000000	1.223012
1506.000000	1.221628
1504.000000	1.224473
1502.000000	1.227155
1500.000000	1.227498
1498.000000	1.226798
1496.000000	1.225724
1494.000000	1.225390
1492.000000	1.224640
1490.000000	1.223811
1488.000000	1.224277
1486.000000	1.225243
1484.000000	1.225991
1482.000000	1.226117
1480.000000	1.226219
1478.000000	1.226180
1476.000000	1.225639
1474.000000	1.224485
1472.000000	1.224140
1470.000000	1.225699
1468.000000	1.226524
1466.000000	1.225942
1464.000000	1.225714
1462.000000	1.226295
1460.000000	1.225893
1458.000000	1.223778
1456.000000	1.223124
1454.000000	1.225355
1452.000000	1.226206
1450.000000	1.225533
1448.000000	1.224991
1446.000000	1.225428
1444.000000	1.225970
1442.000000	1.226222
1440.000000	1.226160
1438.000000	1.224906
1436.000000	1.223988
1434.000000	1.225223
1432.000000	1.225811
1430.000000	1.225639
1428.000000	1.225730
1426.000000	1.225830
1424.000000	1.225515
1422.000000	1.225124
1420.000000	1.223987
1418.000000	1.223904
1416.000000	1.225218
1414.000000	1.225947
1412.000000	1.226050
1410.000000	1.226109
1408.000000	1.226054
1406.000000	1.225695
1404.000000	1.225313
1402.000000	1.225092
1400.000000	1.224457
1398.000000	1.224186
1396.000000	1.224161
1394.000000	1.224066
1392.000000	1.224487
1390.000000	1.224688
1388.000000	1.224327
1386.000000	1.224244
1384.000000	1.224602
1382.000000	1.224673
1380.000000	1.224591
1378.000000	1.224506
1376.000000	1.224122
1374.000000	1.223770
1372.000000	1.224116
1370.000000	1.224348
1368.000000	1.224147
1366.000000	1.224060
1364.000000	1.223828
1362.000000	1.223534
1360.000000	1.223665
1358.000000	1.223750
1356.000000	1.223804
1354.000000	1.223853
1352.000000	1.223790
1350.000000	1.223718
1348.000000	1.223663
1346.000000	1.223628
1344.000000	1.223600
1342.000000	1.223420
1340.000000	1.223071
1338.000000	1.222937
1336.000000	1.223231
1334.000000	1.223293
1332.000000	1.223082
1330.000000	1.223082
1328.000000	1.223078
1326.000000	1.223053
1324.000000	1.223166
1322.000000	1.223175
1320.000000	1.222976
1318.000000	1.222793
1316.000000	1.222779
1314.000000	1.222901
1312.000000	1.223095
1310.000000	1.223017
1308.000000	1.222801
1306.000000	1.222898
1304.000000	1.223077
1302.000000	1.222930
1300.000000	1.222737
1298.000000	1.222784
1296.000000	1.222739
1294.000000	1.222783
1292.000000	1.222986
1290.000000	1.223119
1288.000000	1.223034
1286.000000	1.222899
1284.000000	1.222874
1282.000000	1.222999
1280.000000	1.223107
1278.000000	1.223045
1276.000000	1.223097
1274.000000	1.223225
1272.000000	1.223302
1270.000000	1.223544
1268.000000	1.224167
1266.000000	1.225140
1264.000000	1.226114
1262.000000	1.226476
1260.000000	1.226158
1258.000000	1.225414
1256.000000	1.224512
1254.000000	1.223604
1252.000000	1.223223
1250.000000	1.223199
1248.000000	1.223014
1246.000000	1.222890
1244.000000	1.222703
1242.000000	1.222653
1240.000000	1.222881
1238.000000	1.222838
1236.000000	1.222473
1234.000000	1.222364
1232.000000	1.222376
1230.000000	1.222410
1228.000000	1.222461
1226.000000	1.222401
1224.000000	1.222200
1222.000000	1.222002
1220.000000	1.221941
1218.000000	1.221749
1216.000000	1.221665
1214.000000	1.221638
1212.000000	1.221667
1210.000000	1.221830
1208.000000	1.221706
1206.000000	1.221587
1204.000000	1.221642
1202.000000	1.221700
1200.000000	1.221740
1198.000000	1.221829
1196.000000	1.222048
1194.000000	1.222178
1192.000000	1.221975
1190.000000	1.221850
1188.000000	1.221879
1186.000000	1.221858
1184.000000	1.221870
1182.000000	1.221785
1180.000000	1.221783
1178.000000	1.221881
1176.000000	1.222126
1174.000000	1.222295
1172.000000	1.222299
1170.000000	1.222232
1168.000000	1.222327
1166.000000	1.222624
1164.000000	1.222538
1162.000000	1.222441
1160.000000	1.222613
1158.000000	1.222770
1156.000000	1.222944
1154.000000	1.223068
1152.000000	1.222944
1150.000000	1.222919
1148.000000	1.223110
1146.000000	1.223118
1144.000000	1.222974
1142.000000	1.222720
1140.000000	1.222504
1138.000000	1.222429
1136.000000	1.222135
1134.000000	1.221769
1132.000000	1.221986
1130.000000	1.222240
1128.000000	1.222123
1126.000000	1.221781
1124.000000	1.221490
1122.000000	1.221531
1120.000000	1.221583
1118.000000	1.221799
1116.000000	1.222377
1114.000000	1.222483
1112.000000	1.222299
1110.000000	1.222576
1108.000000	1.222980
1106.000000	1.223178
1104.000000	1.223042
1102.000000	1.223101
1100.000000	1.223753
1098.000000	1.223829
1096.000000	1.223473
1094.000000	1.223733
1092.000000	1.223896
1090.000000	1.223351
1088.000000	1.223072
1086.000000	1.222810
1084.000000	1.222353
1082.000000	1.222242
1080.000000	1.222267
1078.000000	1.222092
1076.000000	1.222472
1074.000000	1.222095
1072.000000	1.221238
1070.000000	1.220523
1068.000000	1.219832
1066.000000	1.219386
1064.000000	1.218671
1062.000000	1.218043
1060.000000	1.217757
1058.000000	1.217696
1056.000000	1.217451
1054.000000	1.216336
1052.000000	1.215038
1050.000000	1.214678
1048.000000	1.214194
1046.000000	1.213302
1044.000000	1.213133
1042.000000	1.213084
1040.000000	1.212821
1038.000000	1.212725
1036.000000	1.212097
1034.000000	1.210767
1032.000000	1.209314
1030.000000	1.209313
1028.000000	1.209620
1026.000000	1.209437
1024.000000	1.209421
1022.000000	1.208761
1020.000000	1.208568
1018.000000	1.209585
1016.000000	1.209984
1014.000000	1.209588
1012.000000	1.209075
1010.000000	1.208405
1008.000000	1.208840
1006.000000	1.208201
1004.000000	1.206490
1002.000000	1.205583
1000.000000	1.206081
