PE IR       SUBTECH     SPECTRUM    ASCII       PEDS        4.00        
   -1
TE109A_053_120K.ASC
20/04/21
16:47:14.00
20/04/21
16:47:15.00
Administrator
TE109A, Tuesday, April 21 2020, 053.
1000.000000
#HDR
-1
-1
#GR
cm-1
A
1.0
0.0
6000.000000
-2.000000
2501
8
1.064193
0.971736
#DATA
6000.000000	0.978827
5998.000000	0.978473
5996.000000	0.978273
5994.000000	0.978038
5992.000000	0.977832
5990.000000	0.978127
5988.000000	0.978344
5986.000000	0.978174
5984.000000	0.977993
5982.000000	0.978191
5980.000000	0.978698
5978.000000	0.979145
5976.000000	0.979200
5974.000000	0.979160
5972.000000	0.979283
5970.000000	0.979475
5968.000000	0.979324
5966.000000	0.979180
5964.000000	0.978889
5962.000000	0.978806
5960.000000	0.978840
5958.000000	0.978550
5956.000000	0.978208
5954.000000	0.978152
5952.000000	0.978175
5950.000000	0.978457
5948.000000	0.978397
5946.000000	0.978350
5944.000000	0.978596
5942.000000	0.978705
5940.000000	0.978719
5938.000000	0.978497
5936.000000	0.978495
5934.000000	0.978402
5932.000000	0.978225
5930.000000	0.978109
5928.000000	0.978022
5926.000000	0.978106
5924.000000	0.978169
5922.000000	0.978436
5920.000000	0.978712
5918.000000	0.978789
5916.000000	0.978893
5914.000000	0.978824
5912.000000	0.978613
5910.000000	0.978626
5908.000000	0.978874
5906.000000	0.978962
5904.000000	0.978740
5902.000000	0.978550
5900.000000	0.978794
5898.000000	0.978856
5896.000000	0.978682
5894.000000	0.978612
5892.000000	0.978562
5890.000000	0.978504
5888.000000	0.978586
5886.000000	0.978953
5884.000000	0.979164
5882.000000	0.979099
5880.000000	0.978845
5878.000000	0.978716
5876.000000	0.978528
5874.000000	0.978520
5872.000000	0.978942
5870.000000	0.979351
5868.000000	0.979324
5866.000000	0.978910
5864.000000	0.978439
5862.000000	0.978347
5860.000000	0.978244
5858.000000	0.978119
5856.000000	0.977996
5854.000000	0.978044
5852.000000	0.978475
5850.000000	0.978767
5848.000000	0.978692
5846.000000	0.978464
5844.000000	0.978449
5842.000000	0.978549
5840.000000	0.978656
5838.000000	0.978594
5836.000000	0.978619
5834.000000	0.978684
5832.000000	0.978591
5830.000000	0.978412
5828.000000	0.978235
5826.000000	0.978226
5824.000000	0.978499
5822.000000	0.978948
5820.000000	0.979179
5818.000000	0.979099
5816.000000	0.979011
5814.000000	0.978973
5812.000000	0.978845
5810.000000	0.978653
5808.000000	0.978479
5806.000000	0.978606
5804.000000	0.978908
5802.000000	0.979034
5800.000000	0.978947
5798.000000	0.978757
5796.000000	0.978859
5794.000000	0.979131
5792.000000	0.979109
5790.000000	0.978894
5788.000000	0.978957
5786.000000	0.979191
5784.000000	0.979281
5782.000000	0.979224
5780.000000	0.979216
5778.000000	0.979258
5776.000000	0.979400
5774.000000	0.979253
5772.000000	0.978876
5770.000000	0.978634
5768.000000	0.978711
5766.000000	0.979178
5764.000000	0.979455
5762.000000	0.979335
5760.000000	0.979078
5758.000000	0.978897
5756.000000	0.979015
5754.000000	0.979449
5752.000000	0.979331
5750.000000	0.978931
5748.000000	0.978784
5746.000000	0.978717
5744.000000	0.978854
5742.000000	0.978917
5740.000000	0.978994
5738.000000	0.979022
5736.000000	0.979009
5734.000000	0.979032
5732.000000	0.978983
5730.000000	0.978783
5728.000000	0.978863
5726.000000	0.979267
5724.000000	0.979161
5722.000000	0.978810
5720.000000	0.978685
5718.000000	0.978908
5716.000000	0.979277
5714.000000	0.979417
5712.000000	0.979499
5710.000000	0.979671
5708.000000	0.979765
5706.000000	0.979770
5704.000000	0.979494
5702.000000	0.979095
5700.000000	0.978842
5698.000000	0.978849
5696.000000	0.979206
5694.000000	0.979734
5692.000000	0.980096
5690.000000	0.980077
5688.000000	0.979898
5686.000000	0.979810
5684.000000	0.979940
5682.000000	0.980117
5680.000000	0.980128
5678.000000	0.980080
5676.000000	0.980007
5674.000000	0.979889
5672.000000	0.979676
5670.000000	0.979464
5668.000000	0.979452
5666.000000	0.979751
5664.000000	0.980068
5662.000000	0.980150
5660.000000	0.979957
5658.000000	0.979620
5656.000000	0.979411
5654.000000	0.979368
5652.000000	0.979435
5650.000000	0.979586
5648.000000	0.979518
5646.000000	0.979309
5644.000000	0.979271
5642.000000	0.979505
5640.000000	0.979864
5638.000000	0.980146
5636.000000	0.980109
5634.000000	0.979651
5632.000000	0.979128
5630.000000	0.979019
5628.000000	0.979351
5626.000000	0.979555
5624.000000	0.979498
5622.000000	0.979547
5620.000000	0.979785
5618.000000	0.979958
5616.000000	0.979884
5614.000000	0.979585
5612.000000	0.979475
5610.000000	0.979552
5608.000000	0.979705
5606.000000	0.979936
5604.000000	0.980148
5602.000000	0.980183
5600.000000	0.980037
5598.000000	0.979977
5596.000000	0.980052
5594.000000	0.980121
5592.000000	0.979888
5590.000000	0.979868
5588.000000	0.979992
5586.000000	0.980212
5584.000000	0.980224
5582.000000	0.980091
5580.000000	0.980071
5578.000000	0.980231
5576.000000	0.980320
5574.000000	0.980198
5572.000000	0.979977
5570.000000	0.980039
5568.000000	0.980362
5566.000000	0.980395
5564.000000	0.980226
5562.000000	0.979993
5560.000000	0.979965
5558.000000	0.979712
5556.000000	0.979489
5554.000000	0.979695
5552.000000	0.979939
5550.000000	0.980090
5548.000000	0.980096
5546.000000	0.980217
5544.000000	0.980044
5542.000000	0.979624
5540.000000	0.979403
5538.000000	0.979389
5536.000000	0.979474
5534.000000	0.979979
5532.000000	0.980570
5530.000000	0.980835
5528.000000	0.980463
5526.000000	0.980080
5524.000000	0.979992
5522.000000	0.980059
5520.000000	0.980226
5518.000000	0.980265
5516.000000	0.980206
5514.000000	0.980051
5512.000000	0.979959
5510.000000	0.979967
5508.000000	0.980055
5506.000000	0.980126
5504.000000	0.980070
5502.000000	0.979990
5500.000000	0.980149
5498.000000	0.980291
5496.000000	0.980366
5494.000000	0.980337
5492.000000	0.980332
5490.000000	0.980220
5488.000000	0.980250
5486.000000	0.980445
5484.000000	0.980497
5482.000000	0.980059
5480.000000	0.979635
5478.000000	0.979750
5476.000000	0.980079
5474.000000	0.980237
5472.000000	0.980105
5470.000000	0.979852
5468.000000	0.979919
5466.000000	0.980222
5464.000000	0.980535
5462.000000	0.980474
5460.000000	0.980256
5458.000000	0.980067
5456.000000	0.979999
5454.000000	0.979965
5452.000000	0.980077
5450.000000	0.980250
5448.000000	0.980344
5446.000000	0.980269
5444.000000	0.980104
5442.000000	0.980133
5440.000000	0.980166
5438.000000	0.980058
5436.000000	0.980035
5434.000000	0.980238
5432.000000	0.980540
5430.000000	0.980684
5428.000000	0.980763
5426.000000	0.980661
5424.000000	0.980326
5422.000000	0.980058
5420.000000	0.980090
5418.000000	0.980323
5416.000000	0.980486
5414.000000	0.980486
5412.000000	0.980346
5410.000000	0.980257
5408.000000	0.980308
5406.000000	0.980510
5404.000000	0.980573
5402.000000	0.980531
5400.000000	0.980403
5398.000000	0.980324
5396.000000	0.980426
5394.000000	0.980430
5392.000000	0.980400
5390.000000	0.980375
5388.000000	0.980540
5386.000000	0.980705
5384.000000	0.980673
5382.000000	0.980566
5380.000000	0.980490
5378.000000	0.980508
5376.000000	0.980509
5374.000000	0.980554
5372.000000	0.980605
5370.000000	0.980693
5368.000000	0.980729
5366.000000	0.980639
5364.000000	0.980561
5362.000000	0.980526
5360.000000	0.980483
5358.000000	0.980553
5356.000000	0.980735
5354.000000	0.980907
5352.000000	0.980858
5350.000000	0.980760
5348.000000	0.980950
5346.000000	0.981112
5344.000000	0.980931
5342.000000	0.980762
5340.000000	0.980661
5338.000000	0.980679
5336.000000	0.980705
5334.000000	0.980894
5332.000000	0.981140
5330.000000	0.981208
5328.000000	0.981159
5326.000000	0.981066
5324.000000	0.981075
5322.000000	0.981238
5320.000000	0.981429
5318.000000	0.981456
5316.000000	0.981467
5314.000000	0.981592
5312.000000	0.981709
5310.000000	0.981665
5308.000000	0.981722
5306.000000	0.982057
5304.000000	0.982354
5302.000000	0.982344
5300.000000	0.982240
5298.000000	0.982275
5296.000000	0.982431
5294.000000	0.982507
5292.000000	0.982415
5290.000000	0.982271
5288.000000	0.982291
5286.000000	0.982579
5284.000000	0.982847
5282.000000	0.983018
5280.000000	0.983061
5278.000000	0.983131
5276.000000	0.983288
5274.000000	0.983360
5272.000000	0.983420
5270.000000	0.983483
5268.000000	0.983663
5266.000000	0.983897
5264.000000	0.984039
5262.000000	0.984102
5260.000000	0.984108
5258.000000	0.984097
5256.000000	0.984174
5254.000000	0.984347
5252.000000	0.984725
5250.000000	0.985090
5248.000000	0.985264
5246.000000	0.985392
5244.000000	0.985523
5242.000000	0.985654
5240.000000	0.985685
5238.000000	0.985780
5236.000000	0.986110
5234.000000	0.986543
5232.000000	0.986811
5230.000000	0.986975
5228.000000	0.987149
5226.000000	0.987388
5224.000000	0.987559
5222.000000	0.987720
5220.000000	0.987850
5218.000000	0.988112
5216.000000	0.988364
5214.000000	0.988634
5212.000000	0.988857
5210.000000	0.989220
5208.000000	0.989517
5206.000000	0.989680
5204.000000	0.989804
5202.000000	0.989949
5200.000000	0.990132
5198.000000	0.990407
5196.000000	0.990878
5194.000000	0.991297
5192.000000	0.991450
5190.000000	0.991484
5188.000000	0.991662
5186.000000	0.991920
5184.000000	0.992193
5182.000000	0.992409
5180.000000	0.992569
5178.000000	0.992639
5176.000000	0.992687
5174.000000	0.992933
5172.000000	0.993224
5170.000000	0.993493
5168.000000	0.993747
5166.000000	0.994016
5164.000000	0.994262
5162.000000	0.994446
5160.000000	0.994657
5158.000000	0.994840
5156.000000	0.994930
5154.000000	0.995123
5152.000000	0.995492
5150.000000	0.995906
5148.000000	0.996049
5146.000000	0.996020
5144.000000	0.996068
5142.000000	0.996370
5140.000000	0.996625
5138.000000	0.996725
5136.000000	0.996738
5134.000000	0.996878
5132.000000	0.997120
5130.000000	0.997355
5128.000000	0.997658
5126.000000	0.997944
5124.000000	0.998139
5122.000000	0.998331
5120.000000	0.998555
5118.000000	0.998586
5116.000000	0.998368
5114.000000	0.998299
5112.000000	0.998523
5110.000000	0.998701
5108.000000	0.998685
5106.000000	0.998792
5104.000000	0.999014
5102.000000	0.999063
5100.000000	0.998958
5098.000000	0.999046
5096.000000	0.999221
5094.000000	0.999272
5092.000000	0.999375
5090.000000	0.999559
5088.000000	0.999756
5086.000000	0.999870
5084.000000	0.999835
5082.000000	0.999765
5080.000000	0.999804
5078.000000	1.000075
5076.000000	1.000160
5074.000000	1.000048
5072.000000	1.000022
5070.000000	1.000177
5068.000000	1.000099
5066.000000	0.999754
5064.000000	0.999510
5062.000000	0.999651
5060.000000	0.999978
5058.000000	1.000177
5056.000000	1.000168
5054.000000	1.000126
5052.000000	1.000146
5050.000000	1.000177
5048.000000	1.000252
5046.000000	1.000293
5044.000000	1.000181
5042.000000	1.000165
5040.000000	1.000332
5038.000000	1.000552
5036.000000	1.000543
5034.000000	1.000420
5032.000000	1.000318
5030.000000	1.000407
5028.000000	1.000575
5026.000000	1.000715
5024.000000	1.000814
5022.000000	1.000762
5020.000000	1.000519
5018.000000	1.000214
5016.000000	1.000077
5014.000000	1.000206
5012.000000	1.000497
5010.000000	1.000571
5008.000000	1.000317
5006.000000	1.000220
5004.000000	1.000490
5002.000000	1.000632
5000.000000	1.000522
4998.000000	1.000429
4996.000000	1.000372
4994.000000	1.000275
4992.000000	1.000258
4990.000000	1.000326
4988.000000	1.000287
4986.000000	1.000066
4984.000000	0.999879
4982.000000	0.999901
4980.000000	0.999987
4978.000000	0.999971
4976.000000	0.999985
4974.000000	0.999945
4972.000000	0.999801
4970.000000	0.999751
4968.000000	0.999816
4966.000000	0.999761
4964.000000	0.999695
4962.000000	0.999796
4960.000000	0.999898
4958.000000	0.999765
4956.000000	0.999586
4954.000000	0.999480
4952.000000	0.999323
4950.000000	0.999113
4948.000000	0.999104
4946.000000	0.999265
4944.000000	0.999291
4942.000000	0.999182
4940.000000	0.999103
4938.000000	0.999118
4936.000000	0.999111
4934.000000	0.999112
4932.000000	0.999111
4930.000000	0.998999
4928.000000	0.998820
4926.000000	0.998661
4924.000000	0.998562
4922.000000	0.998561
4920.000000	0.998609
4918.000000	0.998438
4916.000000	0.998194
4914.000000	0.998120
4912.000000	0.998057
4910.000000	0.997892
4908.000000	0.997738
4906.000000	0.997775
4904.000000	0.997860
4902.000000	0.997877
4900.000000	0.997860
4898.000000	0.997869
4896.000000	0.997810
4894.000000	0.997601
4892.000000	0.997409
4890.000000	0.997298
4888.000000	0.997230
4886.000000	0.997099
4884.000000	0.996948
4882.000000	0.996818
4880.000000	0.996766
4878.000000	0.996729
4876.000000	0.996636
4874.000000	0.996578
4872.000000	0.996476
4870.000000	0.996261
4868.000000	0.995999
4866.000000	0.996016
4864.000000	0.996141
4862.000000	0.996077
4860.000000	0.995838
4858.000000	0.995695
4856.000000	0.995758
4854.000000	0.995736
4852.000000	0.995450
4850.000000	0.995121
4848.000000	0.995014
4846.000000	0.995090
4844.000000	0.994967
4842.000000	0.994690
4840.000000	0.994489
4838.000000	0.994498
4836.000000	0.994503
4834.000000	0.994323
4832.000000	0.993998
4830.000000	0.993755
4828.000000	0.993738
4826.000000	0.993873
4824.000000	0.993912
4822.000000	0.993765
4820.000000	0.993581
4818.000000	0.993461
4816.000000	0.993177
4814.000000	0.992842
4812.000000	0.992767
4810.000000	0.992777
4808.000000	0.992602
4806.000000	0.992448
4804.000000	0.992419
4802.000000	0.992237
4800.000000	0.991939
4798.000000	0.991789
4796.000000	0.991737
4794.000000	0.991609
4792.000000	0.991460
4790.000000	0.991308
4788.000000	0.991127
4786.000000	0.991050
4784.000000	0.990952
4782.000000	0.990662
4780.000000	0.990308
4778.000000	0.990177
4776.000000	0.990137
4774.000000	0.990062
4772.000000	0.989913
4770.000000	0.989706
4768.000000	0.989502
4766.000000	0.989368
4764.000000	0.989256
4762.000000	0.989189
4760.000000	0.989131
4758.000000	0.989004
4756.000000	0.988844
4754.000000	0.988723
4752.000000	0.988602
4750.000000	0.988483
4748.000000	0.988293
4746.000000	0.988062
4744.000000	0.987933
4742.000000	0.987922
4740.000000	0.987869
4738.000000	0.987642
4736.000000	0.987363
4734.000000	0.987288
4732.000000	0.987328
4730.000000	0.987129
4728.000000	0.986788
4726.000000	0.986667
4724.000000	0.986619
4722.000000	0.986525
4720.000000	0.986450
4718.000000	0.986428
4716.000000	0.986251
4714.000000	0.985993
4712.000000	0.985880
4710.000000	0.985903
4708.000000	0.985814
4706.000000	0.985614
4704.000000	0.985478
4702.000000	0.985417
4700.000000	0.985368
4698.000000	0.985268
4696.000000	0.985114
4694.000000	0.985023
4692.000000	0.984932
4690.000000	0.984771
4688.000000	0.984636
4686.000000	0.984553
4684.000000	0.984490
4682.000000	0.984350
4680.000000	0.984041
4678.000000	0.983852
4676.000000	0.983971
4674.000000	0.984070
4672.000000	0.983928
4670.000000	0.983751
4668.000000	0.983578
4666.000000	0.983489
4664.000000	0.983470
4662.000000	0.983461
4660.000000	0.983403
4658.000000	0.983283
4656.000000	0.983143
4654.000000	0.983042
4652.000000	0.982931
4650.000000	0.982873
4648.000000	0.982923
4646.000000	0.982832
4644.000000	0.982643
4642.000000	0.982593
4640.000000	0.982672
4638.000000	0.982647
4636.000000	0.982562
4634.000000	0.982508
4632.000000	0.982420
4630.000000	0.982143
4628.000000	0.981891
4626.000000	0.981904
4624.000000	0.982045
4622.000000	0.982154
4620.000000	0.982161
4618.000000	0.981999
4616.000000	0.981796
4614.000000	0.981701
4612.000000	0.981619
4610.000000	0.981592
4608.000000	0.981625
4606.000000	0.981603
4604.000000	0.981565
4602.000000	0.981576
4600.000000	0.981503
4598.000000	0.981344
4596.000000	0.981174
4594.000000	0.981078
4592.000000	0.981083
4590.000000	0.981030
4588.000000	0.980870
4586.000000	0.980756
4584.000000	0.980747
4582.000000	0.980729
4580.000000	0.980688
4578.000000	0.980684
4576.000000	0.980731
4574.000000	0.980740
4572.000000	0.980641
4570.000000	0.980509
4568.000000	0.980409
4566.000000	0.980315
4564.000000	0.980250
4562.000000	0.980229
4560.000000	0.980165
4558.000000	0.980142
4556.000000	0.980269
4554.000000	0.980405
4552.000000	0.980401
4550.000000	0.980355
4548.000000	0.980238
4546.000000	0.980115
4544.000000	0.980081
4542.000000	0.980114
4540.000000	0.980108
4538.000000	0.980094
4536.000000	0.980073
4534.000000	0.980017
4532.000000	0.979932
4530.000000	0.979761
4528.000000	0.979583
4526.000000	0.979478
4524.000000	0.979490
4522.000000	0.979531
4520.000000	0.979565
4518.000000	0.979549
4516.000000	0.979516
4514.000000	0.979528
4512.000000	0.979583
4510.000000	0.979604
4508.000000	0.979477
4506.000000	0.979310
4504.000000	0.979276
4502.000000	0.979307
4500.000000	0.979239
4498.000000	0.979162
4496.000000	0.979132
4494.000000	0.979088
4492.000000	0.979019
4490.000000	0.979086
4488.000000	0.979226
4486.000000	0.979218
4484.000000	0.979124
4482.000000	0.979060
4480.000000	0.978977
4478.000000	0.978950
4476.000000	0.978994
4474.000000	0.978972
4472.000000	0.978932
4470.000000	0.978956
4468.000000	0.978993
4466.000000	0.978965
4464.000000	0.978896
4462.000000	0.978844
4460.000000	0.978779
4458.000000	0.978695
4456.000000	0.978633
4454.000000	0.978658
4452.000000	0.978806
4450.000000	0.978927
4448.000000	0.978886
4446.000000	0.978836
4444.000000	0.978813
4442.000000	0.978779
4440.000000	0.978711
4438.000000	0.978623
4436.000000	0.978643
4434.000000	0.978744
4432.000000	0.978714
4430.000000	0.978676
4428.000000	0.978752
4426.000000	0.978756
4424.000000	0.978702
4422.000000	0.978664
4420.000000	0.978715
4418.000000	0.978820
4416.000000	0.978831
4414.000000	0.978735
4412.000000	0.978665
4410.000000	0.978629
4408.000000	0.978629
4406.000000	0.978613
4404.000000	0.978554
4402.000000	0.978553
4400.000000	0.978610
4398.000000	0.978657
4396.000000	0.978638
4394.000000	0.978613
4392.000000	0.978671
4390.000000	0.978800
4388.000000	0.978919
4386.000000	0.978967
4384.000000	0.978934
4382.000000	0.978881
4380.000000	0.978794
4378.000000	0.978674
4376.000000	0.978736
4374.000000	0.978962
4372.000000	0.979042
4370.000000	0.979011
4368.000000	0.979061
4366.000000	0.979114
4364.000000	0.979115
4362.000000	0.979182
4360.000000	0.979336
4358.000000	0.979507
4356.000000	0.979512
4354.000000	0.979356
4352.000000	0.979320
4350.000000	0.979453
4348.000000	0.979574
4346.000000	0.979660
4344.000000	0.979710
4342.000000	0.979613
4340.000000	0.979495
4338.000000	0.979525
4336.000000	0.979645
4334.000000	0.979706
4332.000000	0.979776
4330.000000	0.979864
4328.000000	0.979930
4326.000000	0.979991
4324.000000	0.980062
4322.000000	0.980067
4320.000000	0.980040
4318.000000	0.980113
4316.000000	0.980299
4314.000000	0.980430
4312.000000	0.980411
4310.000000	0.980329
4308.000000	0.980363
4306.000000	0.980516
4304.000000	0.980605
4302.000000	0.980596
4300.000000	0.980641
4298.000000	0.980728
4296.000000	0.980712
4294.000000	0.980648
4292.000000	0.980632
4290.000000	0.980688
4288.000000	0.980754
4286.000000	0.980741
4284.000000	0.980776
4282.000000	0.980905
4280.000000	0.980991
4278.000000	0.981043
4276.000000	0.981079
4274.000000	0.981107
4272.000000	0.981249
4270.000000	0.981376
4268.000000	0.981415
4266.000000	0.981503
4264.000000	0.981618
4262.000000	0.981622
4260.000000	0.981623
4258.000000	0.981700
4256.000000	0.981762
4254.000000	0.981759
4252.000000	0.981773
4250.000000	0.981794
4248.000000	0.981830
4246.000000	0.981839
4244.000000	0.981809
4242.000000	0.981881
4240.000000	0.982059
4238.000000	0.982153
4236.000000	0.982092
4234.000000	0.981993
4232.000000	0.982037
4230.000000	0.982096
4228.000000	0.982047
4226.000000	0.982102
4224.000000	0.982265
4222.000000	0.982310
4220.000000	0.982287
4218.000000	0.982316
4216.000000	0.982431
4214.000000	0.982566
4212.000000	0.982509
4210.000000	0.982328
4208.000000	0.982320
4206.000000	0.982414
4204.000000	0.982483
4202.000000	0.982540
4200.000000	0.982575
4198.000000	0.982522
4196.000000	0.982434
4194.000000	0.982426
4192.000000	0.982474
4190.000000	0.982438
4188.000000	0.982392
4186.000000	0.982484
4184.000000	0.982641
4182.000000	0.982672
4180.000000	0.982697
4178.000000	0.982785
4176.000000	0.982770
4174.000000	0.982632
4172.000000	0.982533
4170.000000	0.982516
4168.000000	0.982569
4166.000000	0.982647
4164.000000	0.982698
4162.000000	0.982766
4160.000000	0.982858
4158.000000	0.982849
4156.000000	0.982783
4154.000000	0.982751
4152.000000	0.982783
4150.000000	0.982854
4148.000000	0.982925
4146.000000	0.982979
4144.000000	0.983022
4142.000000	0.983042
4140.000000	0.982956
4138.000000	0.982841
4136.000000	0.982913
4134.000000	0.983026
4132.000000	0.982954
4130.000000	0.982827
4128.000000	0.982793
4126.000000	0.982798
4124.000000	0.982755
4122.000000	0.982724
4120.000000	0.982767
4118.000000	0.982882
4116.000000	0.982972
4114.000000	0.982983
4112.000000	0.982991
4110.000000	0.982997
4108.000000	0.982947
4106.000000	0.982882
4104.000000	0.982842
4102.000000	0.982893
4100.000000	0.982940
4098.000000	0.982901
4096.000000	0.982815
4094.000000	0.982727
4092.000000	0.982701
4090.000000	0.982717
4088.000000	0.982735
4086.000000	0.982799
4084.000000	0.982837
4082.000000	0.982832
4080.000000	0.982864
4078.000000	0.982915
4076.000000	0.982945
4074.000000	0.982931
4072.000000	0.982888
4070.000000	0.982889
4068.000000	0.982883
4066.000000	0.982863
4064.000000	0.982904
4062.000000	0.983021
4060.000000	0.983133
4058.000000	0.983110
4056.000000	0.982972
4054.000000	0.982854
4052.000000	0.982832
4050.000000	0.982868
4048.000000	0.982953
4046.000000	0.983069
4044.000000	0.983098
4042.000000	0.983075
4040.000000	0.983053
4038.000000	0.982992
4036.000000	0.982995
4034.000000	0.983058
4032.000000	0.982998
4030.000000	0.982904
4028.000000	0.982918
4026.000000	0.982960
4024.000000	0.983001
4022.000000	0.982977
4020.000000	0.982894
4018.000000	0.982859
4016.000000	0.982846
4014.000000	0.982863
4012.000000	0.982883
4010.000000	0.982857
4008.000000	0.982826
4006.000000	0.982774
4004.000000	0.982711
4002.000000	0.982687
4000.000000	0.982628
3998.000000	0.982535
3996.000000	0.982552
3994.000000	0.982649
3992.000000	0.982648
3990.000000	0.982554
3988.000000	0.982483
3986.000000	0.982409
3984.000000	0.982323
3982.000000	0.982281
3980.000000	0.982286
3978.000000	0.982297
3976.000000	0.982248
3974.000000	0.982225
3972.000000	0.982215
3970.000000	0.982053
3968.000000	0.981888
3966.000000	0.981879
3964.000000	0.981859
3962.000000	0.981727
3960.000000	0.981600
3958.000000	0.981530
3956.000000	0.981434
3954.000000	0.981283
3952.000000	0.981140
3950.000000	0.981029
3948.000000	0.980991
3946.000000	0.980981
3944.000000	0.980794
3942.000000	0.980571
3940.000000	0.980496
3938.000000	0.980372
3936.000000	0.980206
3934.000000	0.980128
3932.000000	0.979981
3930.000000	0.979766
3928.000000	0.979606
3926.000000	0.979468
3924.000000	0.979356
3922.000000	0.979232
3920.000000	0.979048
3918.000000	0.978882
3916.000000	0.978730
3914.000000	0.978506
3912.000000	0.978302
3910.000000	0.978287
3908.000000	0.978328
3906.000000	0.978192
3904.000000	0.977868
3902.000000	0.977562
3900.000000	0.977279
3898.000000	0.977064
3896.000000	0.977107
3894.000000	0.977174
3892.000000	0.976914
3890.000000	0.976656
3888.000000	0.976652
3886.000000	0.976470
3884.000000	0.976226
3882.000000	0.976161
3880.000000	0.975977
3878.000000	0.975868
3876.000000	0.975918
3874.000000	0.975872
3872.000000	0.975710
3870.000000	0.975385
3868.000000	0.975132
3866.000000	0.975067
3864.000000	0.974888
3862.000000	0.974687
3860.000000	0.974750
3858.000000	0.975120
3856.000000	0.975260
3854.000000	0.974581
3852.000000	0.973762
3850.000000	0.973653
3848.000000	0.973860
3846.000000	0.973887
3844.000000	0.973799
3842.000000	0.973803
3840.000000	0.973861
3838.000000	0.973567
3836.000000	0.973156
3834.000000	0.973100
3832.000000	0.973129
3830.000000	0.973054
3828.000000	0.972975
3826.000000	0.973005
3824.000000	0.973154
3822.000000	0.973055
3820.000000	0.972809
3818.000000	0.972819
3816.000000	0.972640
3814.000000	0.972287
3812.000000	0.972253
3810.000000	0.972428
3808.000000	0.972407
3806.000000	0.972155
3804.000000	0.972167
3802.000000	0.972098
3800.000000	0.971811
3798.000000	0.971814
3796.000000	0.971883
3794.000000	0.971841
3792.000000	0.971823
3790.000000	0.971882
3788.000000	0.971912
3786.000000	0.971903
3784.000000	0.971933
3782.000000	0.971933
3780.000000	0.971859
3778.000000	0.971754
3776.000000	0.971736
3774.000000	0.971912
3772.000000	0.972092
3770.000000	0.972003
3768.000000	0.971888
3766.000000	0.971849
3764.000000	0.971817
3762.000000	0.971855
3760.000000	0.971875
3758.000000	0.971918
3756.000000	0.972108
3754.000000	0.972319
3752.000000	0.972259
3750.000000	0.972002
3748.000000	0.972090
3746.000000	0.972279
3744.000000	0.971923
3742.000000	0.971864
3740.000000	0.972427
3738.000000	0.972711
3736.000000	0.972648
3734.000000	0.972651
3732.000000	0.972653
3730.000000	0.972710
3728.000000	0.972933
3726.000000	0.973085
3724.000000	0.973229
3722.000000	0.973468
3720.000000	0.973728
3718.000000	0.973995
3716.000000	0.974298
3714.000000	0.974570
3712.000000	0.974668
3710.000000	0.974666
3708.000000	0.974914
3706.000000	0.975472
3704.000000	0.976011
3702.000000	0.976449
3700.000000	0.976943
3698.000000	0.977470
3696.000000	0.978007
3694.000000	0.978670
3692.000000	0.979416
3690.000000	0.979912
3688.000000	0.980082
3686.000000	0.980532
3684.000000	0.981434
3682.000000	0.982340
3680.000000	0.983223
3678.000000	0.984171
3676.000000	0.984824
3674.000000	0.985475
3672.000000	0.986493
3670.000000	0.987336
3668.000000	0.988091
3666.000000	0.989114
3664.000000	0.990254
3662.000000	0.991364
3660.000000	0.992486
3658.000000	0.993566
3656.000000	0.994472
3654.000000	0.995470
3652.000000	0.996626
3650.000000	0.997536
3648.000000	0.998298
3646.000000	0.999246
3644.000000	1.000337
3642.000000	1.001421
3640.000000	1.002388
3638.000000	1.003343
3636.000000	1.004424
3634.000000	1.005505
3632.000000	1.006610
3630.000000	1.007417
3628.000000	1.007863
3626.000000	1.008757
3624.000000	1.010000
3622.000000	1.011033
3620.000000	1.011746
3618.000000	1.012373
3616.000000	1.013235
3614.000000	1.014114
3612.000000	1.014936
3610.000000	1.015715
3608.000000	1.016403
3606.000000	1.017206
3604.000000	1.018067
3602.000000	1.018808
3600.000000	1.019463
3598.000000	1.020131
3596.000000	1.020691
3594.000000	1.021206
3592.000000	1.021921
3590.000000	1.022621
3588.000000	1.022956
3586.000000	1.023274
3584.000000	1.023866
3582.000000	1.024447
3580.000000	1.024879
3578.000000	1.025258
3576.000000	1.025685
3574.000000	1.026196
3572.000000	1.026741
3570.000000	1.027109
3568.000000	1.027267
3566.000000	1.027459
3564.000000	1.027771
3562.000000	1.028092
3560.000000	1.028380
3558.000000	1.028679
3556.000000	1.029004
3554.000000	1.029272
3552.000000	1.029469
3550.000000	1.029667
3548.000000	1.029964
3546.000000	1.030219
3544.000000	1.030383
3542.000000	1.030616
3540.000000	1.030877
3538.000000	1.031124
3536.000000	1.031360
3534.000000	1.031583
3532.000000	1.031772
3530.000000	1.031906
3528.000000	1.032041
3526.000000	1.032269
3524.000000	1.032474
3522.000000	1.032648
3520.000000	1.032883
3518.000000	1.033082
3516.000000	1.033348
3514.000000	1.033698
3512.000000	1.033907
3510.000000	1.034070
3508.000000	1.034373
3506.000000	1.034697
3504.000000	1.034929
3502.000000	1.035113
3500.000000	1.035459
3498.000000	1.035882
3496.000000	1.036081
3494.000000	1.036252
3492.000000	1.036640
3490.000000	1.037007
3488.000000	1.037137
3486.000000	1.037267
3484.000000	1.037566
3482.000000	1.037880
3480.000000	1.038210
3478.000000	1.038559
3476.000000	1.038939
3474.000000	1.039245
3472.000000	1.039431
3470.000000	1.039714
3468.000000	1.040102
3466.000000	1.040409
3464.000000	1.040699
3462.000000	1.040994
3460.000000	1.041253
3458.000000	1.041452
3456.000000	1.041597
3454.000000	1.041802
3452.000000	1.042031
3450.000000	1.042256
3448.000000	1.042534
3446.000000	1.042791
3444.000000	1.042998
3442.000000	1.043149
3440.000000	1.043378
3438.000000	1.043696
3436.000000	1.043904
3434.000000	1.044017
3432.000000	1.044135
3430.000000	1.044329
3428.000000	1.044500
3426.000000	1.044577
3424.000000	1.044727
3422.000000	1.044909
3420.000000	1.045017
3418.000000	1.045174
3416.000000	1.045390
3414.000000	1.045522
3412.000000	1.045582
3410.000000	1.045740
3408.000000	1.045922
3406.000000	1.046066
3404.000000	1.046275
3402.000000	1.046477
3400.000000	1.046547
3398.000000	1.046570
3396.000000	1.046575
3394.000000	1.046623
3392.000000	1.046754
3390.000000	1.046818
3388.000000	1.046842
3386.000000	1.046897
3384.000000	1.046894
3382.000000	1.046909
3380.000000	1.047041
3378.000000	1.047162
3376.000000	1.047292
3374.000000	1.047419
3372.000000	1.047433
3370.000000	1.047485
3368.000000	1.047617
3366.000000	1.047637
3364.000000	1.047620
3362.000000	1.047673
3360.000000	1.047715
3358.000000	1.047753
3356.000000	1.047838
3354.000000	1.047905
3352.000000	1.047927
3350.000000	1.048005
3348.000000	1.048123
3346.000000	1.048148
3344.000000	1.048128
3342.000000	1.048167
3340.000000	1.048225
3338.000000	1.048270
3336.000000	1.048396
3334.000000	1.048571
3332.000000	1.048610
3330.000000	1.048578
3328.000000	1.048514
3326.000000	1.048452
3324.000000	1.048496
3322.000000	1.048585
3320.000000	1.048714
3318.000000	1.048847
3316.000000	1.048900
3314.000000	1.048887
3312.000000	1.049009
3310.000000	1.049134
3308.000000	1.049202
3306.000000	1.049263
3304.000000	1.049291
3302.000000	1.049429
3300.000000	1.049494
3298.000000	1.049441
3296.000000	1.049498
3294.000000	1.049608
3292.000000	1.049694
3290.000000	1.049814
3288.000000	1.049832
3286.000000	1.049846
3284.000000	1.049940
3282.000000	1.050052
3280.000000	1.050200
3278.000000	1.050293
3276.000000	1.050244
3274.000000	1.050184
3272.000000	1.050232
3270.000000	1.050321
3268.000000	1.050397
3266.000000	1.050432
3264.000000	1.050563
3262.000000	1.050689
3260.000000	1.050675
3258.000000	1.050646
3256.000000	1.050698
3254.000000	1.050776
3252.000000	1.050943
3250.000000	1.051045
3248.000000	1.050969
3246.000000	1.050913
3244.000000	1.051017
3242.000000	1.051133
3240.000000	1.051202
3238.000000	1.051316
3236.000000	1.051332
3234.000000	1.051258
3232.000000	1.051280
3230.000000	1.051394
3228.000000	1.051447
3226.000000	1.051469
3224.000000	1.051570
3222.000000	1.051612
3220.000000	1.051587
3218.000000	1.051622
3216.000000	1.051656
3214.000000	1.051669
3212.000000	1.051695
3210.000000	1.051675
3208.000000	1.051689
3206.000000	1.051648
3204.000000	1.051691
3202.000000	1.051875
3200.000000	1.051971
3198.000000	1.051993
3196.000000	1.052020
3194.000000	1.052029
3192.000000	1.052044
3190.000000	1.052107
3188.000000	1.052139
3186.000000	1.052080
3184.000000	1.052050
3182.000000	1.052051
3180.000000	1.052105
3178.000000	1.052247
3176.000000	1.052317
3174.000000	1.052266
3172.000000	1.052288
3170.000000	1.052309
3168.000000	1.052279
3166.000000	1.052274
3164.000000	1.052306
3162.000000	1.052361
3160.000000	1.052472
3158.000000	1.052558
3156.000000	1.052573
3154.000000	1.052617
3152.000000	1.052628
3150.000000	1.052633
3148.000000	1.052671
3146.000000	1.052642
3144.000000	1.052651
3142.000000	1.052678
3140.000000	1.052742
3138.000000	1.052813
3136.000000	1.052739
3134.000000	1.052698
3132.000000	1.052763
3130.000000	1.052823
3128.000000	1.052874
3126.000000	1.052917
3124.000000	1.052923
3122.000000	1.052909
3120.000000	1.052982
3118.000000	1.053062
3116.000000	1.053021
3114.000000	1.052990
3112.000000	1.053075
3110.000000	1.053176
3108.000000	1.053194
3106.000000	1.053179
3104.000000	1.053214
3102.000000	1.053261
3100.000000	1.053244
3098.000000	1.053190
3096.000000	1.053219
3094.000000	1.053246
3092.000000	1.053240
3090.000000	1.053324
3088.000000	1.053411
3086.000000	1.053427
3084.000000	1.053463
3082.000000	1.053548
3080.000000	1.053574
3078.000000	1.053511
3076.000000	1.053472
3074.000000	1.053498
3072.000000	1.053494
3070.000000	1.053467
3068.000000	1.053539
3066.000000	1.053610
3064.000000	1.053562
3062.000000	1.053437
3060.000000	1.053397
3058.000000	1.053493
3056.000000	1.053548
3054.000000	1.053463
3052.000000	1.053442
3050.000000	1.053493
3048.000000	1.053501
3046.000000	1.053503
3044.000000	1.053528
3042.000000	1.053593
3040.000000	1.053496
3038.000000	1.053359
3036.000000	1.053388
3034.000000	1.053420
3032.000000	1.053397
3030.000000	1.053345
3028.000000	1.053356
3026.000000	1.053468
3024.000000	1.053493
3022.000000	1.053402
3020.000000	1.053282
3018.000000	1.053118
3016.000000	1.052977
3014.000000	1.052878
3012.000000	1.052846
3010.000000	1.052893
3008.000000	1.052880
3006.000000	1.052766
3004.000000	1.052715
3002.000000	1.052723
3000.000000	1.052658
2998.000000	1.052558
2996.000000	1.052548
2994.000000	1.052577
2992.000000	1.052556
2990.000000	1.052518
2988.000000	1.052497
2986.000000	1.052496
2984.000000	1.052429
2982.000000	1.052303
2980.000000	1.052241
2978.000000	1.052251
2976.000000	1.052248
2974.000000	1.052293
2972.000000	1.052454
2970.000000	1.052633
2968.000000	1.052703
2966.000000	1.052665
2964.000000	1.052496
2962.000000	1.052250
2960.000000	1.051954
2958.000000	1.051520
2956.000000	1.051134
2954.000000	1.050893
2952.000000	1.050688
2950.000000	1.050463
2948.000000	1.050169
2946.000000	1.050033
2944.000000	1.050041
2942.000000	1.049961
2940.000000	1.049786
2938.000000	1.049603
2936.000000	1.049379
2934.000000	1.049139
2932.000000	1.048924
2930.000000	1.048743
2928.000000	1.048500
2926.000000	1.048129
2924.000000	1.047678
2922.000000	1.047283
2920.000000	1.046975
2918.000000	1.046647
2916.000000	1.046377
2914.000000	1.046236
2912.000000	1.046199
2910.000000	1.046173
2908.000000	1.046058
2906.000000	1.045927
2904.000000	1.045732
2902.000000	1.045423
2900.000000	1.045151
2898.000000	1.044970
2896.000000	1.044725
2894.000000	1.044472
2892.000000	1.044357
2890.000000	1.044179
2888.000000	1.043914
2886.000000	1.043590
2884.000000	1.043366
2882.000000	1.043217
2880.000000	1.043026
2878.000000	1.042796
2876.000000	1.042596
2874.000000	1.042471
2872.000000	1.042276
2870.000000	1.042037
2868.000000	1.041911
2866.000000	1.041825
2864.000000	1.041545
2862.000000	1.041085
2860.000000	1.040608
2858.000000	1.040249
2856.000000	1.040002
2854.000000	1.039763
2852.000000	1.039540
2850.000000	1.039275
2848.000000	1.038946
2846.000000	1.038720
2844.000000	1.038601
2842.000000	1.038480
2840.000000	1.038366
2838.000000	1.038252
2836.000000	1.038069
2834.000000	1.037925
2832.000000	1.037786
2830.000000	1.037585
2828.000000	1.037501
2826.000000	1.037367
2824.000000	1.037067
2822.000000	1.036869
2820.000000	1.036764
2818.000000	1.036617
2816.000000	1.036446
2814.000000	1.036244
2812.000000	1.036058
2810.000000	1.035939
2808.000000	1.035804
2806.000000	1.035674
2804.000000	1.035507
2802.000000	1.035275
2800.000000	1.035138
2798.000000	1.035056
2796.000000	1.034928
2794.000000	1.034741
2792.000000	1.034599
2790.000000	1.034507
2788.000000	1.034387
2786.000000	1.034214
2784.000000	1.034125
2782.000000	1.034083
2780.000000	1.034010
2778.000000	1.033921
2776.000000	1.033850
2774.000000	1.033780
2772.000000	1.033646
2770.000000	1.033561
2768.000000	1.033529
2766.000000	1.033457
2764.000000	1.033316
2762.000000	1.033185
2760.000000	1.033088
2758.000000	1.033018
2756.000000	1.032976
2754.000000	1.032928
2752.000000	1.032832
2750.000000	1.032737
2748.000000	1.032619
2746.000000	1.032557
2744.000000	1.032591
2742.000000	1.032559
2740.000000	1.032517
2738.000000	1.032596
2736.000000	1.032598
2734.000000	1.032498
2732.000000	1.032481
2730.000000	1.032481
2728.000000	1.032459
2726.000000	1.032442
2724.000000	1.032441
2722.000000	1.032429
2720.000000	1.032385
2718.000000	1.032341
2716.000000	1.032336
2714.000000	1.032358
2712.000000	1.032317
2710.000000	1.032281
2708.000000	1.032320
2706.000000	1.032394
2704.000000	1.032492
2702.000000	1.032536
2700.000000	1.032487
2698.000000	1.032459
2696.000000	1.032480
2694.000000	1.032527
2692.000000	1.032578
2690.000000	1.032581
2688.000000	1.032662
2686.000000	1.032815
2684.000000	1.032917
2682.000000	1.032935
2680.000000	1.032942
2678.000000	1.033011
2676.000000	1.033086
2674.000000	1.033196
2672.000000	1.033331
2670.000000	1.033412
2668.000000	1.033458
2666.000000	1.033508
2664.000000	1.033550
2662.000000	1.033657
2660.000000	1.033767
2658.000000	1.033822
2656.000000	1.033887
2654.000000	1.033959
2652.000000	1.034051
2650.000000	1.034251
2648.000000	1.034395
2646.000000	1.034444
2644.000000	1.034531
2642.000000	1.034690
2640.000000	1.034850
2638.000000	1.034952
2636.000000	1.035093
2634.000000	1.035238
2632.000000	1.035289
2630.000000	1.035354
2628.000000	1.035567
2626.000000	1.035814
2624.000000	1.035942
2622.000000	1.035989
2620.000000	1.036047
2618.000000	1.036235
2616.000000	1.036445
2614.000000	1.036608
2612.000000	1.036708
2610.000000	1.036768
2608.000000	1.036914
2606.000000	1.037149
2604.000000	1.037311
2602.000000	1.037448
2600.000000	1.037609
2598.000000	1.037782
2596.000000	1.037953
2594.000000	1.038090
2592.000000	1.038205
2590.000000	1.038352
2588.000000	1.038532
2586.000000	1.038690
2584.000000	1.038807
2582.000000	1.038904
2580.000000	1.039023
2578.000000	1.039198
2576.000000	1.039421
2574.000000	1.039577
2572.000000	1.039656
2570.000000	1.039795
2568.000000	1.039965
2566.000000	1.040078
2564.000000	1.040181
2562.000000	1.040335
2560.000000	1.040563
2558.000000	1.040764
2556.000000	1.040923
2554.000000	1.041087
2552.000000	1.041286
2550.000000	1.041540
2548.000000	1.041716
2546.000000	1.041847
2544.000000	1.041996
2542.000000	1.042140
2540.000000	1.042304
2538.000000	1.042464
2536.000000	1.042678
2534.000000	1.042906
2532.000000	1.043153
2530.000000	1.043355
2528.000000	1.043448
2526.000000	1.043604
2524.000000	1.043785
2522.000000	1.043972
2520.000000	1.044131
2518.000000	1.044277
2516.000000	1.044512
2514.000000	1.044772
2512.000000	1.045018
2510.000000	1.045192
2508.000000	1.045285
2506.000000	1.045505
2504.000000	1.045715
2502.000000	1.045849
2500.000000	1.046050
2498.000000	1.046224
2496.000000	1.046400
2494.000000	1.046683
2492.000000	1.046996
2490.000000	1.047200
2488.000000	1.047337
2486.000000	1.047539
2484.000000	1.047824
2482.000000	1.048032
2480.000000	1.048188
2478.000000	1.048331
2476.000000	1.048481
2474.000000	1.048761
2472.000000	1.049018
2470.000000	1.049111
2468.000000	1.049242
2466.000000	1.049509
2464.000000	1.049788
2462.000000	1.049901
2460.000000	1.049963
2458.000000	1.050175
2456.000000	1.050407
2454.000000	1.050556
2452.000000	1.050660
2450.000000	1.050766
2448.000000	1.050974
2446.000000	1.051198
2444.000000	1.051335
2442.000000	1.051355
2440.000000	1.051399
2438.000000	1.051528
2436.000000	1.051604
2434.000000	1.051712
2432.000000	1.051894
2430.000000	1.051929
2428.000000	1.051829
2426.000000	1.051842
2424.000000	1.051867
2422.000000	1.051720
2420.000000	1.051586
2418.000000	1.051446
2416.000000	1.051254
2414.000000	1.051136
2412.000000	1.051001
2410.000000	1.050817
2408.000000	1.050742
2406.000000	1.050636
2404.000000	1.050493
2402.000000	1.050388
2400.000000	1.050295
2398.000000	1.050239
2396.000000	1.050195
2394.000000	1.050152
2392.000000	1.050134
2390.000000	1.050141
2388.000000	1.050182
2386.000000	1.050233
2384.000000	1.050255
2382.000000	1.050272
2380.000000	1.050321
2378.000000	1.050391
2376.000000	1.050486
2374.000000	1.050548
2372.000000	1.050548
2370.000000	1.050648
2368.000000	1.050777
2366.000000	1.050856
2364.000000	1.050902
2362.000000	1.050902
2360.000000	1.050875
2358.000000	1.050859
2356.000000	1.050874
2354.000000	1.050918
2352.000000	1.050994
2350.000000	1.051153
2348.000000	1.051477
2346.000000	1.051890
2344.000000	1.052412
2342.000000	1.053130
2340.000000	1.053570
2338.000000	1.053291
2336.000000	1.052687
2334.000000	1.052316
2332.000000	1.052281
2330.000000	1.052368
2328.000000	1.052378
2326.000000	1.052413
2324.000000	1.052545
2322.000000	1.052664
2320.000000	1.052747
2318.000000	1.052826
2316.000000	1.052988
2314.000000	1.053142
2312.000000	1.053234
2310.000000	1.053334
2308.000000	1.053461
2306.000000	1.053614
2304.000000	1.053703
2302.000000	1.053759
2300.000000	1.053829
2298.000000	1.053879
2296.000000	1.054032
2294.000000	1.054173
2292.000000	1.054217
2290.000000	1.054295
2288.000000	1.054381
2286.000000	1.054450
2284.000000	1.054575
2282.000000	1.054723
2280.000000	1.054855
2278.000000	1.054948
2276.000000	1.054989
2274.000000	1.055093
2272.000000	1.055226
2270.000000	1.055340
2268.000000	1.055451
2266.000000	1.055527
2264.000000	1.055581
2262.000000	1.055669
2260.000000	1.055818
2258.000000	1.055898
2256.000000	1.055939
2254.000000	1.055986
2252.000000	1.056066
2250.000000	1.056154
2248.000000	1.056240
2246.000000	1.056273
2244.000000	1.056300
2242.000000	1.056394
2240.000000	1.056485
2238.000000	1.056478
2236.000000	1.056470
2234.000000	1.056567
2232.000000	1.056665
2230.000000	1.056720
2228.000000	1.056814
2226.000000	1.056880
2224.000000	1.056967
2222.000000	1.057009
2220.000000	1.056996
2218.000000	1.056934
2216.000000	1.056888
2214.000000	1.056914
2212.000000	1.056983
2210.000000	1.057006
2208.000000	1.056946
2206.000000	1.056930
2204.000000	1.056947
2202.000000	1.056861
2200.000000	1.056794
2198.000000	1.056800
2196.000000	1.056838
2194.000000	1.056905
2192.000000	1.056851
2190.000000	1.056696
2188.000000	1.056704
2186.000000	1.056735
2184.000000	1.056683
2182.000000	1.056643
2180.000000	1.056589
2178.000000	1.056530
2176.000000	1.056478
2174.000000	1.056473
2172.000000	1.056447
2170.000000	1.056310
2168.000000	1.056184
2166.000000	1.056118
2164.000000	1.056031
2162.000000	1.055968
2160.000000	1.055895
2158.000000	1.055767
2156.000000	1.055618
2154.000000	1.055551
2152.000000	1.055446
2150.000000	1.055303
2148.000000	1.055166
2146.000000	1.055129
2144.000000	1.055110
2142.000000	1.054968
2140.000000	1.054815
2138.000000	1.054683
2136.000000	1.054615
2134.000000	1.054479
2132.000000	1.054238
2130.000000	1.054069
2128.000000	1.053900
2126.000000	1.053741
2124.000000	1.053667
2122.000000	1.053527
2120.000000	1.053378
2118.000000	1.053241
2116.000000	1.053002
2114.000000	1.052781
2112.000000	1.052697
2110.000000	1.052652
2108.000000	1.052493
2106.000000	1.052257
2104.000000	1.051999
2102.000000	1.051824
2100.000000	1.051721
2098.000000	1.051556
2096.000000	1.051287
2094.000000	1.051037
2092.000000	1.050882
2090.000000	1.050772
2088.000000	1.050645
2086.000000	1.050433
2084.000000	1.050211
2082.000000	1.050034
2080.000000	1.049826
2078.000000	1.049609
2076.000000	1.049450
2074.000000	1.049278
2072.000000	1.049060
2070.000000	1.048887
2068.000000	1.048720
2066.000000	1.048484
2064.000000	1.048265
2062.000000	1.048136
2060.000000	1.047977
2058.000000	1.047804
2056.000000	1.047619
2054.000000	1.047344
2052.000000	1.047102
2050.000000	1.046941
2048.000000	1.046718
2046.000000	1.046520
2044.000000	1.046383
2042.000000	1.046232
2040.000000	1.046091
2038.000000	1.045911
2036.000000	1.045701
2034.000000	1.045516
2032.000000	1.045390
2030.000000	1.045253
2028.000000	1.045008
2026.000000	1.044851
2024.000000	1.044781
2022.000000	1.044650
2020.000000	1.044479
2018.000000	1.044281
2016.000000	1.044110
2014.000000	1.043941
2012.000000	1.043760
2010.000000	1.043602
2008.000000	1.043488
2006.000000	1.043368
2004.000000	1.043276
2002.000000	1.043164
2000.000000	1.043057
1998.000000	1.042930
1996.000000	1.042776
1994.000000	1.042686
1992.000000	1.042593
1990.000000	1.042450
1988.000000	1.042354
1986.000000	1.042282
1984.000000	1.042167
1982.000000	1.042078
1980.000000	1.041999
1978.000000	1.041950
1976.000000	1.041920
1974.000000	1.041884
1972.000000	1.041841
1970.000000	1.041762
1968.000000	1.041656
1966.000000	1.041619
1964.000000	1.041665
1962.000000	1.041684
1960.000000	1.041660
1958.000000	1.041488
1956.000000	1.041364
1954.000000	1.041380
1952.000000	1.041430
1950.000000	1.041399
1948.000000	1.041381
1946.000000	1.041423
1944.000000	1.041392
1942.000000	1.041318
1940.000000	1.041315
1938.000000	1.041353
1936.000000	1.041390
1934.000000	1.041421
1932.000000	1.041491
1930.000000	1.041566
1928.000000	1.041571
1926.000000	1.041576
1924.000000	1.041616
1922.000000	1.041607
1920.000000	1.041658
1918.000000	1.041713
1916.000000	1.041707
1914.000000	1.041736
1912.000000	1.041827
1910.000000	1.041926
1908.000000	1.042008
1906.000000	1.042106
1904.000000	1.042140
1902.000000	1.042240
1900.000000	1.042331
1898.000000	1.042378
1896.000000	1.042460
1894.000000	1.042523
1892.000000	1.042579
1890.000000	1.042631
1888.000000	1.042712
1886.000000	1.042808
1884.000000	1.042836
1882.000000	1.042907
1880.000000	1.042988
1878.000000	1.043129
1876.000000	1.043303
1874.000000	1.043399
1872.000000	1.043463
1870.000000	1.043493
1868.000000	1.043473
1866.000000	1.043641
1864.000000	1.043814
1862.000000	1.043862
1860.000000	1.043918
1858.000000	1.044083
1856.000000	1.044200
1854.000000	1.044262
1852.000000	1.044347
1850.000000	1.044516
1848.000000	1.044660
1846.000000	1.044842
1844.000000	1.044866
1842.000000	1.044889
1840.000000	1.045151
1838.000000	1.045383
1836.000000	1.045537
1834.000000	1.045636
1832.000000	1.045820
1830.000000	1.045974
1828.000000	1.046073
1826.000000	1.046297
1824.000000	1.046445
1822.000000	1.046639
1820.000000	1.046801
1818.000000	1.046945
1816.000000	1.047159
1814.000000	1.047446
1812.000000	1.047609
1810.000000	1.047726
1808.000000	1.047915
1806.000000	1.048184
1804.000000	1.048416
1802.000000	1.048573
1800.000000	1.048747
1798.000000	1.048963
1796.000000	1.049221
1794.000000	1.049561
1792.000000	1.049649
1790.000000	1.049727
1788.000000	1.050033
1786.000000	1.050375
1784.000000	1.050576
1782.000000	1.050800
1780.000000	1.050998
1778.000000	1.051329
1776.000000	1.051749
1774.000000	1.052092
1772.000000	1.052116
1770.000000	1.052265
1768.000000	1.052613
1766.000000	1.052943
1764.000000	1.053389
1762.000000	1.053600
1760.000000	1.053723
1758.000000	1.054075
1756.000000	1.054357
1754.000000	1.054752
1752.000000	1.055059
1750.000000	1.055214
1748.000000	1.055512
1746.000000	1.055805
1744.000000	1.056075
1742.000000	1.056342
1740.000000	1.056523
1738.000000	1.056775
1736.000000	1.057291
1734.000000	1.057191
1732.000000	1.057149
1730.000000	1.057515
1728.000000	1.057733
1726.000000	1.058004
1724.000000	1.058236
1722.000000	1.058472
1720.000000	1.058887
1718.000000	1.058954
1716.000000	1.058691
1714.000000	1.058840
1712.000000	1.059062
1710.000000	1.059318
1708.000000	1.059503
1706.000000	1.059586
1704.000000	1.059758
1702.000000	1.060109
1700.000000	1.059762
1698.000000	1.059844
1696.000000	1.060001
1694.000000	1.059846
1692.000000	1.060147
1690.000000	1.060224
1688.000000	1.060443
1686.000000	1.060757
1684.000000	1.060249
1682.000000	1.060113
1680.000000	1.060486
1678.000000	1.060767
1676.000000	1.060859
1674.000000	1.060688
1672.000000	1.060948
1670.000000	1.061016
1668.000000	1.060870
1666.000000	1.061080
1664.000000	1.061309
1662.000000	1.061243
1660.000000	1.061264
1658.000000	1.061386
1656.000000	1.061825
1654.000000	1.061805
1652.000000	1.060911
1650.000000	1.061113
1648.000000	1.061677
1646.000000	1.061535
1644.000000	1.061426
1642.000000	1.061583
1640.000000	1.061735
1638.000000	1.061932
1636.000000	1.061734
1634.000000	1.061393
1632.000000	1.061572
1630.000000	1.061745
1628.000000	1.061844
1626.000000	1.061908
1624.000000	1.061762
1622.000000	1.061486
1620.000000	1.061659
1618.000000	1.061844
1616.000000	1.061507
1614.000000	1.061542
1612.000000	1.061839
1610.000000	1.061857
1608.000000	1.061770
1606.000000	1.061645
1604.000000	1.061603
1602.000000	1.061566
1600.000000	1.061582
1598.000000	1.061592
1596.000000	1.061575
1594.000000	1.061630
1592.000000	1.061740
1590.000000	1.061759
1588.000000	1.061741
1586.000000	1.061798
1584.000000	1.061813
1582.000000	1.061820
1580.000000	1.062022
1578.000000	1.062264
1576.000000	1.061911
1574.000000	1.061687
1572.000000	1.061980
1570.000000	1.061986
1568.000000	1.061974
1566.000000	1.062037
1564.000000	1.062158
1562.000000	1.062644
1560.000000	1.062672
1558.000000	1.061951
1556.000000	1.062008
1554.000000	1.062123
1552.000000	1.062054
1550.000000	1.062091
1548.000000	1.062233
1546.000000	1.062507
1544.000000	1.062646
1542.000000	1.062762
1540.000000	1.062483
1538.000000	1.062091
1536.000000	1.062351
1534.000000	1.062478
1532.000000	1.062428
1530.000000	1.062635
1528.000000	1.062758
1526.000000	1.062673
1524.000000	1.062745
1522.000000	1.062763
1520.000000	1.062569
1518.000000	1.062735
1516.000000	1.062715
1514.000000	1.062705
1512.000000	1.062823
1510.000000	1.063048
1508.000000	1.063212
1506.000000	1.062827
1504.000000	1.062842
1502.000000	1.063545
1500.000000	1.064124
1498.000000	1.064193
1496.000000	1.063413
1494.000000	1.062473
1492.000000	1.062078
1490.000000	1.061921
1488.000000	1.061924
1486.000000	1.062119
1484.000000	1.062317
1482.000000	1.062421
1480.000000	1.062536
1478.000000	1.062709
1476.000000	1.062808
1474.000000	1.062839
1472.000000	1.062566
1470.000000	1.062470
1468.000000	1.062730
1466.000000	1.062938
1464.000000	1.062853
1462.000000	1.062938
1460.000000	1.063184
1458.000000	1.063176
1456.000000	1.062772
1454.000000	1.062659
1452.000000	1.062541
1450.000000	1.062173
1448.000000	1.061973
1446.000000	1.062080
1444.000000	1.062194
1442.000000	1.062183
1440.000000	1.062309
1438.000000	1.062386
1436.000000	1.062047
1434.000000	1.061944
1432.000000	1.062129
1430.000000	1.062170
1428.000000	1.062115
1426.000000	1.061947
1424.000000	1.061823
1422.000000	1.061884
1420.000000	1.061838
1418.000000	1.061624
1416.000000	1.061599
1414.000000	1.061639
1412.000000	1.061694
1410.000000	1.061696
1408.000000	1.061718
1406.000000	1.061646
1404.000000	1.061314
1402.000000	1.061109
1400.000000	1.061064
1398.000000	1.060847
1396.000000	1.060767
1394.000000	1.060645
1392.000000	1.060604
1390.000000	1.060752
1388.000000	1.060869
1386.000000	1.060756
1384.000000	1.060603
1382.000000	1.060402
1380.000000	1.060278
1378.000000	1.060248
1376.000000	1.060198
1374.000000	1.060027
1372.000000	1.059906
1370.000000	1.059863
1368.000000	1.059753
1366.000000	1.059716
1364.000000	1.059657
1362.000000	1.059443
1360.000000	1.059354
1358.000000	1.059303
1356.000000	1.059309
1354.000000	1.059153
1352.000000	1.058877
1350.000000	1.058717
1348.000000	1.058695
1346.000000	1.058660
1344.000000	1.058552
1342.000000	1.058476
1340.000000	1.058401
1338.000000	1.058258
1336.000000	1.058158
1334.000000	1.058039
1332.000000	1.057899
1330.000000	1.057925
1328.000000	1.057921
1326.000000	1.057847
1324.000000	1.057648
1322.000000	1.057533
1320.000000	1.057489
1318.000000	1.057223
1316.000000	1.057014
1314.000000	1.056908
1312.000000	1.056829
1310.000000	1.056881
1308.000000	1.056860
1306.000000	1.056644
1304.000000	1.056483
1302.000000	1.056387
1300.000000	1.056383
1298.000000	1.056337
1296.000000	1.056256
1294.000000	1.056233
1292.000000	1.056195
1290.000000	1.056061
1288.000000	1.056018
1286.000000	1.056029
1284.000000	1.055851
1282.000000	1.055637
1280.000000	1.055574
1278.000000	1.055725
1276.000000	1.055948
1274.000000	1.055910
1272.000000	1.055932
1270.000000	1.056282
1268.000000	1.057015
1266.000000	1.057975
1264.000000	1.058942
1262.000000	1.059536
1260.000000	1.059380
1258.000000	1.058692
1256.000000	1.057799
1254.000000	1.057157
1252.000000	1.056654
1250.000000	1.056165
1248.000000	1.055888
1246.000000	1.055779
1244.000000	1.055822
1242.000000	1.056050
1240.000000	1.056274
1238.000000	1.056342
1236.000000	1.056256
1234.000000	1.056121
1232.000000	1.056106
1230.000000	1.056157
1228.000000	1.056274
1226.000000	1.056356
1224.000000	1.056288
1222.000000	1.056112
1220.000000	1.056036
1218.000000	1.056217
1216.000000	1.056473
1214.000000	1.056507
1212.000000	1.056337
1210.000000	1.056345
1208.000000	1.056573
1206.000000	1.056660
1204.000000	1.056678
1202.000000	1.056829
1200.000000	1.056857
1198.000000	1.056787
1196.000000	1.056876
1194.000000	1.057076
1192.000000	1.057322
1190.000000	1.057534
1188.000000	1.057692
1186.000000	1.057929
1184.000000	1.058320
1182.000000	1.058604
1180.000000	1.058396
1178.000000	1.058183
1176.000000	1.058422
1174.000000	1.058632
1172.000000	1.058776
1170.000000	1.059054
1168.000000	1.059220
1166.000000	1.059315
1164.000000	1.059459
1162.000000	1.059776
1160.000000	1.060023
1158.000000	1.060048
1156.000000	1.059935
1154.000000	1.060013
1152.000000	1.060117
1150.000000	1.060117
1148.000000	1.060064
1146.000000	1.060093
1144.000000	1.060301
1142.000000	1.060527
1140.000000	1.060538
1138.000000	1.060478
1136.000000	1.060413
1134.000000	1.060412
1132.000000	1.060448
1130.000000	1.060328
1128.000000	1.060256
1126.000000	1.060502
1124.000000	1.060738
1122.000000	1.060850
1120.000000	1.060836
1118.000000	1.060994
1116.000000	1.061426
1114.000000	1.061744
1112.000000	1.062007
1110.000000	1.061967
1108.000000	1.061995
1106.000000	1.062248
1104.000000	1.062650
1102.000000	1.062877
1100.000000	1.062709
1098.000000	1.062883
1096.000000	1.063188
1094.000000	1.062894
1092.000000	1.062728
1090.000000	1.062818
1088.000000	1.062661
1086.000000	1.062541
1084.000000	1.062599
1082.000000	1.062482
1080.000000	1.062115
1078.000000	1.061341
1076.000000	1.060999
1074.000000	1.060462
1072.000000	1.059668
1070.000000	1.059126
1068.000000	1.058363
1066.000000	1.057486
1064.000000	1.056867
1062.000000	1.056207
1060.000000	1.055871
1058.000000	1.055522
1056.000000	1.055406
1054.000000	1.055142
1052.000000	1.054064
1050.000000	1.052848
1048.000000	1.052035
1046.000000	1.051963
1044.000000	1.051632
1042.000000	1.050846
1040.000000	1.050543
1038.000000	1.050430
1036.000000	1.049764
1034.000000	1.048976
1032.000000	1.049061
1030.000000	1.048812
1028.000000	1.048213
1026.000000	1.048221
1024.000000	1.048358
1022.000000	1.048234
1020.000000	1.047435
1018.000000	1.047075
1016.000000	1.047026
1014.000000	1.046360
1012.000000	1.045977
1010.000000	1.045434
1008.000000	1.044300
1006.000000	1.043805
1004.000000	1.043386
1002.000000	1.043634
1000.000000	1.043628
