PE IR       SUBTECH     SPECTRUM    ASCII       PEDS        4.00        
   -1
TE109A_014_80K.ASC
20/04/21
12:22:00.00
20/04/21
12:22:12.00
Administrator
TE109A, Tuesday, April 21 2020, 014.
1000.000000
#HDR
-1
-1
#GR
cm-1
A
1.0
0.0
6000.000000
-2.000000
2501
8
1.242628
1.133538
#DATA
6000.000000	1.176350
5998.000000	1.176669
5996.000000	1.177636
5994.000000	1.178318
5992.000000	1.178393
5990.000000	1.177873
5988.000000	1.178147
5986.000000	1.178543
5984.000000	1.177829
5982.000000	1.176890
5980.000000	1.176418
5978.000000	1.176863
5976.000000	1.176876
5974.000000	1.176140
5972.000000	1.176082
5970.000000	1.176665
5968.000000	1.177276
5966.000000	1.177588
5964.000000	1.177803
5962.000000	1.177876
5960.000000	1.177680
5958.000000	1.177333
5956.000000	1.176948
5954.000000	1.176273
5952.000000	1.176211
5950.000000	1.176317
5948.000000	1.177091
5946.000000	1.177465
5944.000000	1.177350
5942.000000	1.177305
5940.000000	1.176757
5938.000000	1.176067
5936.000000	1.175701
5934.000000	1.176165
5932.000000	1.176599
5930.000000	1.176838
5928.000000	1.176554
5926.000000	1.176355
5924.000000	1.176162
5922.000000	1.175417
5920.000000	1.175129
5918.000000	1.175449
5916.000000	1.175855
5914.000000	1.175828
5912.000000	1.175564
5910.000000	1.175521
5908.000000	1.176134
5906.000000	1.176877
5904.000000	1.177093
5902.000000	1.177054
5900.000000	1.176280
5898.000000	1.175710
5896.000000	1.175468
5894.000000	1.175219
5892.000000	1.175344
5890.000000	1.175540
5888.000000	1.175605
5886.000000	1.175949
5884.000000	1.176167
5882.000000	1.176255
5880.000000	1.175811
5878.000000	1.175099
5876.000000	1.174641
5874.000000	1.174873
5872.000000	1.174539
5870.000000	1.174752
5868.000000	1.174959
5866.000000	1.174907
5864.000000	1.175002
5862.000000	1.175081
5860.000000	1.175411
5858.000000	1.175507
5856.000000	1.175501
5854.000000	1.175279
5852.000000	1.174767
5850.000000	1.173850
5848.000000	1.173629
5846.000000	1.174567
5844.000000	1.175200
5842.000000	1.175459
5840.000000	1.174567
5838.000000	1.173744
5836.000000	1.173784
5834.000000	1.174163
5832.000000	1.174481
5830.000000	1.173967
5828.000000	1.173501
5826.000000	1.173399
5824.000000	1.173686
5822.000000	1.173739
5820.000000	1.173911
5818.000000	1.173969
5816.000000	1.173936
5814.000000	1.174193
5812.000000	1.174367
5810.000000	1.174534
5808.000000	1.174351
5806.000000	1.174283
5804.000000	1.174781
5802.000000	1.175153
5800.000000	1.174837
5798.000000	1.174294
5796.000000	1.174022
5794.000000	1.174230
5792.000000	1.174223
5790.000000	1.174015
5788.000000	1.173946
5786.000000	1.174249
5784.000000	1.174136
5782.000000	1.174001
5780.000000	1.174197
5778.000000	1.174685
5776.000000	1.175011
5774.000000	1.174684
5772.000000	1.174504
5770.000000	1.174455
5768.000000	1.174422
5766.000000	1.174322
5764.000000	1.174246
5762.000000	1.174264
5760.000000	1.174482
5758.000000	1.174605
5756.000000	1.174172
5754.000000	1.173552
5752.000000	1.173185
5750.000000	1.173613
5748.000000	1.174102
5746.000000	1.174152
5744.000000	1.173750
5742.000000	1.173254
5740.000000	1.173103
5738.000000	1.173387
5736.000000	1.173939
5734.000000	1.174368
5732.000000	1.174286
5730.000000	1.174074
5728.000000	1.174253
5726.000000	1.174742
5724.000000	1.174886
5722.000000	1.174471
5720.000000	1.173957
5718.000000	1.173665
5716.000000	1.173525
5714.000000	1.173615
5712.000000	1.173816
5710.000000	1.174126
5708.000000	1.174033
5706.000000	1.173974
5704.000000	1.173843
5702.000000	1.173872
5700.000000	1.173763
5698.000000	1.173491
5696.000000	1.173506
5694.000000	1.173553
5692.000000	1.173825
5690.000000	1.174236
5688.000000	1.174548
5686.000000	1.174459
5684.000000	1.173784
5682.000000	1.173699
5680.000000	1.173787
5678.000000	1.174142
5676.000000	1.174249
5674.000000	1.174070
5672.000000	1.173911
5670.000000	1.174086
5668.000000	1.174621
5666.000000	1.174355
5664.000000	1.173268
5662.000000	1.172490
5660.000000	1.172627
5658.000000	1.172797
5656.000000	1.172776
5654.000000	1.173031
5652.000000	1.173641
5650.000000	1.174141
5648.000000	1.173572
5646.000000	1.172591
5644.000000	1.172148
5642.000000	1.172784
5640.000000	1.173647
5638.000000	1.173904
5636.000000	1.173800
5634.000000	1.173732
5632.000000	1.174014
5630.000000	1.173997
5628.000000	1.173812
5626.000000	1.173391
5624.000000	1.173052
5622.000000	1.172983
5620.000000	1.172742
5618.000000	1.172497
5616.000000	1.172367
5614.000000	1.172465
5612.000000	1.172624
5610.000000	1.172537
5608.000000	1.172474
5606.000000	1.172386
5604.000000	1.172619
5602.000000	1.172968
5600.000000	1.173148
5598.000000	1.173018
5596.000000	1.172759
5594.000000	1.172639
5592.000000	1.172713
5590.000000	1.173221
5588.000000	1.173381
5586.000000	1.173017
5584.000000	1.172599
5582.000000	1.172619
5580.000000	1.173181
5578.000000	1.173244
5576.000000	1.172920
5574.000000	1.172659
5572.000000	1.172279
5570.000000	1.172425
5568.000000	1.172672
5566.000000	1.172675
5564.000000	1.172471
5562.000000	1.172361
5560.000000	1.172576
5558.000000	1.172797
5556.000000	1.172798
5554.000000	1.172743
5552.000000	1.172517
5550.000000	1.172392
5548.000000	1.172288
5546.000000	1.171973
5544.000000	1.171566
5542.000000	1.171529
5540.000000	1.172028
5538.000000	1.172129
5536.000000	1.171652
5534.000000	1.171389
5532.000000	1.171439
5530.000000	1.171550
5528.000000	1.171640
5526.000000	1.171936
5524.000000	1.172434
5522.000000	1.172334
5520.000000	1.171987
5518.000000	1.171856
5516.000000	1.171963
5514.000000	1.172138
5512.000000	1.172060
5510.000000	1.172039
5508.000000	1.171834
5506.000000	1.171490
5504.000000	1.171211
5502.000000	1.171090
5500.000000	1.171152
5498.000000	1.171169
5496.000000	1.171313
5494.000000	1.171539
5492.000000	1.171755
5490.000000	1.171678
5488.000000	1.171615
5486.000000	1.171783
5484.000000	1.171734
5482.000000	1.171516
5480.000000	1.171329
5478.000000	1.171249
5476.000000	1.170992
5474.000000	1.170758
5472.000000	1.170961
5470.000000	1.171443
5468.000000	1.171496
5466.000000	1.171242
5464.000000	1.170954
5462.000000	1.170792
5460.000000	1.170667
5458.000000	1.170336
5456.000000	1.169977
5454.000000	1.169803
5452.000000	1.169842
5450.000000	1.170053
5448.000000	1.170213
5446.000000	1.170315
5444.000000	1.170424
5442.000000	1.170299
5440.000000	1.170067
5438.000000	1.169824
5436.000000	1.169817
5434.000000	1.170237
5432.000000	1.170347
5430.000000	1.170238
5428.000000	1.169826
5426.000000	1.169917
5424.000000	1.170057
5422.000000	1.169970
5420.000000	1.170230
5418.000000	1.170602
5416.000000	1.170539
5414.000000	1.170196
5412.000000	1.170048
5410.000000	1.170337
5408.000000	1.170404
5406.000000	1.170261
5404.000000	1.170030
5402.000000	1.169907
5400.000000	1.169901
5398.000000	1.169811
5396.000000	1.169703
5394.000000	1.169817
5392.000000	1.170112
5390.000000	1.170495
5388.000000	1.170559
5386.000000	1.170442
5384.000000	1.170254
5382.000000	1.170252
5380.000000	1.170241
5378.000000	1.169976
5376.000000	1.170099
5374.000000	1.170252
5372.000000	1.170398
5370.000000	1.170407
5368.000000	1.170219
5366.000000	1.169924
5364.000000	1.169739
5362.000000	1.169990
5360.000000	1.170312
5358.000000	1.170258
5356.000000	1.169804
5354.000000	1.169407
5352.000000	1.169291
5350.000000	1.169561
5348.000000	1.169978
5346.000000	1.170008
5344.000000	1.169879
5342.000000	1.169888
5340.000000	1.170183
5338.000000	1.170169
5336.000000	1.170085
5334.000000	1.170164
5332.000000	1.170290
5330.000000	1.170233
5328.000000	1.170129
5326.000000	1.170370
5324.000000	1.170393
5322.000000	1.170373
5320.000000	1.170435
5318.000000	1.170685
5316.000000	1.170871
5314.000000	1.170862
5312.000000	1.170846
5310.000000	1.170875
5308.000000	1.170844
5306.000000	1.170858
5304.000000	1.171082
5302.000000	1.171462
5300.000000	1.171748
5298.000000	1.171772
5296.000000	1.171779
5294.000000	1.171898
5292.000000	1.171960
5290.000000	1.172129
5288.000000	1.172407
5286.000000	1.172677
5284.000000	1.172810
5282.000000	1.172797
5280.000000	1.172932
5278.000000	1.173155
5276.000000	1.173577
5274.000000	1.173973
5272.000000	1.174177
5270.000000	1.174300
5268.000000	1.174388
5266.000000	1.174459
5264.000000	1.174748
5262.000000	1.175062
5260.000000	1.175171
5258.000000	1.175418
5256.000000	1.176049
5254.000000	1.176680
5252.000000	1.176704
5250.000000	1.176604
5248.000000	1.176784
5246.000000	1.177286
5244.000000	1.177644
5242.000000	1.177825
5240.000000	1.177966
5238.000000	1.178495
5236.000000	1.179053
5234.000000	1.179327
5232.000000	1.179412
5230.000000	1.179681
5228.000000	1.179916
5226.000000	1.180064
5224.000000	1.180337
5222.000000	1.180936
5220.000000	1.181609
5218.000000	1.182001
5216.000000	1.182297
5214.000000	1.182889
5212.000000	1.183499
5210.000000	1.183955
5208.000000	1.184151
5206.000000	1.184294
5204.000000	1.184592
5202.000000	1.185151
5200.000000	1.185928
5198.000000	1.186255
5196.000000	1.186125
5194.000000	1.186289
5192.000000	1.186890
5190.000000	1.187514
5188.000000	1.187955
5186.000000	1.188446
5184.000000	1.188948
5182.000000	1.189350
5180.000000	1.189797
5178.000000	1.190123
5176.000000	1.190341
5174.000000	1.190725
5172.000000	1.191351
5170.000000	1.191935
5168.000000	1.192459
5166.000000	1.192828
5164.000000	1.193184
5162.000000	1.193663
5160.000000	1.194112
5158.000000	1.194449
5156.000000	1.194733
5154.000000	1.194909
5152.000000	1.194987
5150.000000	1.195348
5148.000000	1.195888
5146.000000	1.195979
5144.000000	1.196083
5142.000000	1.196520
5140.000000	1.196968
5138.000000	1.197061
5136.000000	1.197196
5134.000000	1.197694
5132.000000	1.198140
5130.000000	1.198240
5128.000000	1.198015
5126.000000	1.198007
5124.000000	1.198348
5122.000000	1.198671
5120.000000	1.198927
5118.000000	1.199164
5116.000000	1.199315
5114.000000	1.198994
5112.000000	1.198667
5110.000000	1.198760
5108.000000	1.199167
5106.000000	1.199482
5104.000000	1.199760
5102.000000	1.200041
5100.000000	1.200099
5098.000000	1.200134
5096.000000	1.200262
5094.000000	1.200288
5092.000000	1.199923
5090.000000	1.199724
5088.000000	1.199920
5086.000000	1.200216
5084.000000	1.200268
5082.000000	1.200045
5080.000000	1.200133
5078.000000	1.200573
5076.000000	1.200772
5074.000000	1.200437
5072.000000	1.200138
5070.000000	1.200152
5068.000000	1.200330
5066.000000	1.200573
5064.000000	1.200439
5062.000000	1.200069
5060.000000	1.199817
5058.000000	1.199782
5056.000000	1.199850
5054.000000	1.200155
5052.000000	1.200341
5050.000000	1.200062
5048.000000	1.199914
5046.000000	1.199988
5044.000000	1.199884
5042.000000	1.199633
5040.000000	1.199614
5038.000000	1.199939
5036.000000	1.200074
5034.000000	1.199726
5032.000000	1.199356
5030.000000	1.199372
5028.000000	1.199463
5026.000000	1.199367
5024.000000	1.199310
5022.000000	1.199368
5020.000000	1.199324
5018.000000	1.199419
5016.000000	1.199458
5014.000000	1.199102
5012.000000	1.198512
5010.000000	1.198233
5008.000000	1.198368
5006.000000	1.198578
5004.000000	1.198649
5002.000000	1.198649
5000.000000	1.198570
4998.000000	1.198305
4996.000000	1.197928
4994.000000	1.197830
4992.000000	1.198154
4990.000000	1.198316
4988.000000	1.198051
4986.000000	1.197664
4984.000000	1.197314
4982.000000	1.196957
4980.000000	1.196820
4978.000000	1.196960
4976.000000	1.196798
4974.000000	1.196497
4972.000000	1.196525
4970.000000	1.196650
4968.000000	1.196469
4966.000000	1.196243
4964.000000	1.196003
4962.000000	1.195645
4960.000000	1.195413
4958.000000	1.195512
4956.000000	1.195526
4954.000000	1.195326
4952.000000	1.195169
4950.000000	1.195038
4948.000000	1.194880
4946.000000	1.194909
4944.000000	1.195095
4942.000000	1.194910
4940.000000	1.194184
4938.000000	1.193478
4936.000000	1.193215
4934.000000	1.193313
4932.000000	1.193518
4930.000000	1.193738
4928.000000	1.193838
4926.000000	1.193484
4924.000000	1.192787
4922.000000	1.192233
4920.000000	1.192044
4918.000000	1.191963
4916.000000	1.191867
4914.000000	1.191732
4912.000000	1.191763
4910.000000	1.191822
4908.000000	1.191624
4906.000000	1.191276
4904.000000	1.190972
4902.000000	1.190770
4900.000000	1.190498
4898.000000	1.190371
4896.000000	1.190193
4894.000000	1.189787
4892.000000	1.189200
4890.000000	1.188905
4888.000000	1.189010
4886.000000	1.189012
4884.000000	1.188534
4882.000000	1.188145
4880.000000	1.187989
4878.000000	1.187842
4876.000000	1.187703
4874.000000	1.187614
4872.000000	1.187394
4870.000000	1.186858
4868.000000	1.186321
4866.000000	1.186108
4864.000000	1.186110
4862.000000	1.186092
4860.000000	1.186033
4858.000000	1.185915
4856.000000	1.185499
4854.000000	1.185221
4852.000000	1.185209
4850.000000	1.184961
4848.000000	1.184540
4846.000000	1.184284
4844.000000	1.184096
4842.000000	1.183762
4840.000000	1.183468
4838.000000	1.183290
4836.000000	1.183134
4834.000000	1.182808
4832.000000	1.182265
4830.000000	1.181678
4828.000000	1.181325
4826.000000	1.181230
4824.000000	1.181323
4822.000000	1.181365
4820.000000	1.181167
4818.000000	1.180806
4816.000000	1.180575
4814.000000	1.180391
4812.000000	1.179890
4810.000000	1.179309
4808.000000	1.179170
4806.000000	1.179129
4804.000000	1.178717
4802.000000	1.178235
4800.000000	1.178073
4798.000000	1.178047
4796.000000	1.177828
4794.000000	1.177506
4792.000000	1.177303
4790.000000	1.177224
4788.000000	1.177000
4786.000000	1.176696
4784.000000	1.176362
4782.000000	1.175951
4780.000000	1.175534
4778.000000	1.175196
4776.000000	1.174911
4774.000000	1.174623
4772.000000	1.174334
4770.000000	1.174081
4768.000000	1.174026
4766.000000	1.173954
4764.000000	1.173571
4762.000000	1.173019
4760.000000	1.172720
4758.000000	1.172508
4756.000000	1.172235
4754.000000	1.171985
4752.000000	1.171895
4750.000000	1.171838
4748.000000	1.171831
4746.000000	1.171773
4744.000000	1.171387
4742.000000	1.170877
4740.000000	1.170489
4738.000000	1.170341
4736.000000	1.170232
4734.000000	1.170188
4732.000000	1.169959
4730.000000	1.169405
4728.000000	1.168821
4726.000000	1.168581
4724.000000	1.168387
4722.000000	1.167995
4720.000000	1.167663
4718.000000	1.167659
4716.000000	1.167688
4714.000000	1.167506
4712.000000	1.167155
4710.000000	1.167027
4708.000000	1.167175
4706.000000	1.167094
4704.000000	1.166700
4702.000000	1.166371
4700.000000	1.166309
4698.000000	1.166271
4696.000000	1.165938
4694.000000	1.165503
4692.000000	1.165237
4690.000000	1.165175
4688.000000	1.165000
4686.000000	1.164681
4684.000000	1.164295
4682.000000	1.164179
4680.000000	1.164261
4678.000000	1.164111
4676.000000	1.163668
4674.000000	1.163436
4672.000000	1.163410
4670.000000	1.163228
4668.000000	1.162888
4666.000000	1.162719
4664.000000	1.162667
4662.000000	1.162607
4660.000000	1.162280
4658.000000	1.161822
4656.000000	1.161614
4654.000000	1.161714
4652.000000	1.161761
4650.000000	1.161627
4648.000000	1.161307
4646.000000	1.161041
4644.000000	1.160899
4642.000000	1.160734
4640.000000	1.160691
4638.000000	1.160849
4636.000000	1.160854
4634.000000	1.160553
4632.000000	1.160249
4630.000000	1.160101
4628.000000	1.160020
4626.000000	1.159971
4624.000000	1.159931
4622.000000	1.159720
4620.000000	1.159405
4618.000000	1.159379
4616.000000	1.159425
4614.000000	1.159241
4612.000000	1.159024
4610.000000	1.158887
4608.000000	1.158685
4606.000000	1.158520
4604.000000	1.158404
4602.000000	1.158201
4600.000000	1.157924
4598.000000	1.157836
4596.000000	1.158012
4594.000000	1.158045
4592.000000	1.157808
4590.000000	1.157689
4588.000000	1.157605
4586.000000	1.157385
4584.000000	1.157230
4582.000000	1.157130
4580.000000	1.156866
4578.000000	1.156545
4576.000000	1.156431
4574.000000	1.156487
4572.000000	1.156349
4570.000000	1.156186
4568.000000	1.156304
4566.000000	1.156332
4564.000000	1.156015
4562.000000	1.155828
4560.000000	1.155825
4558.000000	1.155830
4556.000000	1.155750
4554.000000	1.155629
4552.000000	1.155471
4550.000000	1.155420
4548.000000	1.155403
4546.000000	1.155372
4544.000000	1.155208
4542.000000	1.155024
4540.000000	1.155077
4538.000000	1.155229
4536.000000	1.155153
4534.000000	1.154906
4532.000000	1.154840
4530.000000	1.154901
4528.000000	1.154917
4526.000000	1.154802
4524.000000	1.154624
4522.000000	1.154519
4520.000000	1.154555
4518.000000	1.154474
4516.000000	1.154205
4514.000000	1.154004
4512.000000	1.153875
4510.000000	1.153727
4508.000000	1.153529
4506.000000	1.153402
4504.000000	1.153571
4502.000000	1.153745
4500.000000	1.153566
4498.000000	1.153340
4496.000000	1.153279
4494.000000	1.153166
4492.000000	1.153038
4490.000000	1.153067
4488.000000	1.153067
4486.000000	1.152896
4484.000000	1.152779
4482.000000	1.152780
4480.000000	1.152687
4478.000000	1.152509
4476.000000	1.152462
4474.000000	1.152535
4472.000000	1.152550
4470.000000	1.152515
4468.000000	1.152473
4466.000000	1.152332
4464.000000	1.152183
4462.000000	1.152175
4460.000000	1.152162
4458.000000	1.152160
4456.000000	1.152244
4454.000000	1.152191
4452.000000	1.151913
4450.000000	1.151704
4448.000000	1.151684
4446.000000	1.151738
4444.000000	1.151808
4442.000000	1.151879
4440.000000	1.151835
4438.000000	1.151712
4436.000000	1.151574
4434.000000	1.151424
4432.000000	1.151339
4430.000000	1.151374
4428.000000	1.151253
4426.000000	1.151007
4424.000000	1.150945
4422.000000	1.151116
4420.000000	1.151260
4418.000000	1.151290
4416.000000	1.151304
4414.000000	1.151348
4412.000000	1.151367
4410.000000	1.151354
4408.000000	1.151231
4406.000000	1.150988
4404.000000	1.150731
4402.000000	1.150622
4400.000000	1.150705
4398.000000	1.150895
4396.000000	1.151025
4394.000000	1.150994
4392.000000	1.150835
4390.000000	1.150819
4388.000000	1.151007
4386.000000	1.151212
4384.000000	1.151287
4382.000000	1.151203
4380.000000	1.150981
4378.000000	1.150758
4376.000000	1.150808
4374.000000	1.151132
4372.000000	1.151372
4370.000000	1.151364
4368.000000	1.151225
4366.000000	1.151174
4364.000000	1.151316
4362.000000	1.151468
4360.000000	1.151502
4358.000000	1.151540
4356.000000	1.151649
4354.000000	1.151735
4352.000000	1.151678
4350.000000	1.151653
4348.000000	1.151759
4346.000000	1.151793
4344.000000	1.151663
4342.000000	1.151628
4340.000000	1.151865
4338.000000	1.152146
4336.000000	1.152197
4334.000000	1.152146
4332.000000	1.152099
4330.000000	1.152102
4328.000000	1.152300
4326.000000	1.152603
4324.000000	1.152666
4322.000000	1.152579
4320.000000	1.152587
4318.000000	1.152643
4316.000000	1.152626
4314.000000	1.152720
4312.000000	1.153019
4310.000000	1.153298
4308.000000	1.153287
4306.000000	1.153089
4304.000000	1.153049
4302.000000	1.153191
4300.000000	1.153128
4298.000000	1.152882
4296.000000	1.152883
4294.000000	1.153228
4292.000000	1.153578
4290.000000	1.153730
4288.000000	1.153765
4286.000000	1.153748
4284.000000	1.153672
4282.000000	1.153589
4280.000000	1.153542
4278.000000	1.153754
4276.000000	1.154162
4274.000000	1.154346
4272.000000	1.154331
4270.000000	1.154396
4268.000000	1.154448
4266.000000	1.154434
4264.000000	1.154486
4262.000000	1.154554
4260.000000	1.154559
4258.000000	1.154557
4256.000000	1.154526
4254.000000	1.154595
4252.000000	1.154793
4250.000000	1.154853
4248.000000	1.154802
4246.000000	1.154952
4244.000000	1.155189
4242.000000	1.155253
4240.000000	1.155165
4238.000000	1.155087
4236.000000	1.155082
4234.000000	1.155237
4232.000000	1.155524
4230.000000	1.155732
4228.000000	1.155713
4226.000000	1.155595
4224.000000	1.155583
4222.000000	1.155662
4220.000000	1.155758
4218.000000	1.155930
4216.000000	1.155977
4214.000000	1.155748
4212.000000	1.155526
4210.000000	1.155541
4208.000000	1.155789
4206.000000	1.156066
4204.000000	1.156018
4202.000000	1.155806
4200.000000	1.155795
4198.000000	1.155817
4196.000000	1.155751
4194.000000	1.155805
4192.000000	1.155950
4190.000000	1.155965
4188.000000	1.155770
4186.000000	1.155548
4184.000000	1.155517
4182.000000	1.155657
4180.000000	1.155816
4178.000000	1.155836
4176.000000	1.155820
4174.000000	1.155948
4172.000000	1.156065
4170.000000	1.156078
4168.000000	1.156074
4166.000000	1.156086
4164.000000	1.156129
4162.000000	1.156057
4160.000000	1.155860
4158.000000	1.155847
4156.000000	1.155959
4154.000000	1.156002
4152.000000	1.156052
4150.000000	1.156071
4148.000000	1.156002
4146.000000	1.155926
4144.000000	1.155935
4142.000000	1.156065
4140.000000	1.156209
4138.000000	1.156236
4136.000000	1.156101
4134.000000	1.155931
4132.000000	1.155873
4130.000000	1.155892
4128.000000	1.155925
4126.000000	1.156028
4124.000000	1.156163
4122.000000	1.156160
4120.000000	1.156013
4118.000000	1.155918
4116.000000	1.155962
4114.000000	1.156070
4112.000000	1.156094
4110.000000	1.156065
4108.000000	1.156046
4106.000000	1.155997
4104.000000	1.155908
4102.000000	1.155875
4100.000000	1.155936
4098.000000	1.156082
4096.000000	1.156147
4094.000000	1.156059
4092.000000	1.155945
4090.000000	1.155832
4088.000000	1.155794
4086.000000	1.155836
4084.000000	1.155811
4082.000000	1.155879
4080.000000	1.155999
4078.000000	1.156037
4076.000000	1.156122
4074.000000	1.156217
4072.000000	1.156239
4070.000000	1.156187
4068.000000	1.156054
4066.000000	1.156075
4064.000000	1.156324
4062.000000	1.156509
4060.000000	1.156524
4058.000000	1.156445
4056.000000	1.156274
4054.000000	1.156161
4052.000000	1.156160
4050.000000	1.156269
4048.000000	1.156505
4046.000000	1.156651
4044.000000	1.156621
4042.000000	1.156548
4040.000000	1.156508
4038.000000	1.156555
4036.000000	1.156565
4034.000000	1.156499
4032.000000	1.156475
4030.000000	1.156521
4028.000000	1.156564
4026.000000	1.156546
4024.000000	1.156504
4022.000000	1.156468
4020.000000	1.156426
4018.000000	1.156491
4016.000000	1.156604
4014.000000	1.156533
4012.000000	1.156414
4010.000000	1.156405
4008.000000	1.156349
4006.000000	1.156304
4004.000000	1.156253
4002.000000	1.156154
4000.000000	1.156107
3998.000000	1.156069
3996.000000	1.156067
3994.000000	1.156110
3992.000000	1.155988
3990.000000	1.155750
3988.000000	1.155584
3986.000000	1.155483
3984.000000	1.155401
3982.000000	1.155419
3980.000000	1.155479
3978.000000	1.155308
3976.000000	1.154931
3974.000000	1.154789
3972.000000	1.154841
3970.000000	1.154723
3968.000000	1.154531
3966.000000	1.154433
3964.000000	1.154300
3962.000000	1.154046
3960.000000	1.153760
3958.000000	1.153520
3956.000000	1.153282
3954.000000	1.153075
3952.000000	1.152851
3950.000000	1.152552
3948.000000	1.152276
3946.000000	1.152117
3944.000000	1.151925
3942.000000	1.151534
3940.000000	1.151104
3938.000000	1.150819
3936.000000	1.150712
3934.000000	1.150605
3932.000000	1.150220
3930.000000	1.149776
3928.000000	1.149572
3926.000000	1.149377
3924.000000	1.148968
3922.000000	1.148552
3920.000000	1.148226
3918.000000	1.147782
3916.000000	1.147279
3914.000000	1.146882
3912.000000	1.146435
3910.000000	1.146196
3908.000000	1.146342
3906.000000	1.146178
3904.000000	1.145505
3902.000000	1.144853
3900.000000	1.144188
3898.000000	1.143712
3896.000000	1.143682
3894.000000	1.143629
3892.000000	1.143084
3890.000000	1.142787
3888.000000	1.142919
3886.000000	1.142341
3884.000000	1.141787
3882.000000	1.141645
3880.000000	1.141120
3878.000000	1.141020
3876.000000	1.141091
3874.000000	1.140986
3872.000000	1.140884
3870.000000	1.140019
3868.000000	1.139397
3866.000000	1.139400
3864.000000	1.139076
3862.000000	1.138847
3860.000000	1.138962
3858.000000	1.139801
3856.000000	1.140159
3854.000000	1.137984
3852.000000	1.135856
3850.000000	1.136191
3848.000000	1.137001
3846.000000	1.137049
3844.000000	1.136818
3842.000000	1.137033
3840.000000	1.137269
3838.000000	1.136384
3836.000000	1.135613
3834.000000	1.135748
3832.000000	1.135702
3830.000000	1.135595
3828.000000	1.135547
3826.000000	1.135585
3824.000000	1.135999
3822.000000	1.135532
3820.000000	1.135088
3818.000000	1.135333
3816.000000	1.134400
3814.000000	1.133794
3812.000000	1.134503
3810.000000	1.135232
3808.000000	1.134992
3806.000000	1.134516
3804.000000	1.134913
3802.000000	1.134333
3800.000000	1.133538
3798.000000	1.133825
3796.000000	1.133886
3794.000000	1.133852
3792.000000	1.134007
3790.000000	1.134198
3788.000000	1.134398
3786.000000	1.134411
3784.000000	1.134374
3782.000000	1.134399
3780.000000	1.134204
3778.000000	1.134030
3776.000000	1.134242
3774.000000	1.134596
3772.000000	1.134680
3770.000000	1.134310
3768.000000	1.134214
3766.000000	1.134347
3764.000000	1.134506
3762.000000	1.134815
3760.000000	1.134769
3758.000000	1.134655
3756.000000	1.135362
3754.000000	1.136136
3752.000000	1.135474
3750.000000	1.134353
3748.000000	1.135061
3746.000000	1.135585
3744.000000	1.133985
3742.000000	1.133812
3740.000000	1.135327
3738.000000	1.135914
3736.000000	1.135508
3734.000000	1.135232
3732.000000	1.135193
3730.000000	1.135592
3728.000000	1.136260
3726.000000	1.136412
3724.000000	1.136541
3722.000000	1.136905
3720.000000	1.137334
3718.000000	1.137787
3716.000000	1.138641
3714.000000	1.139300
3712.000000	1.139105
3710.000000	1.140008
3708.000000	1.142059
3706.000000	1.142871
3704.000000	1.142678
3702.000000	1.142574
3700.000000	1.143022
3698.000000	1.143966
3696.000000	1.144996
3694.000000	1.146413
3692.000000	1.148093
3690.000000	1.148810
3688.000000	1.148745
3686.000000	1.149919
3684.000000	1.152168
3682.000000	1.154291
3680.000000	1.156548
3678.000000	1.158774
3676.000000	1.159654
3674.000000	1.161096
3672.000000	1.163604
3670.000000	1.164919
3668.000000	1.166683
3666.000000	1.169376
3664.000000	1.171699
3662.000000	1.173773
3660.000000	1.176231
3658.000000	1.178521
3656.000000	1.180201
3654.000000	1.182704
3652.000000	1.185468
3650.000000	1.186613
3648.000000	1.187271
3646.000000	1.189177
3644.000000	1.191778
3642.000000	1.193861
3640.000000	1.195475
3638.000000	1.197223
3636.000000	1.198918
3634.000000	1.200574
3632.000000	1.202690
3630.000000	1.203459
3628.000000	1.203148
3626.000000	1.204461
3624.000000	1.206711
3622.000000	1.208477
3620.000000	1.209205
3618.000000	1.209834
3616.000000	1.211175
3614.000000	1.212348
3612.000000	1.213261
3610.000000	1.213884
3608.000000	1.214283
3606.000000	1.215133
3604.000000	1.216115
3602.000000	1.216962
3600.000000	1.217753
3598.000000	1.218443
3596.000000	1.218892
3594.000000	1.219204
3592.000000	1.219976
3590.000000	1.220816
3588.000000	1.220977
3586.000000	1.221110
3584.000000	1.221632
3582.000000	1.222281
3580.000000	1.222815
3578.000000	1.223158
3576.000000	1.223470
3574.000000	1.223904
3572.000000	1.224473
3570.000000	1.224812
3568.000000	1.224537
3566.000000	1.224373
3564.000000	1.224816
3562.000000	1.225286
3560.000000	1.225555
3558.000000	1.225735
3556.000000	1.225957
3554.000000	1.226230
3552.000000	1.226447
3550.000000	1.226750
3548.000000	1.227034
3546.000000	1.226989
3544.000000	1.226996
3542.000000	1.227336
3540.000000	1.227697
3538.000000	1.227876
3536.000000	1.227928
3534.000000	1.227989
3532.000000	1.228261
3530.000000	1.228623
3528.000000	1.228779
3526.000000	1.228978
3524.000000	1.229095
3522.000000	1.229023
3520.000000	1.229169
3518.000000	1.229367
3516.000000	1.229547
3514.000000	1.229855
3512.000000	1.230208
3510.000000	1.230325
3508.000000	1.230307
3506.000000	1.230400
3504.000000	1.230492
3502.000000	1.230610
3500.000000	1.230859
3498.000000	1.231038
3496.000000	1.231161
3494.000000	1.231388
3492.000000	1.231475
3490.000000	1.231373
3488.000000	1.231279
3486.000000	1.231527
3484.000000	1.231910
3482.000000	1.231961
3480.000000	1.231971
3478.000000	1.232152
3476.000000	1.232465
3474.000000	1.232762
3472.000000	1.232811
3470.000000	1.232818
3468.000000	1.232972
3466.000000	1.233107
3464.000000	1.233262
3462.000000	1.233457
3460.000000	1.233634
3458.000000	1.233823
3456.000000	1.234039
3454.000000	1.234186
3452.000000	1.234314
3450.000000	1.234436
3448.000000	1.234473
3446.000000	1.234521
3444.000000	1.234660
3442.000000	1.234865
3440.000000	1.235079
3438.000000	1.235110
3436.000000	1.235134
3434.000000	1.235306
3432.000000	1.235441
3430.000000	1.235600
3428.000000	1.235870
3426.000000	1.235986
3424.000000	1.235945
3422.000000	1.236093
3420.000000	1.236270
3418.000000	1.236321
3416.000000	1.236523
3414.000000	1.236788
3412.000000	1.236819
3410.000000	1.236859
3408.000000	1.237023
3406.000000	1.237100
3404.000000	1.237251
3402.000000	1.237449
3400.000000	1.237484
3398.000000	1.237482
3396.000000	1.237572
3394.000000	1.237623
3392.000000	1.237651
3390.000000	1.237819
3388.000000	1.237952
3386.000000	1.237960
3384.000000	1.237924
3382.000000	1.237887
3380.000000	1.237971
3378.000000	1.238188
3376.000000	1.238339
3374.000000	1.238429
3372.000000	1.238459
3370.000000	1.238448
3368.000000	1.238541
3366.000000	1.238664
3364.000000	1.238629
3362.000000	1.238584
3360.000000	1.238650
3358.000000	1.238672
3356.000000	1.238679
3354.000000	1.238675
3352.000000	1.238687
3350.000000	1.238652
3348.000000	1.238717
3346.000000	1.238838
3344.000000	1.238867
3342.000000	1.238899
3340.000000	1.239043
3338.000000	1.239111
3336.000000	1.238950
3334.000000	1.238825
3332.000000	1.238884
3330.000000	1.238965
3328.000000	1.238994
3326.000000	1.239066
3324.000000	1.239219
3322.000000	1.239363
3320.000000	1.239419
3318.000000	1.239373
3316.000000	1.239306
3314.000000	1.239277
3312.000000	1.239363
3310.000000	1.239490
3308.000000	1.239567
3306.000000	1.239666
3304.000000	1.239856
3302.000000	1.239814
3300.000000	1.239633
3298.000000	1.239579
3296.000000	1.239780
3294.000000	1.240002
3292.000000	1.239946
3290.000000	1.240057
3288.000000	1.240270
3286.000000	1.240119
3284.000000	1.239927
3282.000000	1.239988
3280.000000	1.240140
3278.000000	1.240192
3276.000000	1.240296
3274.000000	1.240408
3272.000000	1.240447
3270.000000	1.240459
3268.000000	1.240450
3266.000000	1.240622
3264.000000	1.240911
3262.000000	1.240977
3260.000000	1.240843
3258.000000	1.240934
3256.000000	1.240958
3254.000000	1.240841
3252.000000	1.240970
3250.000000	1.241079
3248.000000	1.241074
3246.000000	1.241161
3244.000000	1.241280
3242.000000	1.241342
3240.000000	1.241382
3238.000000	1.241326
3236.000000	1.241300
3234.000000	1.241426
3232.000000	1.241429
3230.000000	1.241413
3228.000000	1.241460
3226.000000	1.241540
3224.000000	1.241643
3222.000000	1.241743
3220.000000	1.241813
3218.000000	1.241840
3216.000000	1.241753
3214.000000	1.241641
3212.000000	1.241710
3210.000000	1.241871
3208.000000	1.241963
3206.000000	1.242065
3204.000000	1.242119
3202.000000	1.242043
3200.000000	1.241941
3198.000000	1.241823
3196.000000	1.241898
3194.000000	1.241910
3192.000000	1.241771
3190.000000	1.241701
3188.000000	1.241780
3186.000000	1.241877
3184.000000	1.241937
3182.000000	1.241966
3180.000000	1.241940
3178.000000	1.241920
3176.000000	1.241877
3174.000000	1.241793
3172.000000	1.241698
3170.000000	1.241738
3168.000000	1.241826
3166.000000	1.241711
3164.000000	1.241627
3162.000000	1.241756
3160.000000	1.241795
3158.000000	1.241744
3156.000000	1.241756
3154.000000	1.241677
3152.000000	1.241568
3150.000000	1.241630
3148.000000	1.241822
3146.000000	1.241875
3144.000000	1.241766
3142.000000	1.241709
3140.000000	1.241662
3138.000000	1.241532
3136.000000	1.241453
3134.000000	1.241434
3132.000000	1.241430
3130.000000	1.241482
3128.000000	1.241534
3126.000000	1.241446
3124.000000	1.241544
3122.000000	1.241756
3120.000000	1.241794
3118.000000	1.241735
3116.000000	1.241682
3114.000000	1.241690
3112.000000	1.241665
3110.000000	1.241702
3108.000000	1.241790
3106.000000	1.241803
3104.000000	1.241724
3102.000000	1.241668
3100.000000	1.241622
3098.000000	1.241709
3096.000000	1.241743
3094.000000	1.241631
3092.000000	1.241565
3090.000000	1.241513
3088.000000	1.241456
3086.000000	1.241393
3084.000000	1.241376
3082.000000	1.241439
3080.000000	1.241540
3078.000000	1.241714
3076.000000	1.241761
3074.000000	1.241630
3072.000000	1.241456
3070.000000	1.241303
3068.000000	1.241394
3066.000000	1.241519
3064.000000	1.241413
3062.000000	1.241336
3060.000000	1.241377
3058.000000	1.241262
3056.000000	1.241014
3054.000000	1.240922
3052.000000	1.240909
3050.000000	1.240825
3048.000000	1.240708
3046.000000	1.240588
3044.000000	1.240371
3042.000000	1.240287
3040.000000	1.240281
3038.000000	1.240204
3036.000000	1.240089
3034.000000	1.240098
3032.000000	1.240078
3030.000000	1.239921
3028.000000	1.239761
3026.000000	1.239705
3024.000000	1.239592
3022.000000	1.239360
3020.000000	1.239064
3018.000000	1.238695
3016.000000	1.238439
3014.000000	1.238192
3012.000000	1.237894
3010.000000	1.237716
3008.000000	1.237592
3006.000000	1.237444
3004.000000	1.237207
3002.000000	1.237040
3000.000000	1.236950
2998.000000	1.236718
2996.000000	1.236335
2994.000000	1.235964
2992.000000	1.235620
2990.000000	1.235315
2988.000000	1.235160
2986.000000	1.234919
2984.000000	1.234694
2982.000000	1.234529
2980.000000	1.234265
2978.000000	1.233952
2976.000000	1.233726
2974.000000	1.233751
2972.000000	1.233756
2970.000000	1.233550
2968.000000	1.233291
2966.000000	1.232980
2964.000000	1.232562
2962.000000	1.232030
2960.000000	1.231261
2958.000000	1.230563
2956.000000	1.229965
2954.000000	1.229398
2952.000000	1.229055
2950.000000	1.228720
2948.000000	1.228355
2946.000000	1.228084
2944.000000	1.227730
2942.000000	1.227354
2940.000000	1.226988
2938.000000	1.226629
2936.000000	1.226279
2934.000000	1.225878
2932.000000	1.225510
2930.000000	1.225068
2928.000000	1.224535
2926.000000	1.223916
2924.000000	1.223139
2922.000000	1.222336
2920.000000	1.221656
2918.000000	1.221180
2916.000000	1.220921
2914.000000	1.220796
2912.000000	1.220553
2910.000000	1.220229
2908.000000	1.219904
2906.000000	1.219576
2904.000000	1.219252
2902.000000	1.218908
2900.000000	1.218476
2898.000000	1.218154
2896.000000	1.217876
2894.000000	1.217462
2892.000000	1.217106
2890.000000	1.216819
2888.000000	1.216531
2886.000000	1.216344
2884.000000	1.216150
2882.000000	1.215851
2880.000000	1.215482
2878.000000	1.215219
2876.000000	1.214974
2874.000000	1.214738
2872.000000	1.214553
2870.000000	1.214406
2868.000000	1.214246
2866.000000	1.213972
2864.000000	1.213564
2862.000000	1.213040
2860.000000	1.212467
2858.000000	1.211959
2856.000000	1.211574
2854.000000	1.211189
2852.000000	1.210745
2850.000000	1.210397
2848.000000	1.210194
2846.000000	1.210011
2844.000000	1.209719
2842.000000	1.209447
2840.000000	1.209381
2838.000000	1.209367
2836.000000	1.209211
2834.000000	1.208993
2832.000000	1.208741
2830.000000	1.208503
2828.000000	1.208335
2826.000000	1.208192
2824.000000	1.208026
2822.000000	1.207897
2820.000000	1.207641
2818.000000	1.207348
2816.000000	1.207148
2814.000000	1.206996
2812.000000	1.206889
2810.000000	1.206743
2808.000000	1.206488
2806.000000	1.206307
2804.000000	1.206180
2802.000000	1.206105
2800.000000	1.206009
2798.000000	1.205790
2796.000000	1.205648
2794.000000	1.205552
2792.000000	1.205432
2790.000000	1.205264
2788.000000	1.205086
2786.000000	1.205017
2784.000000	1.204893
2782.000000	1.204690
2780.000000	1.204523
2778.000000	1.204417
2776.000000	1.204382
2774.000000	1.204335
2772.000000	1.204237
2770.000000	1.204115
2768.000000	1.203922
2766.000000	1.203875
2764.000000	1.203866
2762.000000	1.203644
2760.000000	1.203554
2758.000000	1.203507
2756.000000	1.203334
2754.000000	1.203229
2752.000000	1.203201
2750.000000	1.203238
2748.000000	1.203210
2746.000000	1.202979
2744.000000	1.202846
2742.000000	1.202885
2740.000000	1.202844
2738.000000	1.202694
2736.000000	1.202569
2734.000000	1.202537
2732.000000	1.202587
2730.000000	1.202650
2728.000000	1.202633
2726.000000	1.202609
2724.000000	1.202650
2722.000000	1.202683
2720.000000	1.202565
2718.000000	1.202383
2716.000000	1.202400
2714.000000	1.202482
2712.000000	1.202459
2710.000000	1.202569
2708.000000	1.202662
2706.000000	1.202563
2704.000000	1.202522
2702.000000	1.202572
2700.000000	1.202625
2698.000000	1.202711
2696.000000	1.202779
2694.000000	1.202797
2692.000000	1.202790
2690.000000	1.202841
2688.000000	1.202913
2686.000000	1.203018
2684.000000	1.203215
2682.000000	1.203372
2680.000000	1.203371
2678.000000	1.203407
2676.000000	1.203514
2674.000000	1.203541
2672.000000	1.203558
2670.000000	1.203659
2668.000000	1.203790
2666.000000	1.203888
2664.000000	1.203984
2662.000000	1.204199
2660.000000	1.204328
2658.000000	1.204341
2656.000000	1.204440
2654.000000	1.204621
2652.000000	1.204835
2650.000000	1.204955
2648.000000	1.205161
2646.000000	1.205452
2644.000000	1.205583
2642.000000	1.205600
2640.000000	1.205546
2638.000000	1.205640
2636.000000	1.206011
2634.000000	1.206265
2632.000000	1.206455
2630.000000	1.206632
2628.000000	1.206813
2626.000000	1.206961
2624.000000	1.207191
2622.000000	1.207461
2620.000000	1.207625
2618.000000	1.207705
2616.000000	1.207878
2614.000000	1.208231
2612.000000	1.208504
2610.000000	1.208750
2608.000000	1.209028
2606.000000	1.209294
2604.000000	1.209496
2602.000000	1.209639
2600.000000	1.209864
2598.000000	1.210141
2596.000000	1.210409
2594.000000	1.210679
2592.000000	1.210863
2590.000000	1.211093
2588.000000	1.211431
2586.000000	1.211711
2584.000000	1.211890
2582.000000	1.212128
2580.000000	1.212430
2578.000000	1.212699
2576.000000	1.212931
2574.000000	1.213163
2572.000000	1.213348
2570.000000	1.213647
2568.000000	1.214033
2566.000000	1.214408
2564.000000	1.214719
2562.000000	1.214870
2560.000000	1.214972
2558.000000	1.215369
2556.000000	1.215862
2554.000000	1.216192
2552.000000	1.216503
2550.000000	1.216875
2548.000000	1.217204
2546.000000	1.217462
2544.000000	1.217741
2542.000000	1.218142
2540.000000	1.218525
2538.000000	1.218846
2536.000000	1.219231
2534.000000	1.219642
2532.000000	1.220047
2530.000000	1.220492
2528.000000	1.220911
2526.000000	1.221261
2524.000000	1.221604
2522.000000	1.221957
2520.000000	1.222376
2518.000000	1.222741
2516.000000	1.223158
2514.000000	1.223586
2512.000000	1.223907
2510.000000	1.224280
2508.000000	1.224678
2506.000000	1.225077
2504.000000	1.225423
2502.000000	1.225679
2500.000000	1.225952
2498.000000	1.226320
2496.000000	1.226659
2494.000000	1.226903
2492.000000	1.227229
2490.000000	1.227622
2488.000000	1.227916
2486.000000	1.228132
2484.000000	1.228365
2482.000000	1.228547
2480.000000	1.228688
2478.000000	1.228898
2476.000000	1.229152
2474.000000	1.229397
2472.000000	1.229613
2470.000000	1.229849
2468.000000	1.230053
2466.000000	1.230163
2464.000000	1.230335
2462.000000	1.230567
2460.000000	1.230615
2458.000000	1.230656
2456.000000	1.230768
2454.000000	1.230890
2452.000000	1.230996
2450.000000	1.231027
2448.000000	1.231002
2446.000000	1.231043
2444.000000	1.231081
2442.000000	1.231006
2440.000000	1.230938
2438.000000	1.230940
2436.000000	1.230875
2434.000000	1.230770
2432.000000	1.230712
2430.000000	1.230602
2428.000000	1.230436
2426.000000	1.230359
2424.000000	1.230236
2422.000000	1.230150
2420.000000	1.230054
2418.000000	1.229886
2416.000000	1.229671
2414.000000	1.229322
2412.000000	1.229096
2410.000000	1.229032
2408.000000	1.228995
2406.000000	1.228792
2404.000000	1.228369
2402.000000	1.228100
2400.000000	1.228079
2398.000000	1.228065
2396.000000	1.228051
2394.000000	1.227980
2392.000000	1.227725
2390.000000	1.227565
2388.000000	1.227530
2386.000000	1.227501
2384.000000	1.227541
2382.000000	1.227699
2380.000000	1.228064
2378.000000	1.228718
2376.000000	1.229425
2374.000000	1.229945
2372.000000	1.230305
2370.000000	1.230486
2368.000000	1.230542
2366.000000	1.230710
2364.000000	1.230954
2362.000000	1.231041
2360.000000	1.231170
2358.000000	1.231518
2356.000000	1.231869
2354.000000	1.232222
2352.000000	1.232715
2350.000000	1.233407
2348.000000	1.234048
2346.000000	1.234271
2344.000000	1.234449
2342.000000	1.234736
2340.000000	1.234709
2338.000000	1.234219
2336.000000	1.233567
2334.000000	1.233174
2332.000000	1.232966
2330.000000	1.232856
2328.000000	1.232766
2326.000000	1.232728
2324.000000	1.232702
2322.000000	1.232730
2320.000000	1.232829
2318.000000	1.232869
2316.000000	1.232859
2314.000000	1.232970
2312.000000	1.233181
2310.000000	1.233338
2308.000000	1.233413
2306.000000	1.233537
2304.000000	1.233682
2302.000000	1.233757
2300.000000	1.233897
2298.000000	1.234055
2296.000000	1.234087
2294.000000	1.234213
2292.000000	1.234428
2290.000000	1.234496
2288.000000	1.234457
2286.000000	1.234492
2284.000000	1.234672
2282.000000	1.234848
2280.000000	1.234911
2278.000000	1.235004
2276.000000	1.235236
2274.000000	1.235409
2272.000000	1.235517
2270.000000	1.235600
2268.000000	1.235673
2266.000000	1.235726
2264.000000	1.235785
2262.000000	1.236013
2260.000000	1.236102
2258.000000	1.236132
2256.000000	1.236297
2254.000000	1.236376
2252.000000	1.236341
2250.000000	1.236437
2248.000000	1.236682
2246.000000	1.236874
2244.000000	1.236869
2242.000000	1.236843
2240.000000	1.236891
2238.000000	1.236986
2236.000000	1.237014
2234.000000	1.237094
2232.000000	1.237273
2230.000000	1.237381
2228.000000	1.237344
2226.000000	1.237299
2224.000000	1.237352
2222.000000	1.237404
2220.000000	1.237451
2218.000000	1.237475
2216.000000	1.237535
2214.000000	1.237580
2212.000000	1.237572
2210.000000	1.237513
2208.000000	1.237500
2206.000000	1.237497
2204.000000	1.237502
2202.000000	1.237628
2200.000000	1.237707
2198.000000	1.237615
2196.000000	1.237459
2194.000000	1.237401
2192.000000	1.237383
2190.000000	1.237370
2188.000000	1.237340
2186.000000	1.237343
2184.000000	1.237332
2182.000000	1.237287
2180.000000	1.237213
2178.000000	1.237190
2176.000000	1.237163
2174.000000	1.237002
2172.000000	1.236808
2170.000000	1.236753
2168.000000	1.236682
2166.000000	1.236591
2164.000000	1.236528
2162.000000	1.236371
2160.000000	1.236288
2158.000000	1.236273
2156.000000	1.236147
2154.000000	1.235938
2152.000000	1.235724
2150.000000	1.235557
2148.000000	1.235461
2146.000000	1.235319
2144.000000	1.235097
2142.000000	1.234867
2140.000000	1.234760
2138.000000	1.234601
2136.000000	1.234428
2134.000000	1.234287
2132.000000	1.234143
2130.000000	1.233960
2128.000000	1.233706
2126.000000	1.233451
2124.000000	1.233191
2122.000000	1.232961
2120.000000	1.232718
2118.000000	1.232424
2116.000000	1.232184
2114.000000	1.232005
2112.000000	1.231764
2110.000000	1.231428
2108.000000	1.231130
2106.000000	1.230881
2104.000000	1.230646
2102.000000	1.230396
2100.000000	1.230044
2098.000000	1.229699
2096.000000	1.229360
2094.000000	1.228998
2092.000000	1.228687
2090.000000	1.228319
2088.000000	1.227933
2086.000000	1.227626
2084.000000	1.227326
2082.000000	1.226954
2080.000000	1.226618
2078.000000	1.226299
2076.000000	1.225944
2074.000000	1.225608
2072.000000	1.225253
2070.000000	1.224828
2068.000000	1.224369
2066.000000	1.224010
2064.000000	1.223660
2062.000000	1.223307
2060.000000	1.223051
2058.000000	1.222725
2056.000000	1.222310
2054.000000	1.221862
2052.000000	1.221560
2050.000000	1.221192
2048.000000	1.220864
2046.000000	1.220581
2044.000000	1.220112
2042.000000	1.219732
2040.000000	1.219496
2038.000000	1.219182
2036.000000	1.218796
2034.000000	1.218501
2032.000000	1.218194
2030.000000	1.217816
2028.000000	1.217390
2026.000000	1.217056
2024.000000	1.216774
2022.000000	1.216457
2020.000000	1.216113
2018.000000	1.215827
2016.000000	1.215551
2014.000000	1.215181
2012.000000	1.214781
2010.000000	1.214569
2008.000000	1.214452
2006.000000	1.214193
2004.000000	1.213876
2002.000000	1.213618
2000.000000	1.213448
1998.000000	1.213241
1996.000000	1.212975
1994.000000	1.212774
1992.000000	1.212465
1990.000000	1.212126
1988.000000	1.211925
1986.000000	1.211792
1984.000000	1.211623
1982.000000	1.211440
1980.000000	1.211380
1978.000000	1.211345
1976.000000	1.211155
1974.000000	1.210928
1972.000000	1.210711
1970.000000	1.210530
1968.000000	1.210394
1966.000000	1.210325
1964.000000	1.210243
1962.000000	1.210135
1960.000000	1.210077
1958.000000	1.209896
1956.000000	1.209879
1954.000000	1.209796
1952.000000	1.209578
1950.000000	1.209479
1948.000000	1.209512
1946.000000	1.209618
1944.000000	1.209628
1942.000000	1.209400
1940.000000	1.209268
1938.000000	1.209283
1936.000000	1.209299
1934.000000	1.209284
1932.000000	1.209317
1930.000000	1.209311
1928.000000	1.209198
1926.000000	1.209188
1924.000000	1.209170
1922.000000	1.209130
1920.000000	1.209299
1918.000000	1.209242
1916.000000	1.209214
1914.000000	1.209379
1912.000000	1.209499
1910.000000	1.209564
1908.000000	1.209543
1906.000000	1.209521
1904.000000	1.209524
1902.000000	1.209628
1900.000000	1.209676
1898.000000	1.209689
1896.000000	1.209787
1894.000000	1.209907
1892.000000	1.210004
1890.000000	1.210055
1888.000000	1.210112
1886.000000	1.210294
1884.000000	1.210427
1882.000000	1.210469
1880.000000	1.210564
1878.000000	1.210670
1876.000000	1.210802
1874.000000	1.210964
1872.000000	1.211111
1870.000000	1.211117
1868.000000	1.210931
1866.000000	1.211090
1864.000000	1.211368
1862.000000	1.211551
1860.000000	1.211686
1858.000000	1.211848
1856.000000	1.212070
1854.000000	1.212206
1852.000000	1.212267
1850.000000	1.212510
1848.000000	1.212966
1846.000000	1.213473
1844.000000	1.213180
1842.000000	1.213117
1840.000000	1.213552
1838.000000	1.213821
1836.000000	1.214027
1834.000000	1.214335
1832.000000	1.214771
1830.000000	1.214823
1828.000000	1.215040
1826.000000	1.215421
1824.000000	1.215511
1822.000000	1.215846
1820.000000	1.216314
1818.000000	1.216711
1816.000000	1.217026
1814.000000	1.217434
1812.000000	1.217843
1810.000000	1.218149
1808.000000	1.218430
1806.000000	1.218778
1804.000000	1.219307
1802.000000	1.219695
1800.000000	1.219845
1798.000000	1.220137
1796.000000	1.220740
1794.000000	1.221332
1792.000000	1.221186
1790.000000	1.221499
1788.000000	1.222395
1786.000000	1.222945
1784.000000	1.223195
1782.000000	1.223690
1780.000000	1.223989
1778.000000	1.224492
1776.000000	1.225497
1774.000000	1.226210
1772.000000	1.225971
1770.000000	1.226439
1768.000000	1.227033
1766.000000	1.227624
1764.000000	1.228552
1762.000000	1.228813
1760.000000	1.229173
1758.000000	1.229865
1756.000000	1.230231
1754.000000	1.231073
1752.000000	1.231527
1750.000000	1.231550
1748.000000	1.232134
1746.000000	1.232866
1744.000000	1.233510
1742.000000	1.234186
1740.000000	1.234459
1738.000000	1.234892
1736.000000	1.236065
1734.000000	1.235193
1732.000000	1.234828
1730.000000	1.235833
1728.000000	1.236365
1726.000000	1.236848
1724.000000	1.237176
1722.000000	1.237659
1720.000000	1.238446
1718.000000	1.238006
1716.000000	1.237158
1714.000000	1.237596
1712.000000	1.238063
1710.000000	1.238554
1708.000000	1.238850
1706.000000	1.238884
1704.000000	1.239222
1702.000000	1.239993
1700.000000	1.238708
1698.000000	1.239048
1696.000000	1.238900
1694.000000	1.238171
1692.000000	1.239102
1690.000000	1.239433
1688.000000	1.240231
1686.000000	1.240789
1684.000000	1.239043
1682.000000	1.238766
1680.000000	1.239764
1678.000000	1.240287
1676.000000	1.240206
1674.000000	1.239763
1672.000000	1.240386
1670.000000	1.240143
1668.000000	1.239758
1666.000000	1.240274
1664.000000	1.240451
1662.000000	1.239951
1660.000000	1.240072
1658.000000	1.240604
1656.000000	1.241991
1654.000000	1.241436
1652.000000	1.238643
1650.000000	1.239507
1648.000000	1.240885
1646.000000	1.240167
1644.000000	1.239887
1642.000000	1.240398
1640.000000	1.240724
1638.000000	1.241249
1636.000000	1.240386
1634.000000	1.239455
1632.000000	1.240107
1630.000000	1.240564
1628.000000	1.240577
1626.000000	1.240786
1624.000000	1.240695
1622.000000	1.240262
1620.000000	1.240747
1618.000000	1.240819
1616.000000	1.239624
1614.000000	1.239867
1612.000000	1.240571
1610.000000	1.240390
1608.000000	1.240124
1606.000000	1.239988
1604.000000	1.239945
1602.000000	1.239883
1600.000000	1.239825
1598.000000	1.239807
1596.000000	1.239884
1594.000000	1.239909
1592.000000	1.239877
1590.000000	1.239848
1588.000000	1.239842
1586.000000	1.239793
1584.000000	1.239958
1582.000000	1.240056
1580.000000	1.240374
1578.000000	1.240861
1576.000000	1.239672
1574.000000	1.239146
1572.000000	1.240151
1570.000000	1.240051
1568.000000	1.239788
1566.000000	1.239938
1564.000000	1.240277
1562.000000	1.241433
1560.000000	1.240982
1558.000000	1.238794
1556.000000	1.238999
1554.000000	1.239489
1552.000000	1.239752
1550.000000	1.239934
1548.000000	1.240128
1546.000000	1.240452
1544.000000	1.240611
1542.000000	1.240833
1540.000000	1.239836
1538.000000	1.238902
1536.000000	1.240102
1534.000000	1.240426
1532.000000	1.240034
1530.000000	1.240275
1528.000000	1.240457
1526.000000	1.240347
1524.000000	1.240705
1522.000000	1.240449
1520.000000	1.239775
1518.000000	1.240265
1516.000000	1.240261
1514.000000	1.240230
1512.000000	1.240272
1510.000000	1.240920
1508.000000	1.241191
1506.000000	1.239720
1504.000000	1.239637
1502.000000	1.241158
1500.000000	1.242319
1498.000000	1.242628
1496.000000	1.241155
1494.000000	1.239651
1492.000000	1.239175
1490.000000	1.238785
1488.000000	1.238725
1486.000000	1.238997
1484.000000	1.239523
1482.000000	1.239932
1480.000000	1.240144
1478.000000	1.240391
1476.000000	1.240504
1474.000000	1.240359
1472.000000	1.239685
1470.000000	1.239702
1468.000000	1.240246
1466.000000	1.240275
1464.000000	1.239808
1462.000000	1.240149
1460.000000	1.241004
1458.000000	1.240999
1456.000000	1.239800
1454.000000	1.239865
1452.000000	1.239923
1450.000000	1.239283
1448.000000	1.238929
1446.000000	1.239289
1444.000000	1.239683
1442.000000	1.239650
1440.000000	1.239747
1438.000000	1.239695
1436.000000	1.238984
1434.000000	1.239225
1432.000000	1.239626
1430.000000	1.239346
1428.000000	1.239159
1426.000000	1.239307
1424.000000	1.239278
1422.000000	1.239591
1420.000000	1.239483
1418.000000	1.238824
1416.000000	1.238940
1414.000000	1.239113
1412.000000	1.239133
1410.000000	1.239178
1408.000000	1.239348
1406.000000	1.239289
1404.000000	1.238773
1402.000000	1.238520
1400.000000	1.238319
1398.000000	1.237978
1396.000000	1.237953
1394.000000	1.237707
1392.000000	1.237852
1390.000000	1.238240
1388.000000	1.238226
1386.000000	1.237885
1384.000000	1.237673
1382.000000	1.237531
1380.000000	1.237570
1378.000000	1.237649
1376.000000	1.237582
1374.000000	1.237414
1372.000000	1.237494
1370.000000	1.237659
1368.000000	1.237532
1366.000000	1.237436
1364.000000	1.237380
1362.000000	1.237156
1360.000000	1.237058
1358.000000	1.237077
1356.000000	1.237059
1354.000000	1.237000
1352.000000	1.236936
1350.000000	1.236875
1348.000000	1.236840
1346.000000	1.236872
1344.000000	1.236798
1342.000000	1.236716
1340.000000	1.236616
1338.000000	1.236615
1336.000000	1.236654
1334.000000	1.236489
1332.000000	1.236482
1330.000000	1.236537
1328.000000	1.236523
1326.000000	1.236568
1324.000000	1.236608
1322.000000	1.236629
1320.000000	1.236685
1318.000000	1.236715
1316.000000	1.236788
1314.000000	1.236663
1312.000000	1.236490
1310.000000	1.236560
1308.000000	1.236775
1306.000000	1.236760
1304.000000	1.236557
1302.000000	1.236351
1300.000000	1.236344
1298.000000	1.236480
1296.000000	1.236715
1294.000000	1.236916
1292.000000	1.236963
1290.000000	1.236806
1288.000000	1.236795
1286.000000	1.236872
1284.000000	1.236891
1282.000000	1.236752
1280.000000	1.236712
1278.000000	1.236927
1276.000000	1.237124
1274.000000	1.237249
1272.000000	1.237449
1270.000000	1.237770
1268.000000	1.238416
1266.000000	1.239319
1264.000000	1.240110
1262.000000	1.240282
1260.000000	1.239890
1258.000000	1.239093
1256.000000	1.238292
1254.000000	1.237697
1252.000000	1.237519
1250.000000	1.237328
1248.000000	1.236870
1246.000000	1.236766
1244.000000	1.236777
1242.000000	1.236651
1240.000000	1.236639
1238.000000	1.236478
1236.000000	1.236383
1234.000000	1.235973
1232.000000	1.235759
1230.000000	1.235972
1228.000000	1.236112
1226.000000	1.235972
1224.000000	1.235856
1222.000000	1.235726
1220.000000	1.235674
1218.000000	1.235738
1216.000000	1.235669
1214.000000	1.235449
1212.000000	1.235182
1210.000000	1.235063
1208.000000	1.234915
1206.000000	1.234714
1204.000000	1.234562
1202.000000	1.234566
1200.000000	1.234661
1198.000000	1.234557
1196.000000	1.234495
1194.000000	1.234505
1192.000000	1.234702
1190.000000	1.234915
1188.000000	1.234919
1186.000000	1.234911
1184.000000	1.235048
1182.000000	1.235015
1180.000000	1.234758
1178.000000	1.234536
1176.000000	1.234385
1174.000000	1.234642
1172.000000	1.235094
1170.000000	1.235371
1168.000000	1.235440
1166.000000	1.235396
1164.000000	1.235470
1162.000000	1.235552
1160.000000	1.235448
1158.000000	1.235285
1156.000000	1.235144
1154.000000	1.235024
1152.000000	1.234694
1150.000000	1.234571
1148.000000	1.234725
1146.000000	1.234723
1144.000000	1.234364
1142.000000	1.234104
1140.000000	1.233878
1138.000000	1.233611
1136.000000	1.233702
1134.000000	1.233856
1132.000000	1.233757
1130.000000	1.233742
1128.000000	1.233534
1126.000000	1.233190
1124.000000	1.233442
1122.000000	1.233918
1120.000000	1.233527
1118.000000	1.233317
1116.000000	1.233759
1114.000000	1.233771
1112.000000	1.233817
1110.000000	1.233399
1108.000000	1.233024
1106.000000	1.233844
1104.000000	1.234478
1102.000000	1.233941
1100.000000	1.234070
1098.000000	1.234558
1096.000000	1.234532
1094.000000	1.234339
1092.000000	1.234319
1090.000000	1.234559
1088.000000	1.234449
1086.000000	1.233889
1084.000000	1.233604
1082.000000	1.233307
1080.000000	1.232556
1078.000000	1.231740
1076.000000	1.230827
1074.000000	1.230128
1072.000000	1.230771
1070.000000	1.231145
1068.000000	1.230082
1066.000000	1.228983
1064.000000	1.228849
1062.000000	1.228573
1060.000000	1.227298
1058.000000	1.226300
1056.000000	1.226711
1054.000000	1.227055
1052.000000	1.226427
1050.000000	1.225134
1048.000000	1.224389
1046.000000	1.224254
1044.000000	1.224220
1042.000000	1.223494
1040.000000	1.222706
1038.000000	1.221836
1036.000000	1.220712
1034.000000	1.220716
1032.000000	1.221697
1030.000000	1.221852
1028.000000	1.221172
1026.000000	1.220683
1024.000000	1.219940
1022.000000	1.219742
1020.000000	1.219758
1018.000000	1.219250
1016.000000	1.219220
1014.000000	1.219404
1012.000000	1.219380
1010.000000	1.218845
1008.000000	1.218295
1006.000000	1.216927
1004.000000	1.217188
1002.000000	1.218770
1000.000000	1.218804
