PE IR       SUBTECH     SPECTRUM    ASCII       PEDS        4.00        
   -1
TE109A_049_80K_after_115K_SB.ASC
20/04/21
16:25:10.00
20/04/21
16:25:10.00
Administrator
TE109A, Tuesday, April 21 2020, 049.
1000.000000
#HDR
-1
-1
#GR
cm-1
EGY
1.0
0.0
6000.000000
-2.000000
2501
8
7.849276
0.812295
#DATA
6000.000000	1.407336
5998.000000	1.409703
5996.000000	1.412845
5994.000000	1.416910
5992.000000	1.420022
5990.000000	1.421591
5988.000000	1.423392
5986.000000	1.425758
5984.000000	1.428435
5982.000000	1.430880
5980.000000	1.434346
5978.000000	1.439229
5976.000000	1.443384
5974.000000	1.446511
5972.000000	1.448541
5970.000000	1.451458
5968.000000	1.454780
5966.000000	1.458956
5964.000000	1.462414
5962.000000	1.463447
5960.000000	1.464870
5958.000000	1.467331
5956.000000	1.471313
5954.000000	1.475060
5952.000000	1.478313
5950.000000	1.480550
5948.000000	1.483700
5946.000000	1.486785
5944.000000	1.490098
5942.000000	1.493281
5940.000000	1.495499
5938.000000	1.497846
5936.000000	1.500797
5934.000000	1.503605
5932.000000	1.506478
5930.000000	1.509478
5928.000000	1.512402
5926.000000	1.515822
5924.000000	1.519476
5922.000000	1.522842
5920.000000	1.525940
5918.000000	1.529175
5916.000000	1.532781
5914.000000	1.536344
5912.000000	1.539928
5910.000000	1.543403
5908.000000	1.546469
5906.000000	1.549207
5904.000000	1.551435
5902.000000	1.553999
5900.000000	1.556676
5898.000000	1.559434
5896.000000	1.561747
5894.000000	1.563446
5892.000000	1.566857
5890.000000	1.572050
5888.000000	1.578082
5886.000000	1.581824
5884.000000	1.583928
5882.000000	1.586283
5880.000000	1.588437
5878.000000	1.590957
5876.000000	1.594156
5874.000000	1.598178
5872.000000	1.602395
5870.000000	1.605131
5868.000000	1.608490
5866.000000	1.612096
5864.000000	1.615121
5862.000000	1.617697
5860.000000	1.620614
5858.000000	1.624332
5856.000000	1.627382
5854.000000	1.630340
5852.000000	1.632130
5850.000000	1.634237
5848.000000	1.637321
5846.000000	1.641918
5844.000000	1.647694
5842.000000	1.651995
5840.000000	1.655294
5838.000000	1.658989
5836.000000	1.661698
5834.000000	1.664665
5832.000000	1.668147
5830.000000	1.672395
5828.000000	1.675612
5826.000000	1.677101
5824.000000	1.680043
5822.000000	1.684896
5820.000000	1.690413
5818.000000	1.694599
5816.000000	1.697275
5814.000000	1.700165
5812.000000	1.702912
5810.000000	1.706646
5808.000000	1.710994
5806.000000	1.714554
5804.000000	1.716494
5802.000000	1.718366
5800.000000	1.720810
5798.000000	1.724173
5796.000000	1.727074
5794.000000	1.729772
5792.000000	1.734309
5790.000000	1.740178
5788.000000	1.744677
5786.000000	1.747618
5784.000000	1.750308
5782.000000	1.753688
5780.000000	1.757419
5778.000000	1.762016
5776.000000	1.767075
5774.000000	1.771504
5772.000000	1.775144
5770.000000	1.778421
5768.000000	1.782089
5766.000000	1.784134
5764.000000	1.785230
5762.000000	1.788198
5760.000000	1.792249
5758.000000	1.796646
5756.000000	1.801376
5754.000000	1.805364
5752.000000	1.809343
5750.000000	1.812835
5748.000000	1.815251
5746.000000	1.818064
5744.000000	1.820787
5742.000000	1.824539
5740.000000	1.828576
5738.000000	1.831027
5736.000000	1.833643
5734.000000	1.837582
5732.000000	1.842842
5730.000000	1.847846
5728.000000	1.851950
5726.000000	1.854595
5724.000000	1.856904
5722.000000	1.858801
5720.000000	1.861558
5718.000000	1.865241
5716.000000	1.868719
5714.000000	1.873269
5712.000000	1.879379
5710.000000	1.884899
5708.000000	1.888129
5706.000000	1.890495
5704.000000	1.893211
5702.000000	1.897191
5700.000000	1.901881
5698.000000	1.907378
5696.000000	1.912072
5694.000000	1.914344
5692.000000	1.916310
5690.000000	1.920081
5688.000000	1.924397
5686.000000	1.927674
5684.000000	1.930117
5682.000000	1.933834
5680.000000	1.938222
5678.000000	1.943725
5676.000000	1.948899
5674.000000	1.951847
5672.000000	1.953330
5670.000000	1.955542
5668.000000	1.960473
5666.000000	1.967503
5664.000000	1.974056
5662.000000	1.979428
5660.000000	1.982333
5658.000000	1.983775
5656.000000	1.986562
5654.000000	1.990380
5652.000000	1.995265
5650.000000	1.998987
5648.000000	2.001826
5646.000000	2.005154
5644.000000	2.009143
5642.000000	2.013341
5640.000000	2.017720
5638.000000	2.021069
5636.000000	2.025088
5634.000000	2.028577
5632.000000	2.031557
5630.000000	2.034785
5628.000000	2.039221
5626.000000	2.044743
5624.000000	2.049703
5622.000000	2.052712
5620.000000	2.055433
5618.000000	2.059230
5616.000000	2.063611
5614.000000	2.068120
5612.000000	2.071823
5610.000000	2.075985
5608.000000	2.079657
5606.000000	2.083552
5604.000000	2.086465
5602.000000	2.089245
5600.000000	2.092865
5598.000000	2.098162
5596.000000	2.103599
5594.000000	2.107804
5592.000000	2.110335
5590.000000	2.113118
5588.000000	2.117261
5586.000000	2.121443
5584.000000	2.125942
5582.000000	2.130646
5580.000000	2.135621
5578.000000	2.139819
5576.000000	2.143081
5574.000000	2.147432
5572.000000	2.152266
5570.000000	2.156508
5568.000000	2.159385
5566.000000	2.163071
5564.000000	2.168764
5562.000000	2.174874
5560.000000	2.179713
5558.000000	2.182670
5556.000000	2.184896
5554.000000	2.188000
5552.000000	2.191563
5550.000000	2.195924
5548.000000	2.199795
5546.000000	2.203915
5544.000000	2.208796
5542.000000	2.213314
5540.000000	2.217200
5538.000000	2.220833
5536.000000	2.225176
5534.000000	2.229585
5532.000000	2.233945
5530.000000	2.237952
5528.000000	2.242274
5526.000000	2.246542
5524.000000	2.251082
5522.000000	2.255017
5520.000000	2.257483
5518.000000	2.260550
5516.000000	2.265370
5514.000000	2.270934
5512.000000	2.275113
5510.000000	2.278446
5508.000000	2.282577
5506.000000	2.287023
5504.000000	2.290631
5502.000000	2.294885
5500.000000	2.299437
5498.000000	2.302321
5496.000000	2.304246
5494.000000	2.307170
5492.000000	2.311590
5490.000000	2.316914
5488.000000	2.322397
5486.000000	2.328524
5484.000000	2.333133
5482.000000	2.336281
5480.000000	2.339137
5478.000000	2.343329
5476.000000	2.348588
5474.000000	2.352926
5472.000000	2.356783
5470.000000	2.361187
5468.000000	2.365721
5466.000000	2.369005
5464.000000	2.370772
5462.000000	2.374371
5460.000000	2.380835
5458.000000	2.388780
5456.000000	2.395444
5454.000000	2.399916
5452.000000	2.403134
5450.000000	2.405326
5448.000000	2.408381
5446.000000	2.412246
5444.000000	2.417089
5442.000000	2.422110
5440.000000	2.427181
5438.000000	2.431277
5436.000000	2.434361
5434.000000	2.437503
5432.000000	2.441823
5430.000000	2.445306
5428.000000	2.448691
5426.000000	2.453299
5424.000000	2.460770
5422.000000	2.467107
5420.000000	2.469487
5418.000000	2.470053
5416.000000	2.472443
5414.000000	2.476672
5412.000000	2.480900
5410.000000	2.485948
5408.000000	2.491642
5406.000000	2.496070
5404.000000	2.500456
5402.000000	2.504666
5400.000000	2.508656
5398.000000	2.511967
5396.000000	2.516093
5394.000000	2.522055
5392.000000	2.527120
5390.000000	2.530996
5388.000000	2.535060
5386.000000	2.539846
5384.000000	2.545387
5382.000000	2.549452
5380.000000	2.551876
5378.000000	2.554467
5376.000000	2.558882
5374.000000	2.564881
5372.000000	2.570169
5370.000000	2.574468
5368.000000	2.578881
5366.000000	2.584217
5364.000000	2.589544
5362.000000	2.594041
5360.000000	2.597206
5358.000000	2.600160
5356.000000	2.603173
5354.000000	2.606371
5352.000000	2.610773
5350.000000	2.616685
5348.000000	2.621775
5346.000000	2.625374
5344.000000	2.629000
5342.000000	2.631442
5340.000000	2.633293
5338.000000	2.636632
5336.000000	2.642873
5334.000000	2.648761
5332.000000	2.652112
5330.000000	2.654980
5328.000000	2.658853
5326.000000	2.663650
5324.000000	2.668763
5322.000000	2.673146
5320.000000	2.676198
5318.000000	2.679784
5316.000000	2.683983
5314.000000	2.688773
5312.000000	2.692490
5310.000000	2.696157
5308.000000	2.700205
5306.000000	2.703624
5304.000000	2.706749
5302.000000	2.710882
5300.000000	2.715299
5298.000000	2.719756
5296.000000	2.723201
5294.000000	2.726496
5292.000000	2.729836
5290.000000	2.734209
5288.000000	2.739116
5286.000000	2.743204
5284.000000	2.746182
5282.000000	2.748384
5280.000000	2.749635
5278.000000	2.752401
5276.000000	2.757820
5274.000000	2.763918
5272.000000	2.769204
5270.000000	2.772679
5268.000000	2.775107
5266.000000	2.777047
5264.000000	2.779513
5262.000000	2.782644
5260.000000	2.786366
5258.000000	2.791230
5256.000000	2.797272
5254.000000	2.800864
5252.000000	2.801468
5250.000000	2.801603
5248.000000	2.804693
5246.000000	2.808824
5244.000000	2.811791
5242.000000	2.815495
5240.000000	2.820582
5238.000000	2.824028
5236.000000	2.825159
5234.000000	2.826699
5232.000000	2.829524
5230.000000	2.831755
5228.000000	2.833394
5226.000000	2.836699
5224.000000	2.841376
5222.000000	2.845911
5220.000000	2.848532
5218.000000	2.850402
5216.000000	2.852274
5214.000000	2.854233
5212.000000	2.856631
5210.000000	2.859290
5208.000000	2.861725
5206.000000	2.864350
5204.000000	2.867562
5202.000000	2.871743
5200.000000	2.874904
5198.000000	2.876538
5196.000000	2.878458
5194.000000	2.880877
5192.000000	2.884135
5190.000000	2.885331
5188.000000	2.885385
5186.000000	2.887966
5184.000000	2.892182
5182.000000	2.895325
5180.000000	2.896878
5178.000000	2.899337
5176.000000	2.902780
5174.000000	2.906040
5172.000000	2.909089
5170.000000	2.911570
5168.000000	2.914010
5166.000000	2.917203
5164.000000	2.920315
5162.000000	2.922564
5160.000000	2.925191
5158.000000	2.927996
5156.000000	2.930222
5154.000000	2.932326
5152.000000	2.935142
5150.000000	2.937522
5148.000000	2.939014
5146.000000	2.942709
5144.000000	2.948952
5142.000000	2.953247
5140.000000	2.954828
5138.000000	2.956723
5136.000000	2.960027
5134.000000	2.963730
5132.000000	2.967936
5130.000000	2.971329
5128.000000	2.973406
5126.000000	2.975587
5124.000000	2.978382
5122.000000	2.981473
5120.000000	2.986496
5118.000000	2.992493
5116.000000	2.996689
5114.000000	2.998053
5112.000000	2.999636
5110.000000	3.002358
5108.000000	3.005694
5106.000000	3.009438
5104.000000	3.013013
5102.000000	3.017145
5100.000000	3.021608
5098.000000	3.026160
5096.000000	3.030977
5094.000000	3.035697
5092.000000	3.040491
5090.000000	3.044173
5088.000000	3.047180
5086.000000	3.050370
5084.000000	3.054625
5082.000000	3.059002
5080.000000	3.061702
5078.000000	3.064609
5076.000000	3.069938
5074.000000	3.076421
5072.000000	3.081126
5070.000000	3.085170
5068.000000	3.090055
5066.000000	3.094889
5064.000000	3.098143
5062.000000	3.102155
5060.000000	3.107345
5058.000000	3.112079
5056.000000	3.115247
5054.000000	3.118736
5052.000000	3.123698
5050.000000	3.130312
5048.000000	3.136240
5046.000000	3.140001
5044.000000	3.141795
5042.000000	3.143882
5040.000000	3.148848
5038.000000	3.156253
5036.000000	3.162098
5034.000000	3.164780
5032.000000	3.167741
5030.000000	3.173413
5028.000000	3.179065
5026.000000	3.182844
5024.000000	3.186334
5022.000000	3.191458
5020.000000	3.196902
5018.000000	3.201397
5016.000000	3.206013
5014.000000	3.211299
5012.000000	3.216294
5010.000000	3.221392
5008.000000	3.226821
5006.000000	3.231835
5004.000000	3.236222
5002.000000	3.240646
5000.000000	3.244402
4998.000000	3.248575
4996.000000	3.254139
4994.000000	3.259189
4992.000000	3.263115
4990.000000	3.267696
4988.000000	3.272894
4986.000000	3.279184
4984.000000	3.285699
4982.000000	3.291481
4980.000000	3.296097
4978.000000	3.301405
4976.000000	3.306381
4974.000000	3.310608
4972.000000	3.316037
4970.000000	3.321813
4968.000000	3.326552
4966.000000	3.330358
4964.000000	3.334872
4962.000000	3.341010
4960.000000	3.348001
4958.000000	3.354847
4956.000000	3.359978
4954.000000	3.364426
4952.000000	3.369384
4950.000000	3.374767
4948.000000	3.379867
4946.000000	3.384056
4944.000000	3.388267
4942.000000	3.392951
4940.000000	3.398802
4938.000000	3.405763
4936.000000	3.412715
4934.000000	3.418158
4932.000000	3.422401
4930.000000	3.426659
4928.000000	3.431593
4926.000000	3.435762
4924.000000	3.440158
4922.000000	3.446062
4920.000000	3.452299
4918.000000	3.457040
4916.000000	3.461398
4914.000000	3.468032
4912.000000	3.475335
4910.000000	3.481918
4908.000000	3.487482
4906.000000	3.492833
4904.000000	3.498352
4902.000000	3.503577
4900.000000	3.509085
4898.000000	3.515100
4896.000000	3.521449
4894.000000	3.527476
4892.000000	3.532665
4890.000000	3.538203
4888.000000	3.545327
4886.000000	3.552720
4884.000000	3.557877
4882.000000	3.562421
4880.000000	3.567690
4878.000000	3.574088
4876.000000	3.581605
4874.000000	3.588828
4872.000000	3.594659
4870.000000	3.601168
4868.000000	3.607977
4866.000000	3.612837
4864.000000	3.616483
4862.000000	3.621862
4860.000000	3.628933
4858.000000	3.636129
4856.000000	3.641979
4854.000000	3.648010
4852.000000	3.653835
4850.000000	3.659381
4848.000000	3.664337
4846.000000	3.670878
4844.000000	3.677712
4842.000000	3.683704
4840.000000	3.689428
4838.000000	3.696077
4836.000000	3.702354
4834.000000	3.706831
4832.000000	3.711480
4830.000000	3.717394
4828.000000	3.723969
4826.000000	3.730105
4824.000000	3.737190
4822.000000	3.744307
4820.000000	3.750385
4818.000000	3.755639
4816.000000	3.761257
4814.000000	3.767487
4812.000000	3.774080
4810.000000	3.780871
4808.000000	3.788010
4806.000000	3.795682
4804.000000	3.802104
4802.000000	3.808150
4800.000000	3.815111
4798.000000	3.822545
4796.000000	3.828588
4794.000000	3.834383
4792.000000	3.839836
4790.000000	3.845170
4788.000000	3.851244
4786.000000	3.858706
4784.000000	3.866571
4782.000000	3.874708
4780.000000	3.882575
4778.000000	3.890202
4776.000000	3.897660
4774.000000	3.904105
4772.000000	3.909448
4770.000000	3.915388
4768.000000	3.922443
4766.000000	3.929351
4764.000000	3.936209
4762.000000	3.942835
4760.000000	3.949205
4758.000000	3.954909
4756.000000	3.960079
4754.000000	3.966248
4752.000000	3.973481
4750.000000	3.979832
4748.000000	3.985106
4746.000000	3.992107
4744.000000	4.000729
4742.000000	4.007957
4740.000000	4.012682
4738.000000	4.017413
4736.000000	4.023711
4734.000000	4.031095
4732.000000	4.038508
4730.000000	4.046060
4728.000000	4.052821
4726.000000	4.058076
4724.000000	4.063145
4722.000000	4.070197
4720.000000	4.078056
4718.000000	4.085452
4716.000000	4.091998
4714.000000	4.098202
4712.000000	4.105108
4710.000000	4.112370
4708.000000	4.118671
4706.000000	4.124375
4704.000000	4.130588
4702.000000	4.138066
4700.000000	4.146546
4698.000000	4.153783
4696.000000	4.159867
4694.000000	4.166869
4692.000000	4.174007
4690.000000	4.180003
4688.000000	4.184970
4686.000000	4.190419
4684.000000	4.197932
4682.000000	4.206056
4680.000000	4.212412
4678.000000	4.218462
4676.000000	4.225701
4674.000000	4.232488
4672.000000	4.238101
4670.000000	4.243784
4668.000000	4.250049
4666.000000	4.256061
4664.000000	4.262485
4662.000000	4.269966
4660.000000	4.276800
4658.000000	4.281764
4656.000000	4.286728
4654.000000	4.292455
4652.000000	4.298747
4650.000000	4.305824
4648.000000	4.312739
4646.000000	4.319132
4644.000000	4.324682
4642.000000	4.329365
4640.000000	4.334202
4638.000000	4.340646
4636.000000	4.347955
4634.000000	4.354235
4632.000000	4.360326
4630.000000	4.367255
4628.000000	4.373937
4626.000000	4.379826
4624.000000	4.386984
4622.000000	4.394515
4620.000000	4.400777
4618.000000	4.406172
4616.000000	4.411903
4614.000000	4.418120
4612.000000	4.424270
4610.000000	4.429718
4608.000000	4.435753
4606.000000	4.442983
4604.000000	4.449428
4602.000000	4.454907
4600.000000	4.461834
4598.000000	4.469496
4596.000000	4.475515
4594.000000	4.481402
4592.000000	4.488242
4590.000000	4.494604
4588.000000	4.501070
4586.000000	4.508634
4584.000000	4.516236
4582.000000	4.522260
4580.000000	4.526097
4578.000000	4.530349
4576.000000	4.536419
4574.000000	4.542955
4572.000000	4.549012
4570.000000	4.556145
4568.000000	4.563224
4566.000000	4.568620
4564.000000	4.572677
4562.000000	4.578570
4560.000000	4.586587
4558.000000	4.594288
4556.000000	4.600163
4554.000000	4.605403
4552.000000	4.610857
4550.000000	4.616006
4548.000000	4.620513
4546.000000	4.625933
4544.000000	4.632966
4542.000000	4.638931
4540.000000	4.644295
4538.000000	4.651020
4536.000000	4.658120
4534.000000	4.663836
4532.000000	4.670583
4530.000000	4.677447
4528.000000	4.682270
4526.000000	4.686586
4524.000000	4.691847
4522.000000	4.697081
4520.000000	4.703095
4518.000000	4.709666
4516.000000	4.715714
4514.000000	4.722383
4512.000000	4.729779
4510.000000	4.735789
4508.000000	4.741669
4506.000000	4.749117
4504.000000	4.757210
4502.000000	4.763823
4500.000000	4.769223
4498.000000	4.774766
4496.000000	4.780372
4494.000000	4.785418
4492.000000	4.790775
4490.000000	4.798095
4488.000000	4.805201
4486.000000	4.810351
4484.000000	4.816312
4482.000000	4.824548
4480.000000	4.831218
4478.000000	4.835688
4476.000000	4.840494
4474.000000	4.846788
4472.000000	4.853833
4470.000000	4.859811
4468.000000	4.864100
4466.000000	4.867823
4464.000000	4.872295
4462.000000	4.878358
4460.000000	4.885246
4458.000000	4.891266
4456.000000	4.897113
4454.000000	4.903414
4452.000000	4.908653
4450.000000	4.913315
4448.000000	4.919426
4446.000000	4.926876
4444.000000	4.933020
4442.000000	4.938153
4440.000000	4.942775
4438.000000	4.948199
4436.000000	4.954821
4434.000000	4.961606
4432.000000	4.967029
4430.000000	4.972514
4428.000000	4.977546
4426.000000	4.981262
4424.000000	4.986223
4422.000000	4.993366
4420.000000	4.999371
4418.000000	5.003733
4416.000000	5.008812
4414.000000	5.014887
4412.000000	5.021723
4410.000000	5.029393
4408.000000	5.036523
4406.000000	5.040726
4404.000000	5.043656
4402.000000	5.049325
4400.000000	5.055380
4398.000000	5.059072
4396.000000	5.063949
4394.000000	5.071592
4392.000000	5.078813
4390.000000	5.083913
4388.000000	5.087814
4386.000000	5.092518
4384.000000	5.097898
4382.000000	5.103043
4380.000000	5.107724
4378.000000	5.112240
4376.000000	5.117116
4374.000000	5.123091
4372.000000	5.129129
4370.000000	5.133867
4368.000000	5.138044
4366.000000	5.143098
4364.000000	5.148541
4362.000000	5.152875
4360.000000	5.156202
4358.000000	5.159979
4356.000000	5.164214
4354.000000	5.168707
4352.000000	5.173964
4350.000000	5.179122
4348.000000	5.183938
4346.000000	5.189641
4344.000000	5.195302
4342.000000	5.199935
4340.000000	5.203772
4338.000000	5.208112
4336.000000	5.212873
4334.000000	5.217022
4332.000000	5.221192
4330.000000	5.225317
4328.000000	5.229608
4326.000000	5.235912
4324.000000	5.241966
4322.000000	5.246447
4320.000000	5.251573
4318.000000	5.257881
4316.000000	5.263831
4314.000000	5.269044
4312.000000	5.274450
4310.000000	5.280576
4308.000000	5.285571
4306.000000	5.289162
4304.000000	5.292994
4302.000000	5.298374
4300.000000	5.304052
4298.000000	5.308507
4296.000000	5.312073
4294.000000	5.316964
4292.000000	5.323521
4290.000000	5.328778
4288.000000	5.332575
4286.000000	5.337076
4284.000000	5.341261
4282.000000	5.344859
4280.000000	5.349097
4278.000000	5.353504
4276.000000	5.357048
4274.000000	5.360791
4272.000000	5.366253
4270.000000	5.371785
4268.000000	5.375409
4266.000000	5.379875
4264.000000	5.385176
4262.000000	5.389453
4260.000000	5.393870
4258.000000	5.398914
4256.000000	5.403177
4254.000000	5.407216
4252.000000	5.412636
4250.000000	5.418889
4248.000000	5.423659
4246.000000	5.427672
4244.000000	5.432706
4242.000000	5.438119
4240.000000	5.443751
4238.000000	5.449590
4236.000000	5.455832
4234.000000	5.461861
4232.000000	5.465697
4230.000000	5.467854
4228.000000	5.470929
4226.000000	5.476481
4224.000000	5.484214
4222.000000	5.490372
4220.000000	5.493579
4218.000000	5.497216
4216.000000	5.502851
4214.000000	5.509310
4212.000000	5.515203
4210.000000	5.519361
4208.000000	5.523476
4206.000000	5.530003
4204.000000	5.537605
4202.000000	5.543677
4200.000000	5.548396
4198.000000	5.553166
4196.000000	5.558489
4194.000000	5.565087
4192.000000	5.572467
4190.000000	5.578544
4188.000000	5.583768
4186.000000	5.589184
4184.000000	5.594521
4182.000000	5.600650
4180.000000	5.605941
4178.000000	5.609487
4176.000000	5.614092
4174.000000	5.620118
4172.000000	5.624997
4170.000000	5.629537
4168.000000	5.635541
4166.000000	5.641218
4164.000000	5.645646
4162.000000	5.651052
4160.000000	5.656600
4158.000000	5.661586
4156.000000	5.668317
4154.000000	5.675528
4152.000000	5.680098
4150.000000	5.684278
4148.000000	5.690204
4146.000000	5.695832
4144.000000	5.701040
4142.000000	5.707089
4140.000000	5.713119
4138.000000	5.718554
4136.000000	5.723836
4134.000000	5.729472
4132.000000	5.735679
4130.000000	5.741895
4128.000000	5.747398
4126.000000	5.751885
4124.000000	5.757489
4122.000000	5.765070
4120.000000	5.772180
4118.000000	5.777526
4116.000000	5.782451
4114.000000	5.788024
4112.000000	5.793892
4110.000000	5.798984
4108.000000	5.804606
4106.000000	5.811381
4104.000000	5.817520
4102.000000	5.823217
4100.000000	5.828692
4098.000000	5.833386
4096.000000	5.838168
4094.000000	5.842896
4092.000000	5.847924
4090.000000	5.853824
4088.000000	5.860465
4086.000000	5.867540
4084.000000	5.872968
4082.000000	5.876986
4080.000000	5.882763
4078.000000	5.889381
4076.000000	5.895386
4074.000000	5.900967
4072.000000	5.905084
4070.000000	5.909333
4068.000000	5.914599
4066.000000	5.919575
4064.000000	5.925405
4062.000000	5.931400
4060.000000	5.937523
4058.000000	5.944495
4056.000000	5.949991
4054.000000	5.954661
4052.000000	5.960248
4050.000000	5.965542
4048.000000	5.971194
4046.000000	5.977881
4044.000000	5.983587
4042.000000	5.987717
4040.000000	5.993179
4038.000000	6.000637
4036.000000	6.007252
4034.000000	6.011979
4032.000000	6.017492
4030.000000	6.023923
4028.000000	6.027628
4026.000000	6.031480
4024.000000	6.040178
4022.000000	6.048375
4020.000000	6.053304
4018.000000	6.058939
4016.000000	6.064797
4014.000000	6.070219
4012.000000	6.077352
4010.000000	6.083831
4008.000000	6.088917
4006.000000	6.095298
4004.000000	6.102167
4002.000000	6.108294
4000.000000	6.114562
3998.000000	6.120532
3996.000000	6.126065
3994.000000	6.132884
3992.000000	6.140767
3990.000000	6.147158
3988.000000	6.152233
3986.000000	6.157386
3984.000000	6.163645
3982.000000	6.171716
3980.000000	6.179204
3978.000000	6.184354
3976.000000	6.189676
3974.000000	6.196716
3972.000000	6.203615
3970.000000	6.210036
3968.000000	6.217614
3966.000000	6.225074
3964.000000	6.231501
3962.000000	6.239031
3960.000000	6.247074
3958.000000	6.254387
3956.000000	6.262003
3954.000000	6.269157
3952.000000	6.275569
3950.000000	6.282918
3948.000000	6.290695
3946.000000	6.297146
3944.000000	6.303092
3942.000000	6.311369
3940.000000	6.322355
3938.000000	6.332332
3936.000000	6.337425
3934.000000	6.339840
3932.000000	6.346918
3930.000000	6.359463
3928.000000	6.370085
3926.000000	6.378048
3924.000000	6.386695
3922.000000	6.393416
3920.000000	6.398805
3918.000000	6.408240
3916.000000	6.422427
3914.000000	6.436994
3912.000000	6.449089
3910.000000	6.457494
3908.000000	6.457213
3906.000000	6.448890
3904.000000	6.444174
3902.000000	6.450109
3900.000000	6.468584
3898.000000	6.495388
3896.000000	6.512643
3894.000000	6.512730
3892.000000	6.514618
3890.000000	6.525705
3888.000000	6.529225
3886.000000	6.531503
3884.000000	6.543689
3882.000000	6.555541
3880.000000	6.569541
3878.000000	6.584674
3876.000000	6.590928
3874.000000	6.588087
3872.000000	6.578971
3870.000000	6.580664
3868.000000	6.596561
3866.000000	6.609961
3864.000000	6.624306
3862.000000	6.643401
3860.000000	6.656180
3858.000000	6.639001
3856.000000	6.587322
3854.000000	6.564025
3852.000000	6.609343
3850.000000	6.674164
3848.000000	6.710251
3846.000000	6.717446
3844.000000	6.714258
3842.000000	6.704355
3840.000000	6.686115
3838.000000	6.685312
3836.000000	6.711796
3834.000000	6.739667
3832.000000	6.758475
3830.000000	6.774426
3828.000000	6.786115
3826.000000	6.788990
3824.000000	6.777986
3822.000000	6.770094
3820.000000	6.776147
3818.000000	6.775908
3816.000000	6.785768
3814.000000	6.820943
3812.000000	6.848731
3810.000000	6.846974
3808.000000	6.835300
3806.000000	6.837518
3804.000000	6.832643
3802.000000	6.825716
3800.000000	6.845252
3798.000000	6.872630
3796.000000	6.892360
3794.000000	6.908776
3792.000000	6.919741
3790.000000	6.925572
3788.000000	6.930233
3786.000000	6.935128
3784.000000	6.939754
3782.000000	6.940870
3780.000000	6.942462
3778.000000	6.951834
3776.000000	6.963082
3774.000000	6.966771
3772.000000	6.961510
3770.000000	6.960191
3768.000000	6.967500
3766.000000	6.977762
3764.000000	6.986890
3762.000000	6.988622
3760.000000	6.988179
3758.000000	6.993770
3756.000000	6.987905
3754.000000	6.953408
3752.000000	6.921169
3750.000000	6.927543
3748.000000	6.940155
3746.000000	6.928906
3744.000000	6.947101
3742.000000	6.999918
3740.000000	7.022946
3738.000000	7.009344
3736.000000	6.998643
3734.000000	7.006156
3732.000000	7.027849
3730.000000	7.053220
3728.000000	7.064048
3726.000000	7.063971
3724.000000	7.066142
3722.000000	7.073263
3720.000000	7.081981
3718.000000	7.088208
3716.000000	7.081921
3714.000000	7.059253
3712.000000	7.044737
3710.000000	7.056541
3708.000000	7.077643
3706.000000	7.086077
3704.000000	7.078981
3702.000000	7.070867
3700.000000	7.070764
3698.000000	7.071748
3696.000000	7.065426
3694.000000	7.046725
3692.000000	7.012069
3690.000000	6.978807
3688.000000	6.980623
3686.000000	7.005524
3684.000000	7.014998
3682.000000	7.002931
3680.000000	6.971650
3678.000000	6.921812
3676.000000	6.887558
3674.000000	6.880923
3672.000000	6.866687
3670.000000	6.856972
3668.000000	6.869814
3666.000000	6.878659
3664.000000	6.867683
3662.000000	6.846283
3660.000000	6.819239
3658.000000	6.787122
3656.000000	6.764510
3654.000000	6.742652
3652.000000	6.699359
3650.000000	6.659903
3648.000000	6.655848
3646.000000	6.669825
3644.000000	6.672353
3642.000000	6.660677
3640.000000	6.644284
3638.000000	6.627645
3636.000000	6.608363
3634.000000	6.583888
3632.000000	6.545243
3630.000000	6.505651
3628.000000	6.500379
3626.000000	6.515538
3624.000000	6.513594
3622.000000	6.489000
3620.000000	6.463804
3618.000000	6.454391
3616.000000	6.447582
3614.000000	6.432088
3612.000000	6.415651
3610.000000	6.403367
3608.000000	6.398142
3606.000000	6.396376
3604.000000	6.389617
3602.000000	6.378210
3600.000000	6.365824
3598.000000	6.353481
3596.000000	6.342327
3594.000000	6.334096
3592.000000	6.322296
3590.000000	6.303124
3588.000000	6.289379
3586.000000	6.289612
3584.000000	6.291867
3582.000000	6.287089
3580.000000	6.279765
3578.000000	6.273838
3576.000000	6.268915
3574.000000	6.262847
3572.000000	6.251707
3570.000000	6.234629
3568.000000	6.220163
3566.000000	6.217737
3564.000000	6.221867
3562.000000	6.223527
3560.000000	6.221088
3558.000000	6.217252
3556.000000	6.212162
3554.000000	6.204311
3552.000000	6.198502
3550.000000	6.194666
3548.000000	6.187869
3546.000000	6.181518
3544.000000	6.179472
3542.000000	6.178243
3540.000000	6.174695
3538.000000	6.170516
3536.000000	6.166071
3534.000000	6.161095
3532.000000	6.154774
3530.000000	6.147101
3528.000000	6.141221
3526.000000	6.136510
3524.000000	6.130715
3522.000000	6.125719
3520.000000	6.121911
3518.000000	6.117886
3516.000000	6.112439
3514.000000	6.106519
3512.000000	6.098053
3510.000000	6.088777
3508.000000	6.081740
3506.000000	6.073604
3504.000000	6.064555
3502.000000	6.057434
3500.000000	6.050742
3498.000000	6.043473
3496.000000	6.036021
3494.000000	6.029811
3492.000000	6.023596
3490.000000	6.015255
3488.000000	6.005625
3486.000000	5.997060
3484.000000	5.989777
3482.000000	5.982513
3480.000000	5.978095
3478.000000	5.974268
3476.000000	5.968700
3474.000000	5.963141
3472.000000	5.959473
3470.000000	5.957785
3468.000000	5.954666
3466.000000	5.950663
3464.000000	5.948103
3462.000000	5.946912
3460.000000	5.946437
3458.000000	5.945669
3456.000000	5.944320
3454.000000	5.942508
3452.000000	5.939924
3450.000000	5.936190
3448.000000	5.932675
3446.000000	5.930229
3444.000000	5.930350
3442.000000	5.931688
3440.000000	5.932334
3438.000000	5.934739
3436.000000	5.940200
3434.000000	5.948012
3432.000000	5.955809
3430.000000	5.962776
3428.000000	5.970403
3426.000000	5.977648
3424.000000	5.982755
3422.000000	5.988260
3420.000000	5.994329
3418.000000	5.999790
3416.000000	6.004029
3414.000000	6.006668
3412.000000	6.008173
3410.000000	6.011673
3408.000000	6.015961
3406.000000	6.017499
3404.000000	6.018399
3402.000000	6.021274
3400.000000	6.024855
3398.000000	6.028080
3396.000000	6.031741
3394.000000	6.035163
3392.000000	6.038143
3390.000000	6.042006
3388.000000	6.045913
3386.000000	6.048948
3384.000000	6.051955
3382.000000	6.054396
3380.000000	6.056420
3378.000000	6.060184
3376.000000	6.064593
3374.000000	6.067906
3372.000000	6.069672
3370.000000	6.069742
3368.000000	6.071295
3366.000000	6.074314
3364.000000	6.077876
3362.000000	6.082100
3360.000000	6.084528
3358.000000	6.086062
3356.000000	6.088890
3354.000000	6.091673
3352.000000	6.093078
3350.000000	6.094182
3348.000000	6.095895
3346.000000	6.099079
3344.000000	6.103818
3342.000000	6.107007
3340.000000	6.107579
3338.000000	6.108280
3336.000000	6.110723
3334.000000	6.112597
3332.000000	6.112977
3330.000000	6.115166
3328.000000	6.119672
3326.000000	6.122817
3324.000000	6.124943
3322.000000	6.127362
3320.000000	6.129910
3318.000000	6.131074
3316.000000	6.131013
3314.000000	6.130704
3312.000000	6.131408
3310.000000	6.132398
3308.000000	6.132342
3306.000000	6.132958
3304.000000	6.135139
3302.000000	6.138501
3300.000000	6.140720
3298.000000	6.141565
3296.000000	6.142339
3294.000000	6.143912
3292.000000	6.145464
3290.000000	6.145163
3288.000000	6.147045
3286.000000	6.151339
3284.000000	6.153674
3282.000000	6.155914
3280.000000	6.158427
3278.000000	6.158570
3276.000000	6.158100
3274.000000	6.160365
3272.000000	6.164146
3270.000000	6.165972
3268.000000	6.165710
3266.000000	6.167037
3264.000000	6.169487
3262.000000	6.171594
3260.000000	6.175559
3258.000000	6.179555
3256.000000	6.181676
3254.000000	6.182572
3252.000000	6.183554
3250.000000	6.186411
3248.000000	6.189898
3246.000000	6.192550
3244.000000	6.193404
3242.000000	6.193813
3240.000000	6.196618
3238.000000	6.200515
3236.000000	6.203645
3234.000000	6.207368
3232.000000	6.210715
3230.000000	6.213549
3228.000000	6.216425
3226.000000	6.219779
3224.000000	6.223554
3222.000000	6.225724
3220.000000	6.228517
3218.000000	6.231975
3216.000000	6.234282
3214.000000	6.236642
3212.000000	6.239342
3210.000000	6.241939
3208.000000	6.245096
3206.000000	6.250248
3204.000000	6.256053
3202.000000	6.260573
3200.000000	6.263256
3198.000000	6.266534
3196.000000	6.272196
3194.000000	6.279049
3192.000000	6.284102
3190.000000	6.288266
3188.000000	6.293379
3186.000000	6.298703
3184.000000	6.304461
3182.000000	6.309751
3180.000000	6.314299
3178.000000	6.318308
3176.000000	6.323855
3174.000000	6.329129
3172.000000	6.333329
3170.000000	6.337320
3168.000000	6.340736
3166.000000	6.346251
3164.000000	6.353040
3162.000000	6.356900
3160.000000	6.360653
3158.000000	6.367397
3156.000000	6.373598
3154.000000	6.378330
3152.000000	6.383081
3150.000000	6.388788
3148.000000	6.395288
3146.000000	6.401199
3144.000000	6.406583
3142.000000	6.411407
3140.000000	6.415970
3138.000000	6.419491
3136.000000	6.423303
3134.000000	6.429342
3132.000000	6.434615
3130.000000	6.437884
3128.000000	6.441020
3126.000000	6.445147
3124.000000	6.449225
3122.000000	6.452265
3120.000000	6.456052
3118.000000	6.459387
3116.000000	6.462432
3114.000000	6.465854
3112.000000	6.469644
3110.000000	6.473041
3108.000000	6.476525
3106.000000	6.479323
3104.000000	6.482958
3102.000000	6.488625
3100.000000	6.492966
3098.000000	6.495557
3096.000000	6.499976
3094.000000	6.505285
3092.000000	6.509002
3090.000000	6.511765
3088.000000	6.515510
3086.000000	6.519412
3084.000000	6.522068
3082.000000	6.525401
3080.000000	6.529617
3078.000000	6.533151
3076.000000	6.534373
3074.000000	6.534277
3072.000000	6.536534
3070.000000	6.537968
3068.000000	6.538048
3066.000000	6.540664
3064.000000	6.543884
3062.000000	6.547379
3060.000000	6.552697
3058.000000	6.557695
3056.000000	6.562787
3054.000000	6.567858
3052.000000	6.572443
3050.000000	6.577413
3048.000000	6.581928
3046.000000	6.584352
3044.000000	6.586687
3042.000000	6.590122
3040.000000	6.593950
3038.000000	6.597753
3036.000000	6.599589
3034.000000	6.598943
3032.000000	6.598747
3030.000000	6.597804
3028.000000	6.593537
3026.000000	6.587271
3024.000000	6.580491
3022.000000	6.574296
3020.000000	6.572937
3018.000000	6.577426
3016.000000	6.588448
3014.000000	6.607519
3012.000000	6.632077
3010.000000	6.655423
3008.000000	6.671701
3006.000000	6.683651
3004.000000	6.695152
3002.000000	6.704223
3000.000000	6.709951
2998.000000	6.714103
2996.000000	6.719286
2994.000000	6.723706
2992.000000	6.726196
2990.000000	6.728808
2988.000000	6.731388
2986.000000	6.731013
2984.000000	6.729049
2982.000000	6.726826
2980.000000	6.721066
2978.000000	6.710319
2976.000000	6.694859
2974.000000	6.672978
2972.000000	6.645870
2970.000000	6.612135
2968.000000	6.574847
2966.000000	6.541942
2964.000000	6.520708
2962.000000	6.515410
2960.000000	6.523975
2958.000000	6.540197
2956.000000	6.560032
2954.000000	6.579302
2952.000000	6.594334
2950.000000	6.604556
2948.000000	6.605981
2946.000000	6.598053
2944.000000	6.579514
2942.000000	6.552036
2940.000000	6.520661
2938.000000	6.486739
2936.000000	6.456294
2934.000000	6.431352
2932.000000	6.406204
2930.000000	6.380955
2928.000000	6.361955
2926.000000	6.355697
2924.000000	6.369982
2922.000000	6.407421
2920.000000	6.462837
2918.000000	6.528832
2916.000000	6.597386
2914.000000	6.658884
2912.000000	6.710259
2910.000000	6.752662
2908.000000	6.786806
2906.000000	6.816490
2904.000000	6.844026
2902.000000	6.870033
2900.000000	6.893055
2898.000000	6.914874
2896.000000	6.936665
2894.000000	6.956379
2892.000000	6.975560
2890.000000	6.993937
2888.000000	7.009275
2886.000000	7.020805
2884.000000	7.030272
2882.000000	7.038579
2880.000000	7.043847
2878.000000	7.041968
2876.000000	7.035418
2874.000000	7.026596
2872.000000	7.011811
2870.000000	6.986428
2868.000000	6.950961
2866.000000	6.910970
2864.000000	6.875788
2862.000000	6.855081
2860.000000	6.855388
2858.000000	6.873206
2856.000000	6.899544
2854.000000	6.929259
2852.000000	6.962860
2850.000000	7.005215
2848.000000	7.055650
2846.000000	7.106497
2844.000000	7.149290
2842.000000	7.182713
2840.000000	7.210413
2838.000000	7.232818
2836.000000	7.251064
2834.000000	7.266878
2832.000000	7.281262
2830.000000	7.293682
2828.000000	7.304579
2826.000000	7.316147
2824.000000	7.326184
2822.000000	7.335036
2820.000000	7.344324
2818.000000	7.352403
2816.000000	7.359210
2814.000000	7.365951
2812.000000	7.372392
2810.000000	7.379737
2808.000000	7.386241
2806.000000	7.391814
2804.000000	7.397462
2802.000000	7.403302
2800.000000	7.409437
2798.000000	7.415355
2796.000000	7.419967
2794.000000	7.423600
2792.000000	7.428515
2790.000000	7.434976
2788.000000	7.442395
2786.000000	7.450189
2784.000000	7.457774
2782.000000	7.465119
2780.000000	7.470845
2778.000000	7.477468
2776.000000	7.485245
2774.000000	7.490786
2772.000000	7.494957
2770.000000	7.500287
2768.000000	7.505882
2766.000000	7.512708
2764.000000	7.519545
2762.000000	7.524218
2760.000000	7.528335
2758.000000	7.532996
2756.000000	7.536448
2754.000000	7.539157
2752.000000	7.542593
2750.000000	7.545058
2748.000000	7.548547
2746.000000	7.552925
2744.000000	7.556609
2742.000000	7.559361
2740.000000	7.560349
2738.000000	7.562549
2736.000000	7.566720
2734.000000	7.571133
2732.000000	7.573730
2730.000000	7.576250
2728.000000	7.579957
2726.000000	7.582715
2724.000000	7.584830
2722.000000	7.586837
2720.000000	7.589084
2718.000000	7.590618
2716.000000	7.593102
2714.000000	7.596817
2712.000000	7.598642
2710.000000	7.598355
2708.000000	7.599623
2706.000000	7.602465
2704.000000	7.605076
2702.000000	7.606267
2700.000000	7.607881
2698.000000	7.610792
2696.000000	7.613485
2694.000000	7.617516
2692.000000	7.620752
2690.000000	7.620989
2688.000000	7.622062
2686.000000	7.625304
2684.000000	7.627562
2682.000000	7.628196
2680.000000	7.629467
2678.000000	7.631471
2676.000000	7.632539
2674.000000	7.632109
2672.000000	7.632385
2670.000000	7.633019
2668.000000	7.633510
2666.000000	7.634797
2664.000000	7.636638
2662.000000	7.636286
2660.000000	7.634603
2658.000000	7.634812
2656.000000	7.636284
2654.000000	7.637791
2652.000000	7.636869
2650.000000	7.636493
2648.000000	7.638813
2646.000000	7.638060
2644.000000	7.636958
2642.000000	7.638131
2640.000000	7.637822
2638.000000	7.638054
2636.000000	7.639141
2634.000000	7.638748
2632.000000	7.638441
2630.000000	7.637783
2628.000000	7.637818
2626.000000	7.638033
2624.000000	7.637480
2622.000000	7.636852
2620.000000	7.635824
2618.000000	7.635495
2616.000000	7.634339
2614.000000	7.631762
2612.000000	7.631703
2610.000000	7.632725
2608.000000	7.631496
2606.000000	7.628021
2604.000000	7.625601
2602.000000	7.625539
2600.000000	7.624133
2598.000000	7.620881
2596.000000	7.616392
2594.000000	7.613164
2592.000000	7.612788
2590.000000	7.613387
2588.000000	7.613663
2586.000000	7.614783
2584.000000	7.615499
2582.000000	7.616104
2580.000000	7.617045
2578.000000	7.617726
2576.000000	7.617556
2574.000000	7.618591
2572.000000	7.620461
2570.000000	7.620541
2568.000000	7.618557
2566.000000	7.616049
2564.000000	7.614628
2562.000000	7.614053
2560.000000	7.612508
2558.000000	7.610498
2556.000000	7.608156
2554.000000	7.605326
2552.000000	7.603632
2550.000000	7.602358
2548.000000	7.600994
2546.000000	7.599207
2544.000000	7.597274
2542.000000	7.594929
2540.000000	7.593249
2538.000000	7.591550
2536.000000	7.588745
2534.000000	7.586001
2532.000000	7.582697
2530.000000	7.579592
2528.000000	7.577133
2526.000000	7.575142
2524.000000	7.574204
2522.000000	7.572167
2520.000000	7.568544
2518.000000	7.564733
2516.000000	7.561721
2514.000000	7.559339
2512.000000	7.556810
2510.000000	7.554140
2508.000000	7.551494
2506.000000	7.549389
2504.000000	7.547413
2502.000000	7.543554
2500.000000	7.539513
2498.000000	7.538281
2496.000000	7.537294
2494.000000	7.535397
2492.000000	7.534264
2490.000000	7.531378
2488.000000	7.527764
2486.000000	7.525781
2484.000000	7.525105
2482.000000	7.525124
2480.000000	7.523836
2478.000000	7.520725
2476.000000	7.517793
2474.000000	7.515383
2472.000000	7.514954
2470.000000	7.516024
2468.000000	7.515403
2466.000000	7.512860
2464.000000	7.510304
2462.000000	7.508983
2460.000000	7.506219
2458.000000	7.504296
2456.000000	7.503701
2454.000000	7.503065
2452.000000	7.502901
2450.000000	7.501551
2448.000000	7.500541
2446.000000	7.500882
2444.000000	7.502084
2442.000000	7.500983
2440.000000	7.500188
2438.000000	7.500044
2436.000000	7.499758
2434.000000	7.499716
2432.000000	7.499637
2430.000000	7.499591
2428.000000	7.500623
2426.000000	7.502666
2424.000000	7.503380
2422.000000	7.505118
2420.000000	7.508611
2418.000000	7.510008
2416.000000	7.511485
2414.000000	7.514423
2412.000000	7.517127
2410.000000	7.520128
2408.000000	7.524642
2406.000000	7.529689
2404.000000	7.533201
2402.000000	7.535788
2400.000000	7.539022
2398.000000	7.541577
2396.000000	7.543833
2394.000000	7.546113
2392.000000	7.547324
2390.000000	7.549233
2388.000000	7.551329
2386.000000	7.551151
2384.000000	7.550265
2382.000000	7.548752
2380.000000	7.545265
2378.000000	7.538043
2376.000000	7.526883
2374.000000	7.511978
2372.000000	7.494904
2370.000000	7.478755
2368.000000	7.463931
2366.000000	7.451117
2364.000000	7.441733
2362.000000	7.436962
2360.000000	7.438927
2358.000000	7.446884
2356.000000	7.462321
2354.000000	7.483667
2352.000000	7.505256
2350.000000	7.518927
2348.000000	7.514425
2346.000000	7.493449
2344.000000	7.466931
2342.000000	7.440513
2340.000000	7.424396
2338.000000	7.425851
2336.000000	7.436908
2334.000000	7.446124
2332.000000	7.452227
2330.000000	7.457615
2328.000000	7.463687
2326.000000	7.468876
2324.000000	7.474584
2322.000000	7.481362
2320.000000	7.486231
2318.000000	7.489591
2316.000000	7.494480
2314.000000	7.499684
2312.000000	7.501761
2310.000000	7.501786
2308.000000	7.502867
2306.000000	7.504574
2304.000000	7.505091
2302.000000	7.505374
2300.000000	7.505312
2298.000000	7.502636
2296.000000	7.500808
2294.000000	7.501458
2292.000000	7.502135
2290.000000	7.502256
2288.000000	7.501795
2286.000000	7.500583
2284.000000	7.498532
2282.000000	7.496671
2280.000000	7.495181
2278.000000	7.492441
2276.000000	7.488581
2274.000000	7.484840
2272.000000	7.482387
2270.000000	7.480382
2268.000000	7.477838
2266.000000	7.476585
2264.000000	7.475808
2262.000000	7.474093
2260.000000	7.473007
2258.000000	7.471059
2256.000000	7.468932
2254.000000	7.467552
2252.000000	7.466643
2250.000000	7.466418
2248.000000	7.464466
2246.000000	7.463230
2244.000000	7.464378
2242.000000	7.464543
2240.000000	7.463799
2238.000000	7.462331
2236.000000	7.461828
2234.000000	7.462456
2232.000000	7.463334
2230.000000	7.463905
2228.000000	7.464439
2226.000000	7.464011
2224.000000	7.463236
2222.000000	7.463941
2220.000000	7.465837
2218.000000	7.465773
2216.000000	7.464674
2214.000000	7.462805
2212.000000	7.462136
2210.000000	7.463398
2208.000000	7.463784
2206.000000	7.462859
2204.000000	7.463045
2202.000000	7.464816
2200.000000	7.467001
2198.000000	7.467612
2196.000000	7.467899
2194.000000	7.469213
2192.000000	7.470854
2190.000000	7.470513
2188.000000	7.470222
2186.000000	7.470406
2184.000000	7.470397
2182.000000	7.470313
2180.000000	7.471561
2178.000000	7.473613
2176.000000	7.474715
2174.000000	7.475240
2172.000000	7.474959
2170.000000	7.473684
2168.000000	7.475818
2166.000000	7.479243
2164.000000	7.481093
2162.000000	7.481413
2160.000000	7.481746
2158.000000	7.484082
2156.000000	7.487606
2154.000000	7.489283
2152.000000	7.490086
2150.000000	7.491843
2148.000000	7.494195
2146.000000	7.495852
2144.000000	7.497607
2142.000000	7.499419
2140.000000	7.502429
2138.000000	7.505348
2136.000000	7.507078
2134.000000	7.508851
2132.000000	7.511575
2130.000000	7.514713
2128.000000	7.517271
2126.000000	7.520709
2124.000000	7.523965
2122.000000	7.526194
2120.000000	7.529558
2118.000000	7.533621
2116.000000	7.537574
2114.000000	7.540924
2112.000000	7.544595
2110.000000	7.548946
2108.000000	7.553493
2106.000000	7.558288
2104.000000	7.563202
2102.000000	7.567526
2100.000000	7.572782
2098.000000	7.578876
2096.000000	7.583016
2094.000000	7.587447
2092.000000	7.592253
2090.000000	7.595348
2088.000000	7.599081
2086.000000	7.602671
2084.000000	7.607968
2082.000000	7.616115
2080.000000	7.623401
2078.000000	7.628187
2076.000000	7.632979
2074.000000	7.639143
2072.000000	7.645783
2070.000000	7.651070
2068.000000	7.655625
2066.000000	7.660009
2064.000000	7.665938
2062.000000	7.674477
2060.000000	7.682205
2058.000000	7.686174
2056.000000	7.691791
2054.000000	7.697858
2052.000000	7.702022
2050.000000	7.707645
2048.000000	7.714041
2046.000000	7.720019
2044.000000	7.726112
2042.000000	7.730820
2040.000000	7.735586
2038.000000	7.740140
2036.000000	7.745879
2034.000000	7.752039
2032.000000	7.755022
2030.000000	7.756296
2028.000000	7.762731
2026.000000	7.769683
2024.000000	7.774978
2022.000000	7.779546
2020.000000	7.783309
2018.000000	7.785572
2016.000000	7.790683
2014.000000	7.796993
2012.000000	7.802794
2010.000000	7.808144
2008.000000	7.812667
2006.000000	7.815414
2004.000000	7.818036
2002.000000	7.822068
2000.000000	7.825393
1998.000000	7.827785
1996.000000	7.830316
1994.000000	7.830581
1992.000000	7.832491
1990.000000	7.838314
1988.000000	7.841473
1986.000000	7.841916
1984.000000	7.843438
1982.000000	7.844772
1980.000000	7.846472
1978.000000	7.847221
1976.000000	7.846909
1974.000000	7.847857
1972.000000	7.849276
1970.000000	7.848230
1968.000000	7.844429
1966.000000	7.843574
1964.000000	7.844357
1962.000000	7.839972
1960.000000	7.831606
1958.000000	7.832097
1956.000000	7.839605
1954.000000	7.842114
1952.000000	7.840445
1950.000000	7.837300
1948.000000	7.836950
1946.000000	7.834801
1944.000000	7.829268
1942.000000	7.827837
1940.000000	7.832442
1938.000000	7.831541
1936.000000	7.827296
1934.000000	7.824384
1932.000000	7.822089
1930.000000	7.819388
1928.000000	7.816854
1926.000000	7.813876
1924.000000	7.808289
1922.000000	7.803797
1920.000000	7.796360
1918.000000	7.788604
1916.000000	7.792454
1914.000000	7.792589
1912.000000	7.786674
1910.000000	7.780804
1908.000000	7.776957
1906.000000	7.771933
1904.000000	7.765251
1902.000000	7.759122
1900.000000	7.754963
1898.000000	7.750530
1896.000000	7.745981
1894.000000	7.742023
1892.000000	7.735365
1890.000000	7.727049
1888.000000	7.728236
1886.000000	7.730036
1884.000000	7.727403
1882.000000	7.722275
1880.000000	7.717432
1878.000000	7.714895
1876.000000	7.713323
1874.000000	7.709119
1872.000000	7.697555
1870.000000	7.679151
1868.000000	7.677076
1866.000000	7.686849
1864.000000	7.689509
1862.000000	7.685201
1860.000000	7.680525
1858.000000	7.675697
1856.000000	7.672263
1854.000000	7.666933
1852.000000	7.661634
1850.000000	7.655256
1848.000000	7.642836
1846.000000	7.614510
1844.000000	7.599724
1842.000000	7.616960
1840.000000	7.623414
1838.000000	7.614467
1836.000000	7.607364
1834.000000	7.599348
1832.000000	7.579937
1830.000000	7.562784
1828.000000	7.561210
1826.000000	7.553797
1824.000000	7.551024
1822.000000	7.552802
1820.000000	7.545445
1818.000000	7.533272
1816.000000	7.524870
1814.000000	7.515168
1812.000000	7.499851
1810.000000	7.487633
1808.000000	7.481129
1806.000000	7.471744
1804.000000	7.456182
1802.000000	7.435579
1800.000000	7.423822
1798.000000	7.417668
1796.000000	7.401445
1794.000000	7.365711
1792.000000	7.346258
1790.000000	7.356259
1788.000000	7.355098
1786.000000	7.335262
1784.000000	7.320832
1782.000000	7.309702
1780.000000	7.298173
1778.000000	7.286974
1776.000000	7.262069
1774.000000	7.214039
1772.000000	7.190532
1770.000000	7.202064
1768.000000	7.205718
1766.000000	7.208713
1764.000000	7.191432
1762.000000	7.164747
1760.000000	7.156795
1758.000000	7.143685
1756.000000	7.129140
1754.000000	7.106861
1752.000000	7.063522
1750.000000	7.046534
1748.000000	7.048348
1746.000000	7.040669
1744.000000	7.023519
1742.000000	6.997108
1740.000000	6.973453
1738.000000	6.963754
1736.000000	6.910029
1734.000000	6.866941
1732.000000	6.906313
1730.000000	6.936955
1728.000000	6.939387
1726.000000	6.932130
1724.000000	6.921951
1722.000000	6.907605
1720.000000	6.858412
1718.000000	6.800961
1716.000000	6.812682
1714.000000	6.847842
1712.000000	6.862759
1710.000000	6.854298
1708.000000	6.832469
1706.000000	6.810819
1704.000000	6.796010
1702.000000	6.735535
1700.000000	6.700449
1698.000000	6.711640
1696.000000	6.705976
1694.000000	6.758328
1692.000000	6.796074
1690.000000	6.788321
1688.000000	6.758748
1686.000000	6.682298
1684.000000	6.662603
1682.000000	6.725761
1680.000000	6.755026
1678.000000	6.742882
1676.000000	6.709605
1674.000000	6.707987
1672.000000	6.705906
1670.000000	6.684469
1668.000000	6.693173
1666.000000	6.705648
1664.000000	6.687258
1662.000000	6.678652
1660.000000	6.687750
1658.000000	6.677366
1656.000000	6.607383
1654.000000	6.495423
1652.000000	6.513942
1650.000000	6.596035
1648.000000	6.581045
1646.000000	6.564785
1644.000000	6.595784
1642.000000	6.609831
1640.000000	6.594332
1638.000000	6.546446
1636.000000	6.498219
1634.000000	6.519953
1632.000000	6.547974
1630.000000	6.534301
1628.000000	6.509345
1626.000000	6.480841
1624.000000	6.442196
1622.000000	6.418903
1620.000000	6.388747
1618.000000	6.321557
1616.000000	6.291103
1614.000000	6.294559
1612.000000	6.260126
1610.000000	6.217389
1608.000000	6.196501
1606.000000	6.199846
1604.000000	6.213800
1602.000000	6.230394
1600.000000	6.246146
1598.000000	6.260446
1596.000000	6.270551
1594.000000	6.278837
1592.000000	6.283133
1590.000000	6.282569
1588.000000	6.279934
1586.000000	6.275451
1584.000000	6.269569
1582.000000	6.265036
1580.000000	6.254847
1578.000000	6.208691
1576.000000	6.182099
1574.000000	6.221991
1572.000000	6.227809
1570.000000	6.202868
1568.000000	6.202455
1566.000000	6.200341
1564.000000	6.177646
1562.000000	6.107136
1560.000000	6.007748
1558.000000	6.016494
1556.000000	6.085656
1554.000000	6.125145
1552.000000	6.158513
1550.000000	6.178868
1548.000000	6.190044
1546.000000	6.182906
1544.000000	6.163117
1542.000000	6.126732
1540.000000	6.112333
1538.000000	6.183587
1536.000000	6.245849
1534.000000	6.249400
1532.000000	6.267569
1530.000000	6.282290
1528.000000	6.272700
1526.000000	6.257790
1524.000000	6.234276
1522.000000	6.197484
1520.000000	6.204626
1518.000000	6.216789
1516.000000	6.210423
1514.000000	6.205019
1512.000000	6.190434
1510.000000	6.155463
1508.000000	6.077975
1506.000000	6.037588
1504.000000	6.048015
1502.000000	5.979614
1500.000000	5.800741
1498.000000	5.568894
1496.000000	5.399673
1494.000000	5.381168
1492.000000	5.463406
1490.000000	5.589020
1488.000000	5.725739
1486.000000	5.835324
1484.000000	5.904390
1482.000000	5.938297
1480.000000	5.955012
1478.000000	5.950722
1476.000000	5.925357
1474.000000	5.889135
1472.000000	5.879890
1470.000000	5.895053
1468.000000	5.881443
1466.000000	5.839427
1464.000000	5.813090
1462.000000	5.792781
1460.000000	5.723871
1458.000000	5.612004
1456.000000	5.544811
1454.000000	5.518661
1452.000000	5.485384
1450.000000	5.495183
1448.000000	5.556819
1446.000000	5.622945
1444.000000	5.653585
1442.000000	5.661524
1440.000000	5.654751
1438.000000	5.630926
1436.000000	5.633700
1434.000000	5.664343
1432.000000	5.669780
1430.000000	5.667898
1428.000000	5.672187
1426.000000	5.671266
1424.000000	5.662635
1422.000000	5.644449
1420.000000	5.610254
1418.000000	5.609590
1416.000000	5.621048
1414.000000	5.611644
1412.000000	5.587045
1410.000000	5.549749
1408.000000	5.496227
1406.000000	5.439576
1404.000000	5.409824
1402.000000	5.414542
1400.000000	5.432636
1398.000000	5.463909
1396.000000	5.489975
1394.000000	5.513170
1392.000000	5.537060
1390.000000	5.537990
1388.000000	5.515506
1386.000000	5.494885
1384.000000	5.489695
1382.000000	5.500103
1380.000000	5.507642
1378.000000	5.504050
1376.000000	5.494076
1374.000000	5.486494
1372.000000	5.485760
1370.000000	5.480485
1368.000000	5.470866
1366.000000	5.459331
1364.000000	5.442941
1362.000000	5.431468
1360.000000	5.426686
1358.000000	5.418369
1356.000000	5.405235
1354.000000	5.392328
1352.000000	5.378535
1350.000000	5.362273
1348.000000	5.346377
1346.000000	5.331268
1344.000000	5.315272
1342.000000	5.296934
1340.000000	5.280378
1338.000000	5.271613
1336.000000	5.266227
1334.000000	5.259178
1332.000000	5.249564
1330.000000	5.237636
1328.000000	5.220930
1326.000000	5.203488
1324.000000	5.186471
1322.000000	5.167863
1320.000000	5.146737
1318.000000	5.125507
1316.000000	5.105466
1314.000000	5.084276
1312.000000	5.062386
1310.000000	5.040904
1308.000000	5.018330
1306.000000	4.996093
1304.000000	4.972759
1302.000000	4.949469
1300.000000	4.924969
1298.000000	4.899892
1296.000000	4.873780
1294.000000	4.848745
1292.000000	4.823342
1290.000000	4.794488
1288.000000	4.764428
1286.000000	4.736769
1284.000000	4.708511
1282.000000	4.678161
1280.000000	4.646203
1278.000000	4.611771
1276.000000	4.572076
1274.000000	4.527734
1272.000000	4.474570
1270.000000	4.408013
1268.000000	4.323155
1266.000000	4.220270
1264.000000	4.114446
1262.000000	4.032114
1260.000000	3.993381
1258.000000	3.999045
1256.000000	4.028180
1254.000000	4.052770
1252.000000	4.057018
1250.000000	4.042494
1248.000000	4.015137
1246.000000	3.982257
1244.000000	3.947274
1242.000000	3.910379
1240.000000	3.873286
1238.000000	3.839061
1236.000000	3.805367
1234.000000	3.772375
1232.000000	3.740734
1230.000000	3.710380
1228.000000	3.678296
1226.000000	3.646309
1224.000000	3.614562
1222.000000	3.580972
1220.000000	3.545686
1218.000000	3.508500
1216.000000	3.469319
1214.000000	3.433322
1212.000000	3.400593
1210.000000	3.368306
1208.000000	3.339167
1206.000000	3.311262
1204.000000	3.282626
1202.000000	3.253891
1200.000000	3.225657
1198.000000	3.198396
1196.000000	3.169347
1194.000000	3.138589
1192.000000	3.107133
1190.000000	3.075813
1188.000000	3.042573
1186.000000	3.008558
1184.000000	2.967415
1182.000000	2.916034
1180.000000	2.877219
1178.000000	2.858468
1176.000000	2.840894
1174.000000	2.815591
1172.000000	2.783805
1170.000000	2.751385
1168.000000	2.717975
1166.000000	2.684297
1164.000000	2.651308
1162.000000	2.617404
1160.000000	2.583301
1158.000000	2.552640
1156.000000	2.522099
1154.000000	2.490974
1152.000000	2.460754
1150.000000	2.430236
1148.000000	2.399625
1146.000000	2.370682
1144.000000	2.341168
1142.000000	2.315141
1140.000000	2.292035
1138.000000	2.268408
1136.000000	2.243430
1134.000000	2.216816
1132.000000	2.187428
1130.000000	2.156945
1128.000000	2.126360
1126.000000	2.095402
1124.000000	2.064064
1122.000000	2.033944
1120.000000	2.003764
1118.000000	1.971064
1116.000000	1.936309
1114.000000	1.902022
1112.000000	1.868427
1110.000000	1.836235
1108.000000	1.804134
1106.000000	1.771847
1104.000000	1.741504
1102.000000	1.711194
1100.000000	1.680941
1098.000000	1.653136
1096.000000	1.625070
1094.000000	1.597056
1092.000000	1.572700
1090.000000	1.549275
1088.000000	1.524226
1086.000000	1.501646
1084.000000	1.479740
1082.000000	1.454909
1080.000000	1.431111
1078.000000	1.410604
1076.000000	1.394825
1074.000000	1.382922
1072.000000	1.369166
1070.000000	1.354531
1068.000000	1.341240
1066.000000	1.325406
1064.000000	1.310440
1062.000000	1.296246
1060.000000	1.279289
1058.000000	1.259846
1056.000000	1.233174
1054.000000	1.196969
1052.000000	1.161380
1050.000000	1.141762
1048.000000	1.141175
1046.000000	1.147643
1044.000000	1.149324
1042.000000	1.142251
1040.000000	1.129881
1038.000000	1.116616
1036.000000	1.100480
1034.000000	1.082617
1032.000000	1.064941
1030.000000	1.047049
1028.000000	1.027490
1026.000000	1.007730
1024.000000	0.989073
1022.000000	0.970470
1020.000000	0.951310
1018.000000	0.935107
1016.000000	0.920305
1014.000000	0.907067
1012.000000	0.895115
1010.000000	0.882994
1008.000000	0.870622
1006.000000	0.859266
1004.000000	0.846416
1002.000000	0.830444
1000.000000	0.812295
