PE IR       SUBTECH     SPECTRUM    ASCII       PEDS        4.00        
   -1
TE109A_084_8K_after_160K_SB.ASC
20/04/21
21:55:08.00
20/04/21
21:55:08.00
Administrator
TE109A, Tuesday, April 21 2020, 084.
1000.000000
#HDR
-1
-1
#GR
cm-1
EGY
1.0
0.0
6000.000000
-2.000000
2501
8
11.882415
1.251914
#DATA
6000.000000	2.061765
5998.000000	2.066021
5996.000000	2.070342
5994.000000	2.074767
5992.000000	2.078345
5990.000000	2.082982
5988.000000	2.089022
5986.000000	2.093882
5984.000000	2.097739
5982.000000	2.101156
5980.000000	2.104602
5978.000000	2.108511
5976.000000	2.113810
5974.000000	2.119038
5972.000000	2.123280
5970.000000	2.126716
5968.000000	2.130109
5966.000000	2.134905
5964.000000	2.140340
5962.000000	2.144211
5960.000000	2.147577
5958.000000	2.150805
5956.000000	2.154501
5954.000000	2.159910
5952.000000	2.166405
5950.000000	2.172228
5948.000000	2.177880
5946.000000	2.181974
5944.000000	2.185672
5942.000000	2.188974
5940.000000	2.192294
5938.000000	2.195320
5936.000000	2.198358
5934.000000	2.201992
5932.000000	2.206066
5930.000000	2.209913
5928.000000	2.213516
5926.000000	2.217608
5924.000000	2.223440
5922.000000	2.229250
5920.000000	2.233358
5918.000000	2.237943
5916.000000	2.241992
5914.000000	2.246669
5912.000000	2.252239
5910.000000	2.257544
5908.000000	2.263457
5906.000000	2.267855
5904.000000	2.270983
5902.000000	2.274410
5900.000000	2.277872
5898.000000	2.282176
5896.000000	2.286951
5894.000000	2.291776
5892.000000	2.297103
5890.000000	2.302199
5888.000000	2.307328
5886.000000	2.311710
5884.000000	2.315856
5882.000000	2.320169
5880.000000	2.325111
5878.000000	2.330160
5876.000000	2.333869
5874.000000	2.337011
5872.000000	2.340338
5870.000000	2.345367
5868.000000	2.351160
5866.000000	2.356540
5864.000000	2.361198
5862.000000	2.365441
5860.000000	2.370076
5858.000000	2.375528
5856.000000	2.380437
5854.000000	2.385541
5852.000000	2.390288
5850.000000	2.394399
5848.000000	2.399333
5846.000000	2.405433
5844.000000	2.411531
5842.000000	2.416487
5840.000000	2.418772
5838.000000	2.422258
5836.000000	2.427497
5834.000000	2.434863
5832.000000	2.441245
5830.000000	2.445663
5828.000000	2.450626
5826.000000	2.457846
5824.000000	2.464865
5822.000000	2.470144
5820.000000	2.473263
5818.000000	2.476939
5816.000000	2.482103
5814.000000	2.487257
5812.000000	2.492254
5810.000000	2.496257
5808.000000	2.499801
5806.000000	2.503252
5804.000000	2.507651
5802.000000	2.512749
5800.000000	2.518324
5798.000000	2.524082
5796.000000	2.528779
5794.000000	2.533021
5792.000000	2.537876
5790.000000	2.543812
5788.000000	2.551783
5786.000000	2.558183
5784.000000	2.562727
5782.000000	2.565584
5780.000000	2.570653
5778.000000	2.576822
5776.000000	2.581810
5774.000000	2.586322
5772.000000	2.590558
5770.000000	2.596071
5768.000000	2.601135
5766.000000	2.607070
5764.000000	2.614905
5762.000000	2.621694
5760.000000	2.626347
5758.000000	2.629056
5756.000000	2.631921
5754.000000	2.637800
5752.000000	2.645167
5750.000000	2.652212
5748.000000	2.656727
5746.000000	2.661318
5744.000000	2.666986
5742.000000	2.671440
5740.000000	2.676008
5738.000000	2.681924
5736.000000	2.689191
5734.000000	2.694449
5732.000000	2.697473
5730.000000	2.701013
5728.000000	2.705455
5726.000000	2.710789
5724.000000	2.716338
5722.000000	2.721004
5720.000000	2.725025
5718.000000	2.729142
5716.000000	2.734509
5714.000000	2.740133
5712.000000	2.746257
5710.000000	2.752443
5708.000000	2.757139
5706.000000	2.760758
5704.000000	2.765977
5702.000000	2.773098
5700.000000	2.780119
5698.000000	2.785819
5696.000000	2.790896
5694.000000	2.796444
5692.000000	2.801152
5690.000000	2.805929
5688.000000	2.811113
5686.000000	2.817101
5684.000000	2.823612
5682.000000	2.830029
5680.000000	2.834742
5678.000000	2.839327
5676.000000	2.845558
5674.000000	2.852502
5672.000000	2.859081
5670.000000	2.864076
5668.000000	2.869171
5666.000000	2.874390
5664.000000	2.879101
5662.000000	2.884356
5660.000000	2.891628
5658.000000	2.899625
5656.000000	2.905884
5654.000000	2.910646
5652.000000	2.915115
5650.000000	2.920803
5648.000000	2.925742
5646.000000	2.929591
5644.000000	2.935756
5642.000000	2.943030
5640.000000	2.949796
5638.000000	2.955755
5636.000000	2.960500
5634.000000	2.967050
5632.000000	2.972623
5630.000000	2.978839
5628.000000	2.985017
5626.000000	2.991114
5624.000000	2.996651
5622.000000	3.001153
5620.000000	3.005543
5618.000000	3.010352
5616.000000	3.015782
5614.000000	3.022556
5612.000000	3.028792
5610.000000	3.033512
5608.000000	3.037070
5606.000000	3.042614
5604.000000	3.049726
5602.000000	3.056837
5600.000000	3.061957
5598.000000	3.066563
5596.000000	3.070881
5594.000000	3.075434
5592.000000	3.081013
5590.000000	3.088144
5588.000000	3.094442
5586.000000	3.100500
5584.000000	3.105974
5582.000000	3.112236
5580.000000	3.119064
5578.000000	3.124912
5576.000000	3.130028
5574.000000	3.134748
5572.000000	3.140223
5570.000000	3.146967
5568.000000	3.154077
5566.000000	3.160947
5564.000000	3.166274
5562.000000	3.170034
5560.000000	3.174427
5558.000000	3.180198
5556.000000	3.187301
5554.000000	3.194370
5552.000000	3.201904
5550.000000	3.208589
5548.000000	3.213329
5546.000000	3.217759
5544.000000	3.222935
5542.000000	3.229439
5540.000000	3.236163
5538.000000	3.243250
5536.000000	3.250161
5534.000000	3.255989
5532.000000	3.260349
5530.000000	3.266605
5528.000000	3.274089
5526.000000	3.280827
5524.000000	3.285045
5522.000000	3.288659
5520.000000	3.294817
5518.000000	3.301502
5516.000000	3.307336
5514.000000	3.311682
5512.000000	3.318331
5510.000000	3.325915
5508.000000	3.332020
5506.000000	3.336861
5504.000000	3.342800
5502.000000	3.349941
5500.000000	3.355958
5498.000000	3.359904
5496.000000	3.364939
5494.000000	3.370367
5492.000000	3.377348
5490.000000	3.385264
5488.000000	3.392134
5486.000000	3.397033
5484.000000	3.400638
5482.000000	3.405893
5480.000000	3.413336
5478.000000	3.419900
5476.000000	3.426079
5474.000000	3.432153
5472.000000	3.438382
5470.000000	3.444576
5468.000000	3.450565
5466.000000	3.457455
5464.000000	3.463448
5462.000000	3.469169
5460.000000	3.475729
5458.000000	3.482806
5456.000000	3.489597
5454.000000	3.495128
5452.000000	3.501350
5450.000000	3.508097
5448.000000	3.513243
5446.000000	3.517278
5444.000000	3.521340
5442.000000	3.528635
5440.000000	3.536636
5438.000000	3.543592
5436.000000	3.550022
5434.000000	3.554762
5432.000000	3.558489
5430.000000	3.563497
5428.000000	3.571765
5426.000000	3.581564
5424.000000	3.589612
5422.000000	3.595435
5420.000000	3.599875
5418.000000	3.603718
5416.000000	3.608464
5414.000000	3.614040
5412.000000	3.620761
5410.000000	3.627747
5408.000000	3.634037
5406.000000	3.639347
5404.000000	3.644969
5402.000000	3.652304
5400.000000	3.659489
5398.000000	3.664331
5396.000000	3.667349
5394.000000	3.671198
5392.000000	3.678915
5390.000000	3.688966
5388.000000	3.697768
5386.000000	3.703710
5384.000000	3.709384
5382.000000	3.715150
5380.000000	3.720259
5378.000000	3.725463
5376.000000	3.733296
5374.000000	3.741216
5372.000000	3.747462
5370.000000	3.753451
5368.000000	3.760146
5366.000000	3.766688
5364.000000	3.771085
5362.000000	3.776060
5360.000000	3.782512
5358.000000	3.789524
5356.000000	3.795633
5354.000000	3.801340
5352.000000	3.808684
5350.000000	3.815414
5348.000000	3.819768
5346.000000	3.824834
5344.000000	3.832558
5342.000000	3.839588
5340.000000	3.843716
5338.000000	3.848575
5336.000000	3.856719
5334.000000	3.865225
5332.000000	3.871759
5330.000000	3.877148
5328.000000	3.881828
5326.000000	3.888081
5324.000000	3.895797
5322.000000	3.903241
5320.000000	3.908262
5318.000000	3.912790
5316.000000	3.918523
5314.000000	3.925769
5312.000000	3.932504
5310.000000	3.938446
5308.000000	3.944112
5306.000000	3.950718
5304.000000	3.957628
5302.000000	3.963877
5300.000000	3.970186
5298.000000	3.976280
5296.000000	3.981524
5294.000000	3.987077
5292.000000	3.993129
5290.000000	3.999419
5288.000000	4.004716
5286.000000	4.009817
5284.000000	4.015904
5282.000000	4.023034
5280.000000	4.030879
5278.000000	4.038524
5276.000000	4.045253
5274.000000	4.050115
5272.000000	4.055063
5270.000000	4.061552
5268.000000	4.068085
5266.000000	4.072923
5264.000000	4.077609
5262.000000	4.083799
5260.000000	4.090428
5258.000000	4.096075
5256.000000	4.101656
5254.000000	4.109573
5252.000000	4.117641
5250.000000	4.124634
5248.000000	4.128830
5246.000000	4.134189
5244.000000	4.141120
5242.000000	4.147814
5240.000000	4.153207
5238.000000	4.158480
5236.000000	4.164766
5234.000000	4.170004
5232.000000	4.174368
5230.000000	4.179441
5228.000000	4.185859
5226.000000	4.192000
5224.000000	4.197534
5222.000000	4.202603
5220.000000	4.209474
5218.000000	4.216633
5216.000000	4.222223
5214.000000	4.227280
5212.000000	4.232927
5210.000000	4.238564
5208.000000	4.242902
5206.000000	4.247415
5204.000000	4.253630
5202.000000	4.260707
5200.000000	4.267857
5198.000000	4.273271
5196.000000	4.278310
5194.000000	4.284589
5192.000000	4.291108
5190.000000	4.297467
5188.000000	4.303278
5186.000000	4.308376
5184.000000	4.312875
5182.000000	4.318373
5180.000000	4.325124
5178.000000	4.332051
5176.000000	4.339154
5174.000000	4.346372
5172.000000	4.353329
5170.000000	4.359139
5168.000000	4.363462
5166.000000	4.367077
5164.000000	4.371860
5162.000000	4.378656
5160.000000	4.385591
5158.000000	4.392012
5156.000000	4.398543
5154.000000	4.405807
5152.000000	4.412872
5150.000000	4.418169
5148.000000	4.423354
5146.000000	4.428811
5144.000000	4.433772
5142.000000	4.437753
5140.000000	4.443036
5138.000000	4.450427
5136.000000	4.456870
5134.000000	4.460994
5132.000000	4.465247
5130.000000	4.471807
5128.000000	4.478932
5126.000000	4.484621
5124.000000	4.489251
5122.000000	4.494309
5120.000000	4.500280
5118.000000	4.506793
5116.000000	4.512977
5114.000000	4.517941
5112.000000	4.523672
5110.000000	4.531007
5108.000000	4.538491
5106.000000	4.543636
5104.000000	4.547531
5102.000000	4.551129
5100.000000	4.557221
5098.000000	4.565282
5096.000000	4.572314
5094.000000	4.577570
5092.000000	4.583926
5090.000000	4.591582
5088.000000	4.597195
5086.000000	4.602224
5084.000000	4.608108
5082.000000	4.614237
5080.000000	4.619946
5078.000000	4.625911
5076.000000	4.631974
5074.000000	4.637809
5072.000000	4.644928
5070.000000	4.652294
5068.000000	4.657921
5066.000000	4.663521
5064.000000	4.670147
5062.000000	4.676883
5060.000000	4.682568
5058.000000	4.689320
5056.000000	4.696810
5054.000000	4.702889
5052.000000	4.707465
5050.000000	4.712614
5048.000000	4.719450
5046.000000	4.726224
5044.000000	4.731290
5042.000000	4.736203
5040.000000	4.742120
5038.000000	4.747602
5036.000000	4.751910
5034.000000	4.758419
5032.000000	4.767010
5030.000000	4.775172
5028.000000	4.782308
5026.000000	4.788463
5024.000000	4.793540
5022.000000	4.799160
5020.000000	4.806202
5018.000000	4.812326
5016.000000	4.817539
5014.000000	4.824993
5012.000000	4.833505
5010.000000	4.840269
5008.000000	4.844865
5006.000000	4.850708
5004.000000	4.858143
5002.000000	4.865302
5000.000000	4.870528
4998.000000	4.875871
4996.000000	4.883099
4994.000000	4.890936
4992.000000	4.898035
4990.000000	4.904035
4988.000000	4.910893
4986.000000	4.918497
4984.000000	4.926505
4982.000000	4.933610
4980.000000	4.939942
4978.000000	4.946122
4976.000000	4.952860
4974.000000	4.959286
4972.000000	4.965783
4970.000000	4.972856
4968.000000	4.979889
4966.000000	4.986435
4964.000000	4.993285
4962.000000	5.000942
4960.000000	5.008636
4958.000000	5.016941
4956.000000	5.025520
4954.000000	5.032265
4952.000000	5.037453
4950.000000	5.042482
4948.000000	5.048468
4946.000000	5.054279
4944.000000	5.061373
4942.000000	5.070770
4940.000000	5.079873
4938.000000	5.086084
4936.000000	5.090421
4934.000000	5.096994
4932.000000	5.105009
4930.000000	5.112571
4928.000000	5.118993
4926.000000	5.124872
4924.000000	5.131270
4922.000000	5.139390
4920.000000	5.148930
4918.000000	5.156897
4916.000000	5.162675
4914.000000	5.168951
4912.000000	5.176606
4910.000000	5.185511
4908.000000	5.194647
4906.000000	5.202211
4904.000000	5.207656
4902.000000	5.213131
4900.000000	5.219699
4898.000000	5.226809
4896.000000	5.235595
4894.000000	5.243362
4892.000000	5.249507
4890.000000	5.256119
4888.000000	5.263477
4886.000000	5.270680
4884.000000	5.278352
4882.000000	5.286024
4880.000000	5.292987
4878.000000	5.301155
4876.000000	5.309353
4874.000000	5.316534
4872.000000	5.324978
4870.000000	5.334358
4868.000000	5.342067
4866.000000	5.348512
4864.000000	5.355161
4862.000000	5.361346
4860.000000	5.368251
4858.000000	5.376764
4856.000000	5.385392
4854.000000	5.392665
4852.000000	5.399050
4850.000000	5.406080
4848.000000	5.413987
4846.000000	5.421450
4844.000000	5.427515
4842.000000	5.433345
4840.000000	5.440775
4838.000000	5.449918
4836.000000	5.459121
4834.000000	5.467138
4832.000000	5.473391
4830.000000	5.479424
4828.000000	5.486616
4826.000000	5.495604
4824.000000	5.504407
4822.000000	5.512340
4820.000000	5.520513
4818.000000	5.528626
4816.000000	5.535865
4814.000000	5.543501
4812.000000	5.552585
4810.000000	5.561693
4808.000000	5.569546
4806.000000	5.577272
4804.000000	5.585178
4802.000000	5.592822
4800.000000	5.602059
4798.000000	5.612522
4796.000000	5.621174
4794.000000	5.627394
4792.000000	5.635202
4790.000000	5.645354
4788.000000	5.654977
4786.000000	5.663618
4784.000000	5.673715
4782.000000	5.684654
4780.000000	5.693829
4778.000000	5.702099
4776.000000	5.711023
4774.000000	5.720299
4772.000000	5.729907
4770.000000	5.739941
4768.000000	5.749014
4766.000000	5.757003
4764.000000	5.765490
4762.000000	5.775278
4760.000000	5.784493
4758.000000	5.792929
4756.000000	5.801070
4754.000000	5.809856
4752.000000	5.818168
4750.000000	5.826837
4748.000000	5.835438
4746.000000	5.844367
4744.000000	5.853663
4742.000000	5.863258
4740.000000	5.872465
4738.000000	5.881230
4736.000000	5.890143
4734.000000	5.899419
4732.000000	5.908151
4730.000000	5.917308
4728.000000	5.927881
4726.000000	5.937798
4724.000000	5.945802
4722.000000	5.953667
4720.000000	5.961568
4718.000000	5.970266
4716.000000	5.980737
4714.000000	5.990471
4712.000000	5.998048
4710.000000	6.006109
4708.000000	6.016444
4706.000000	6.026737
4704.000000	6.034713
4702.000000	6.042017
4700.000000	6.052282
4698.000000	6.063185
4696.000000	6.071328
4694.000000	6.079187
4692.000000	6.089526
4690.000000	6.100112
4688.000000	6.109322
4686.000000	6.118417
4684.000000	6.127399
4682.000000	6.135752
4680.000000	6.143116
4678.000000	6.151748
4676.000000	6.162320
4674.000000	6.173666
4672.000000	6.182686
4670.000000	6.190930
4668.000000	6.199914
4666.000000	6.209713
4664.000000	6.218457
4662.000000	6.227358
4660.000000	6.235847
4658.000000	6.242920
4656.000000	6.250161
4654.000000	6.259476
4652.000000	6.267687
4650.000000	6.274163
4648.000000	6.281973
4646.000000	6.291038
4644.000000	6.300043
4642.000000	6.308577
4640.000000	6.316175
4638.000000	6.325017
4636.000000	6.334917
4634.000000	6.343216
4632.000000	6.350345
4630.000000	6.358849
4628.000000	6.366926
4626.000000	6.375295
4624.000000	6.384630
4622.000000	6.393654
4620.000000	6.401749
4618.000000	6.409185
4616.000000	6.416526
4614.000000	6.425264
4612.000000	6.434483
4610.000000	6.443022
4608.000000	6.451296
4606.000000	6.459250
4604.000000	6.466869
4602.000000	6.476967
4600.000000	6.487807
4598.000000	6.497148
4596.000000	6.504876
4594.000000	6.512509
4592.000000	6.520390
4590.000000	6.529294
4588.000000	6.539224
4586.000000	6.549957
4584.000000	6.559652
4582.000000	6.567358
4580.000000	6.575530
4578.000000	6.584588
4576.000000	6.592692
4574.000000	6.600480
4572.000000	6.609410
4570.000000	6.618045
4568.000000	6.625545
4566.000000	6.633586
4564.000000	6.642122
4562.000000	6.649320
4560.000000	6.656189
4558.000000	6.664865
4556.000000	6.674927
4554.000000	6.684829
4552.000000	6.693141
4550.000000	6.700636
4548.000000	6.708070
4546.000000	6.714992
4544.000000	6.722474
4542.000000	6.732214
4540.000000	6.741334
4538.000000	6.749167
4536.000000	6.757532
4534.000000	6.765515
4532.000000	6.772435
4530.000000	6.780193
4528.000000	6.787746
4526.000000	6.794618
4524.000000	6.803905
4522.000000	6.814490
4520.000000	6.822468
4518.000000	6.830172
4516.000000	6.839806
4514.000000	6.848624
4512.000000	6.854888
4510.000000	6.861540
4508.000000	6.871331
4506.000000	6.882277
4504.000000	6.892337
4502.000000	6.902125
4500.000000	6.910461
4498.000000	6.916458
4496.000000	6.923759
4494.000000	6.933643
4492.000000	6.942837
4490.000000	6.950577
4488.000000	6.958690
4486.000000	6.967075
4484.000000	6.975238
4482.000000	6.984048
4480.000000	6.993909
4478.000000	7.003839
4476.000000	7.012308
4474.000000	7.019093
4472.000000	7.026345
4470.000000	7.034675
4468.000000	7.042462
4466.000000	7.050030
4464.000000	7.058548
4462.000000	7.066637
4460.000000	7.073288
4458.000000	7.080074
4456.000000	7.087472
4454.000000	7.096041
4452.000000	7.105984
4450.000000	7.115705
4448.000000	7.123687
4446.000000	7.130542
4444.000000	7.137905
4442.000000	7.146866
4440.000000	7.156130
4438.000000	7.163035
4436.000000	7.168444
4434.000000	7.175520
4432.000000	7.184085
4430.000000	7.191865
4428.000000	7.199405
4426.000000	7.207340
4424.000000	7.215524
4422.000000	7.224580
4420.000000	7.234086
4418.000000	7.243283
4416.000000	7.252410
4414.000000	7.260783
4412.000000	7.267556
4410.000000	7.274068
4408.000000	7.281962
4406.000000	7.290484
4404.000000	7.298877
4402.000000	7.306746
4400.000000	7.313922
4398.000000	7.320825
4396.000000	7.328941
4394.000000	7.338512
4392.000000	7.347957
4390.000000	7.355618
4388.000000	7.362595
4386.000000	7.370720
4384.000000	7.378664
4382.000000	7.385045
4380.000000	7.391850
4378.000000	7.400159
4376.000000	7.408337
4374.000000	7.414923
4372.000000	7.420681
4370.000000	7.427051
4368.000000	7.434682
4366.000000	7.442770
4364.000000	7.449596
4362.000000	7.456408
4360.000000	7.464373
4358.000000	7.472072
4356.000000	7.477856
4354.000000	7.484094
4352.000000	7.492643
4350.000000	7.501604
4348.000000	7.508886
4346.000000	7.516063
4344.000000	7.524476
4342.000000	7.533974
4340.000000	7.542849
4338.000000	7.550666
4336.000000	7.558336
4334.000000	7.565974
4332.000000	7.573504
4330.000000	7.580686
4328.000000	7.586613
4326.000000	7.592240
4324.000000	7.598895
4322.000000	7.607131
4320.000000	7.616072
4318.000000	7.625185
4316.000000	7.633982
4314.000000	7.642229
4312.000000	7.650275
4310.000000	7.658273
4308.000000	7.666126
4306.000000	7.673966
4304.000000	7.681888
4302.000000	7.690132
4300.000000	7.698457
4298.000000	7.706202
4296.000000	7.714489
4294.000000	7.722397
4292.000000	7.728773
4290.000000	7.736126
4288.000000	7.743722
4286.000000	7.749520
4284.000000	7.756693
4282.000000	7.765915
4280.000000	7.774212
4278.000000	7.780806
4276.000000	7.787673
4274.000000	7.795722
4272.000000	7.803121
4270.000000	7.809662
4268.000000	7.816000
4266.000000	7.821862
4264.000000	7.827576
4262.000000	7.834580
4260.000000	7.843351
4258.000000	7.852259
4256.000000	7.858677
4254.000000	7.864728
4252.000000	7.872307
4250.000000	7.880619
4248.000000	7.888831
4246.000000	7.896779
4244.000000	7.903159
4242.000000	7.910326
4240.000000	7.919888
4238.000000	7.929726
4236.000000	7.938166
4234.000000	7.945268
4232.000000	7.951768
4230.000000	7.959664
4228.000000	7.967488
4226.000000	7.974532
4224.000000	7.982913
4222.000000	7.991670
4220.000000	7.999347
4218.000000	8.007274
4216.000000	8.015095
4214.000000	8.022647
4212.000000	8.030719
4210.000000	8.039566
4208.000000	8.048712
4206.000000	8.057443
4204.000000	8.066237
4202.000000	8.076449
4200.000000	8.086830
4198.000000	8.096128
4196.000000	8.105028
4194.000000	8.114074
4192.000000	8.122672
4190.000000	8.130374
4188.000000	8.138104
4186.000000	8.147456
4184.000000	8.157915
4182.000000	8.166855
4180.000000	8.173720
4178.000000	8.181296
4176.000000	8.189592
4174.000000	8.196890
4172.000000	8.204448
4170.000000	8.213071
4168.000000	8.221140
4166.000000	8.228917
4164.000000	8.237549
4162.000000	8.246572
4160.000000	8.254726
4158.000000	8.262274
4156.000000	8.271048
4154.000000	8.280632
4152.000000	8.289723
4150.000000	8.298564
4148.000000	8.306989
4146.000000	8.314507
4144.000000	8.321227
4142.000000	8.328216
4140.000000	8.336507
4138.000000	8.346991
4136.000000	8.358220
4134.000000	8.366886
4132.000000	8.375115
4130.000000	8.384573
4128.000000	8.392427
4126.000000	8.399948
4124.000000	8.408223
4122.000000	8.416504
4120.000000	8.424509
4118.000000	8.433058
4116.000000	8.442156
4114.000000	8.450569
4112.000000	8.458700
4110.000000	8.467585
4108.000000	8.476098
4106.000000	8.485085
4104.000000	8.494440
4102.000000	8.502865
4100.000000	8.510704
4098.000000	8.519344
4096.000000	8.528232
4094.000000	8.537247
4092.000000	8.546682
4090.000000	8.555282
4088.000000	8.562521
4086.000000	8.571100
4084.000000	8.581776
4082.000000	8.590933
4080.000000	8.597054
4078.000000	8.604091
4076.000000	8.613519
4074.000000	8.622243
4072.000000	8.629511
4070.000000	8.637541
4068.000000	8.646762
4066.000000	8.656036
4064.000000	8.664420
4062.000000	8.672036
4060.000000	8.680041
4058.000000	8.688327
4056.000000	8.696262
4054.000000	8.703886
4052.000000	8.711619
4050.000000	8.720802
4048.000000	8.731505
4046.000000	8.741835
4044.000000	8.750281
4042.000000	8.758033
4040.000000	8.767522
4038.000000	8.777091
4036.000000	8.784462
4034.000000	8.791419
4032.000000	8.799275
4030.000000	8.808646
4028.000000	8.819386
4026.000000	8.829195
4024.000000	8.837936
4022.000000	8.846598
4020.000000	8.854990
4018.000000	8.863151
4016.000000	8.871534
4014.000000	8.881603
4012.000000	8.892248
4010.000000	8.901004
4008.000000	8.909655
4006.000000	8.920569
4004.000000	8.931150
4002.000000	8.939270
4000.000000	8.947170
3998.000000	8.957049
3996.000000	8.967219
3994.000000	8.976146
3992.000000	8.983807
3990.000000	8.991307
3988.000000	9.000651
3986.000000	9.010782
3984.000000	9.019430
3982.000000	9.028268
3980.000000	9.037321
3978.000000	9.045199
3976.000000	9.052544
3974.000000	9.059975
3972.000000	9.068811
3970.000000	9.080184
3968.000000	9.090490
3966.000000	9.097408
3964.000000	9.103840
3962.000000	9.112301
3960.000000	9.121131
3958.000000	9.129832
3956.000000	9.138233
3954.000000	9.145507
3952.000000	9.152121
3950.000000	9.159100
3948.000000	9.169239
3946.000000	9.179477
3944.000000	9.186277
3942.000000	9.195902
3940.000000	9.208177
3938.000000	9.218989
3936.000000	9.226265
3934.000000	9.230133
3932.000000	9.237442
3930.000000	9.250307
3928.000000	9.261138
3926.000000	9.268284
3924.000000	9.277100
3922.000000	9.286184
3920.000000	9.292718
3918.000000	9.302320
3916.000000	9.319283
3914.000000	9.337997
3912.000000	9.351456
3910.000000	9.358372
3908.000000	9.356355
3906.000000	9.345921
3904.000000	9.340305
3902.000000	9.350059
3900.000000	9.372380
3898.000000	9.400374
3896.000000	9.420116
3894.000000	9.420389
3892.000000	9.419465
3890.000000	9.431439
3888.000000	9.433555
3886.000000	9.433084
3884.000000	9.449588
3882.000000	9.464858
3880.000000	9.480557
3878.000000	9.498810
3876.000000	9.504310
3874.000000	9.499211
3872.000000	9.486679
3870.000000	9.488127
3868.000000	9.511114
3866.000000	9.528504
3864.000000	9.544169
3862.000000	9.567397
3860.000000	9.583598
3858.000000	9.564649
3856.000000	9.499379
3854.000000	9.466311
3852.000000	9.526388
3850.000000	9.610400
3848.000000	9.650745
3846.000000	9.657215
3844.000000	9.654311
3842.000000	9.644593
3840.000000	9.622180
3838.000000	9.618585
3836.000000	9.652387
3834.000000	9.688086
3832.000000	9.710674
3830.000000	9.729950
3828.000000	9.743739
3826.000000	9.750299
3824.000000	9.739902
3822.000000	9.727753
3820.000000	9.736368
3818.000000	9.740202
3816.000000	9.754085
3814.000000	9.801615
3812.000000	9.837872
3810.000000	9.834100
3808.000000	9.819264
3806.000000	9.825033
3804.000000	9.820812
3802.000000	9.813790
3800.000000	9.846993
3798.000000	9.884398
3796.000000	9.904656
3794.000000	9.926686
3792.000000	9.945589
3790.000000	9.956789
3788.000000	9.964106
3786.000000	9.969326
3784.000000	9.974600
3782.000000	9.978681
3780.000000	9.983997
3778.000000	9.999150
3776.000000	10.016829
3774.000000	10.023873
3772.000000	10.020649
3770.000000	10.023016
3768.000000	10.035560
3766.000000	10.050514
3764.000000	10.065833
3762.000000	10.072150
3760.000000	10.072528
3758.000000	10.080480
3756.000000	10.075988
3754.000000	10.036989
3752.000000	10.001940
3750.000000	10.017222
3748.000000	10.038821
3746.000000	10.022003
3744.000000	10.044719
3742.000000	10.118089
3740.000000	10.147579
3738.000000	10.128450
3736.000000	10.117729
3734.000000	10.131394
3732.000000	10.160716
3730.000000	10.191585
3728.000000	10.203413
3726.000000	10.208457
3724.000000	10.217755
3722.000000	10.228408
3720.000000	10.240538
3718.000000	10.250466
3716.000000	10.245227
3714.000000	10.219497
3712.000000	10.207902
3710.000000	10.229959
3708.000000	10.261196
3706.000000	10.278334
3704.000000	10.275893
3702.000000	10.273189
3700.000000	10.283927
3698.000000	10.294026
3696.000000	10.294538
3694.000000	10.281430
3692.000000	10.248940
3690.000000	10.216838
3688.000000	10.229744
3686.000000	10.275312
3684.000000	10.297109
3682.000000	10.290506
3680.000000	10.267378
3678.000000	10.221233
3676.000000	10.190529
3674.000000	10.200772
3672.000000	10.200313
3670.000000	10.202462
3668.000000	10.235859
3666.000000	10.260731
3664.000000	10.262009
3662.000000	10.253967
3660.000000	10.237141
3658.000000	10.209799
3656.000000	10.196451
3654.000000	10.188729
3652.000000	10.148016
3650.000000	10.108825
3648.000000	10.119299
3646.000000	10.152918
3644.000000	10.169640
3642.000000	10.167766
3640.000000	10.159750
3638.000000	10.149329
3636.000000	10.134032
3634.000000	10.112569
3632.000000	10.071471
3630.000000	10.028322
3628.000000	10.034543
3626.000000	10.065488
3624.000000	10.067871
3622.000000	10.040864
3620.000000	10.013352
3618.000000	10.006076
3616.000000	10.001440
3614.000000	9.984163
3612.000000	9.963911
3610.000000	9.948124
3608.000000	9.943399
3606.000000	9.945731
3604.000000	9.938892
3602.000000	9.920432
3600.000000	9.901258
3598.000000	9.883822
3596.000000	9.865354
3594.000000	9.852371
3592.000000	9.837434
3590.000000	9.807557
3588.000000	9.782075
3586.000000	9.778258
3584.000000	9.777970
3582.000000	9.768148
3580.000000	9.755721
3578.000000	9.744536
3576.000000	9.732542
3574.000000	9.719445
3572.000000	9.701597
3570.000000	9.674605
3568.000000	9.651791
3566.000000	9.647277
3564.000000	9.648463
3562.000000	9.643042
3560.000000	9.635863
3558.000000	9.629265
3556.000000	9.619228
3554.000000	9.606020
3552.000000	9.594793
3550.000000	9.587081
3548.000000	9.578147
3546.000000	9.569216
3544.000000	9.563983
3542.000000	9.560628
3540.000000	9.554608
3538.000000	9.545284
3536.000000	9.538277
3534.000000	9.533296
3532.000000	9.525848
3530.000000	9.516132
3528.000000	9.506283
3526.000000	9.497703
3524.000000	9.490829
3522.000000	9.485661
3520.000000	9.479787
3518.000000	9.472806
3516.000000	9.466511
3514.000000	9.459223
3512.000000	9.450519
3510.000000	9.441653
3508.000000	9.432162
3506.000000	9.421616
3504.000000	9.411313
3502.000000	9.402818
3500.000000	9.393364
3498.000000	9.381754
3496.000000	9.371314
3494.000000	9.362207
3492.000000	9.351834
3490.000000	9.340444
3488.000000	9.330870
3486.000000	9.321855
3484.000000	9.311495
3482.000000	9.301964
3480.000000	9.293977
3478.000000	9.287209
3476.000000	9.281179
3474.000000	9.276375
3472.000000	9.271118
3470.000000	9.265016
3468.000000	9.261100
3466.000000	9.258802
3464.000000	9.255839
3462.000000	9.254886
3460.000000	9.253938
3458.000000	9.250538
3456.000000	9.247353
3454.000000	9.244007
3452.000000	9.241182
3450.000000	9.237721
3448.000000	9.232105
3446.000000	9.227311
3444.000000	9.225294
3442.000000	9.227457
3440.000000	9.231354
3438.000000	9.234941
3436.000000	9.240397
3434.000000	9.250454
3432.000000	9.263202
3430.000000	9.275920
3428.000000	9.288292
3426.000000	9.299787
3424.000000	9.309275
3422.000000	9.317261
3420.000000	9.326513
3418.000000	9.336222
3416.000000	9.344201
3414.000000	9.351117
3412.000000	9.357045
3410.000000	9.361882
3408.000000	9.365102
3406.000000	9.367736
3404.000000	9.373023
3402.000000	9.378493
3400.000000	9.382724
3398.000000	9.388353
3396.000000	9.394744
3394.000000	9.401152
3392.000000	9.408337
3390.000000	9.415974
3388.000000	9.422955
3386.000000	9.429576
3384.000000	9.434559
3382.000000	9.438958
3380.000000	9.444604
3378.000000	9.449741
3376.000000	9.453484
3374.000000	9.457529
3372.000000	9.461485
3370.000000	9.464388
3368.000000	9.467345
3366.000000	9.472594
3364.000000	9.477916
3362.000000	9.480362
3360.000000	9.483340
3358.000000	9.488477
3356.000000	9.493056
3354.000000	9.497490
3352.000000	9.501221
3350.000000	9.503888
3348.000000	9.506960
3346.000000	9.511382
3344.000000	9.516463
3342.000000	9.521422
3340.000000	9.525466
3338.000000	9.529006
3336.000000	9.532405
3334.000000	9.536682
3332.000000	9.542134
3330.000000	9.546856
3328.000000	9.551992
3326.000000	9.556826
3324.000000	9.559293
3322.000000	9.562505
3320.000000	9.565882
3318.000000	9.569153
3316.000000	9.572753
3314.000000	9.575225
3312.000000	9.577630
3310.000000	9.580074
3308.000000	9.581086
3306.000000	9.584237
3304.000000	9.588498
3302.000000	9.591480
3300.000000	9.595072
3298.000000	9.598220
3296.000000	9.599595
3294.000000	9.601113
3292.000000	9.604727
3290.000000	9.609177
3288.000000	9.612469
3286.000000	9.616709
3284.000000	9.622905
3282.000000	9.627404
3280.000000	9.628197
3278.000000	9.628774
3276.000000	9.631684
3274.000000	9.637072
3272.000000	9.642458
3270.000000	9.646757
3268.000000	9.650481
3266.000000	9.653470
3264.000000	9.657541
3262.000000	9.661925
3260.000000	9.665149
3258.000000	9.669343
3256.000000	9.674872
3254.000000	9.679063
3252.000000	9.682500
3250.000000	9.686137
3248.000000	9.690214
3246.000000	9.694181
3244.000000	9.698266
3242.000000	9.702477
3240.000000	9.707110
3238.000000	9.713184
3236.000000	9.717878
3234.000000	9.720412
3232.000000	9.724603
3230.000000	9.730444
3228.000000	9.736574
3226.000000	9.742378
3224.000000	9.745816
3222.000000	9.749754
3220.000000	9.755206
3218.000000	9.759795
3216.000000	9.763493
3214.000000	9.767862
3212.000000	9.772530
3210.000000	9.776908
3208.000000	9.783021
3206.000000	9.789606
3204.000000	9.795325
3202.000000	9.803813
3200.000000	9.813918
3198.000000	9.821899
3196.000000	9.828562
3194.000000	9.836247
3192.000000	9.843902
3190.000000	9.851209
3188.000000	9.859189
3186.000000	9.867383
3184.000000	9.874492
3182.000000	9.882373
3180.000000	9.890189
3178.000000	9.897599
3176.000000	9.905390
3174.000000	9.912817
3172.000000	9.920015
3170.000000	9.927608
3168.000000	9.934921
3166.000000	9.943452
3164.000000	9.952908
3162.000000	9.960731
3160.000000	9.968052
3158.000000	9.975721
3156.000000	9.985627
3154.000000	9.995917
3152.000000	10.003858
3150.000000	10.011890
3148.000000	10.020206
3146.000000	10.027159
3144.000000	10.034593
3142.000000	10.043539
3140.000000	10.051536
3138.000000	10.058701
3136.000000	10.065930
3134.000000	10.073786
3132.000000	10.082591
3130.000000	10.089639
3128.000000	10.095254
3126.000000	10.100099
3124.000000	10.105447
3122.000000	10.111936
3120.000000	10.119035
3118.000000	10.125300
3116.000000	10.129319
3114.000000	10.133956
3112.000000	10.139373
3110.000000	10.143966
3108.000000	10.149469
3106.000000	10.156156
3104.000000	10.161579
3102.000000	10.167382
3100.000000	10.175012
3098.000000	10.182338
3096.000000	10.189717
3094.000000	10.197560
3092.000000	10.205390
3090.000000	10.212243
3088.000000	10.216918
3086.000000	10.219776
3084.000000	10.223649
3082.000000	10.228830
3080.000000	10.233041
3078.000000	10.237206
3076.000000	10.240803
3074.000000	10.243963
3072.000000	10.246500
3070.000000	10.246442
3068.000000	10.246195
3066.000000	10.248139
3064.000000	10.252678
3062.000000	10.258035
3060.000000	10.262590
3058.000000	10.268320
3056.000000	10.276042
3054.000000	10.283085
3052.000000	10.288578
3050.000000	10.293582
3048.000000	10.299768
3046.000000	10.305304
3044.000000	10.309946
3042.000000	10.312523
3040.000000	10.313607
3038.000000	10.315782
3036.000000	10.317760
3034.000000	10.317419
3032.000000	10.315395
3030.000000	10.311865
3028.000000	10.303505
3026.000000	10.290901
3024.000000	10.275982
3022.000000	10.262324
3020.000000	10.256447
3018.000000	10.262324
3016.000000	10.280818
3014.000000	10.309517
3012.000000	10.342537
3010.000000	10.371975
3008.000000	10.395218
3006.000000	10.412044
3004.000000	10.422834
3002.000000	10.432137
3000.000000	10.439790
2998.000000	10.443637
2996.000000	10.446433
2994.000000	10.451068
2992.000000	10.454947
2990.000000	10.455587
2988.000000	10.453779
2986.000000	10.448334
2984.000000	10.441089
2982.000000	10.432860
2980.000000	10.417980
2978.000000	10.396799
2976.000000	10.369010
2974.000000	10.330087
2972.000000	10.280061
2970.000000	10.220196
2968.000000	10.157179
2966.000000	10.102264
2964.000000	10.064714
2962.000000	10.050214
2960.000000	10.057769
2958.000000	10.080568
2956.000000	10.109714
2954.000000	10.137090
2952.000000	10.157488
2950.000000	10.167948
2948.000000	10.166284
2946.000000	10.149553
2944.000000	10.116979
2942.000000	10.070621
2940.000000	10.015959
2938.000000	9.959053
2936.000000	9.907903
2934.000000	9.864222
2932.000000	9.821375
2930.000000	9.779268
2928.000000	9.745555
2926.000000	9.732764
2924.000000	9.752928
2922.000000	9.807723
2920.000000	9.889997
2918.000000	9.986302
2916.000000	10.085444
2914.000000	10.177832
2912.000000	10.254517
2910.000000	10.314847
2908.000000	10.364003
2906.000000	10.405847
2904.000000	10.440440
2902.000000	10.473400
2900.000000	10.507027
2898.000000	10.537764
2896.000000	10.565750
2894.000000	10.592962
2892.000000	10.620132
2890.000000	10.644653
2888.000000	10.666365
2886.000000	10.684216
2884.000000	10.694962
2882.000000	10.700834
2880.000000	10.702741
2878.000000	10.697981
2876.000000	10.687680
2874.000000	10.671972
2872.000000	10.645535
2870.000000	10.604254
2868.000000	10.550560
2866.000000	10.488605
2864.000000	10.430576
2862.000000	10.394148
2860.000000	10.390773
2858.000000	10.416256
2856.000000	10.456310
2854.000000	10.501063
2852.000000	10.551310
2850.000000	10.612290
2848.000000	10.685064
2846.000000	10.758177
2844.000000	10.820599
2842.000000	10.871210
2840.000000	10.910109
2838.000000	10.940979
2836.000000	10.969391
2834.000000	10.992570
2832.000000	11.011119
2830.000000	11.027186
2828.000000	11.042452
2826.000000	11.057103
2824.000000	11.071618
2822.000000	11.085615
2820.000000	11.096748
2818.000000	11.104964
2816.000000	11.114443
2814.000000	11.124828
2812.000000	11.133679
2810.000000	11.141781
2808.000000	11.148843
2806.000000	11.154990
2804.000000	11.160716
2802.000000	11.166911
2800.000000	11.173941
2798.000000	11.179595
2796.000000	11.184884
2794.000000	11.191465
2792.000000	11.199246
2790.000000	11.207950
2788.000000	11.217189
2786.000000	11.226958
2784.000000	11.237499
2782.000000	11.247241
2780.000000	11.256639
2778.000000	11.264687
2776.000000	11.271420
2774.000000	11.278723
2772.000000	11.287130
2770.000000	11.294560
2768.000000	11.300667
2766.000000	11.306330
2764.000000	11.311542
2762.000000	11.317500
2760.000000	11.323044
2758.000000	11.327992
2756.000000	11.334852
2754.000000	11.340312
2752.000000	11.342929
2750.000000	11.345757
2748.000000	11.351888
2746.000000	11.357407
2744.000000	11.358992
2742.000000	11.362277
2740.000000	11.366729
2738.000000	11.369672
2736.000000	11.373203
2734.000000	11.376358
2732.000000	11.378576
2730.000000	11.381206
2728.000000	11.385352
2726.000000	11.389293
2724.000000	11.391407
2722.000000	11.393859
2720.000000	11.398091
2718.000000	11.401032
2716.000000	11.403189
2714.000000	11.405638
2712.000000	11.406576
2710.000000	11.406332
2708.000000	11.406612
2706.000000	11.408047
2704.000000	11.411340
2702.000000	11.414628
2700.000000	11.417886
2698.000000	11.421893
2696.000000	11.425456
2694.000000	11.429826
2692.000000	11.435149
2690.000000	11.438234
2688.000000	11.439503
2686.000000	11.440960
2684.000000	11.442532
2682.000000	11.444880
2680.000000	11.448268
2678.000000	11.450335
2676.000000	11.452984
2674.000000	11.454976
2672.000000	11.454533
2670.000000	11.455792
2668.000000	11.459913
2666.000000	11.461338
2664.000000	11.461602
2662.000000	11.462655
2660.000000	11.462534
2658.000000	11.462179
2656.000000	11.462743
2654.000000	11.465165
2652.000000	11.468420
2650.000000	11.469744
2648.000000	11.471360
2646.000000	11.474108
2644.000000	11.475851
2642.000000	11.477184
2640.000000	11.480039
2638.000000	11.481434
2636.000000	11.481586
2634.000000	11.482609
2632.000000	11.483714
2630.000000	11.485048
2628.000000	11.486851
2626.000000	11.488604
2624.000000	11.489404
2622.000000	11.487617
2620.000000	11.487311
2618.000000	11.489685
2616.000000	11.491679
2614.000000	11.492466
2612.000000	11.492094
2610.000000	11.491718
2608.000000	11.492485
2606.000000	11.492105
2604.000000	11.491559
2602.000000	11.491521
2600.000000	11.490251
2598.000000	11.489355
2596.000000	11.489768
2594.000000	11.489755
2592.000000	11.490785
2590.000000	11.493644
2588.000000	11.496844
2586.000000	11.499429
2584.000000	11.502467
2582.000000	11.506779
2580.000000	11.511751
2578.000000	11.516562
2576.000000	11.520448
2574.000000	11.524275
2572.000000	11.527054
2570.000000	11.528276
2568.000000	11.529320
2566.000000	11.531867
2564.000000	11.536596
2562.000000	11.540269
2560.000000	11.539578
2558.000000	11.539026
2556.000000	11.540185
2554.000000	11.542083
2552.000000	11.543740
2550.000000	11.543972
2548.000000	11.545851
2546.000000	11.547496
2544.000000	11.545909
2542.000000	11.546081
2540.000000	11.549114
2538.000000	11.551255
2536.000000	11.552453
2534.000000	11.555068
2532.000000	11.557508
2530.000000	11.557424
2528.000000	11.557988
2526.000000	11.558022
2524.000000	11.555686
2522.000000	11.556537
2520.000000	11.559846
2518.000000	11.560674
2516.000000	11.560777
2514.000000	11.560917
2512.000000	11.561634
2510.000000	11.564292
2508.000000	11.566338
2506.000000	11.566882
2504.000000	11.567924
2502.000000	11.567051
2500.000000	11.566047
2498.000000	11.568509
2496.000000	11.572229
2494.000000	11.573955
2492.000000	11.573841
2490.000000	11.572900
2488.000000	11.573675
2486.000000	11.575300
2484.000000	11.576409
2482.000000	11.577435
2480.000000	11.579292
2478.000000	11.581304
2476.000000	11.582538
2474.000000	11.582227
2472.000000	11.583028
2470.000000	11.584686
2468.000000	11.584632
2466.000000	11.584149
2464.000000	11.584398
2462.000000	11.584196
2460.000000	11.584269
2458.000000	11.584161
2456.000000	11.583668
2454.000000	11.583483
2452.000000	11.584207
2450.000000	11.583425
2448.000000	11.581430
2446.000000	11.580592
2444.000000	11.579510
2442.000000	11.577231
2440.000000	11.574345
2438.000000	11.571179
2436.000000	11.568115
2434.000000	11.563996
2432.000000	11.559156
2430.000000	11.552018
2428.000000	11.544038
2426.000000	11.536800
2424.000000	11.531619
2422.000000	11.528418
2420.000000	11.525121
2418.000000	11.521293
2416.000000	11.520816
2414.000000	11.524327
2412.000000	11.528228
2410.000000	11.533013
2408.000000	11.540556
2406.000000	11.547616
2404.000000	11.553988
2402.000000	11.560984
2400.000000	11.567710
2398.000000	11.572421
2396.000000	11.575016
2394.000000	11.577986
2392.000000	11.580091
2390.000000	11.581631
2388.000000	11.585136
2386.000000	11.586722
2384.000000	11.586029
2382.000000	11.582698
2380.000000	11.576060
2378.000000	11.566591
2376.000000	11.553666
2374.000000	11.535691
2372.000000	11.513949
2370.000000	11.491183
2368.000000	11.469173
2366.000000	11.450204
2364.000000	11.438807
2362.000000	11.434715
2360.000000	11.437993
2358.000000	11.450426
2356.000000	11.473128
2354.000000	11.502785
2352.000000	11.534099
2350.000000	11.553243
2348.000000	11.546562
2346.000000	11.523087
2344.000000	11.498441
2342.000000	11.477859
2340.000000	11.465649
2338.000000	11.462426
2336.000000	11.463627
2334.000000	11.466427
2332.000000	11.472412
2330.000000	11.481203
2328.000000	11.490387
2326.000000	11.499341
2324.000000	11.508217
2322.000000	11.517397
2320.000000	11.526836
2318.000000	11.534896
2316.000000	11.542160
2314.000000	11.549071
2312.000000	11.553956
2310.000000	11.556943
2308.000000	11.558780
2306.000000	11.560826
2304.000000	11.562965
2302.000000	11.564073
2300.000000	11.564874
2298.000000	11.564056
2296.000000	11.563571
2294.000000	11.563988
2292.000000	11.565281
2290.000000	11.567020
2288.000000	11.567573
2286.000000	11.565906
2284.000000	11.566351
2282.000000	11.567678
2280.000000	11.564452
2278.000000	11.560622
2276.000000	11.559673
2274.000000	11.559534
2272.000000	11.558374
2270.000000	11.555474
2268.000000	11.553212
2266.000000	11.552699
2264.000000	11.552155
2262.000000	11.550241
2260.000000	11.548651
2258.000000	11.547327
2256.000000	11.547310
2254.000000	11.546804
2252.000000	11.547152
2250.000000	11.547309
2248.000000	11.546905
2246.000000	11.546782
2244.000000	11.547936
2242.000000	11.550183
2240.000000	11.551213
2238.000000	11.551084
2236.000000	11.551587
2234.000000	11.552079
2232.000000	11.553189
2230.000000	11.554791
2228.000000	11.556332
2226.000000	11.556536
2224.000000	11.556222
2222.000000	11.556967
2220.000000	11.558473
2218.000000	11.558616
2216.000000	11.558640
2214.000000	11.559020
2212.000000	11.559579
2210.000000	11.560543
2208.000000	11.562387
2206.000000	11.563506
2204.000000	11.563802
2202.000000	11.564628
2200.000000	11.565467
2198.000000	11.565207
2196.000000	11.566019
2194.000000	11.568447
2192.000000	11.569283
2190.000000	11.567550
2188.000000	11.567889
2186.000000	11.569774
2184.000000	11.570760
2182.000000	11.570528
2180.000000	11.570789
2178.000000	11.572391
2176.000000	11.572755
2174.000000	11.572301
2172.000000	11.570812
2170.000000	11.568897
2168.000000	11.572403
2166.000000	11.576160
2164.000000	11.578854
2162.000000	11.581584
2160.000000	11.581926
2158.000000	11.581165
2156.000000	11.581899
2154.000000	11.584235
2152.000000	11.585752
2150.000000	11.586625
2148.000000	11.587641
2146.000000	11.589459
2144.000000	11.592196
2142.000000	11.594133
2140.000000	11.595190
2138.000000	11.597460
2136.000000	11.600023
2134.000000	11.601121
2132.000000	11.603079
2130.000000	11.605848
2128.000000	11.608746
2126.000000	11.609793
2124.000000	11.610805
2122.000000	11.612477
2120.000000	11.614842
2118.000000	11.616092
2116.000000	11.617678
2114.000000	11.622015
2112.000000	11.627343
2110.000000	11.631535
2108.000000	11.634902
2106.000000	11.638421
2104.000000	11.641609
2102.000000	11.645705
2100.000000	11.651383
2098.000000	11.655495
2096.000000	11.658161
2094.000000	11.662567
2092.000000	11.666886
2090.000000	11.670357
2088.000000	11.675112
2086.000000	11.680899
2084.000000	11.686266
2082.000000	11.688961
2080.000000	11.692762
2078.000000	11.698891
2076.000000	11.704580
2074.000000	11.708522
2072.000000	11.713654
2070.000000	11.719712
2068.000000	11.724948
2066.000000	11.728586
2064.000000	11.733861
2062.000000	11.739194
2060.000000	11.744737
2058.000000	11.751031
2056.000000	11.757017
2054.000000	11.761744
2052.000000	11.768140
2050.000000	11.773482
2048.000000	11.776708
2046.000000	11.781556
2044.000000	11.787211
2042.000000	11.791772
2040.000000	11.797028
2038.000000	11.801305
2036.000000	11.804751
2034.000000	11.808887
2032.000000	11.812903
2030.000000	11.813587
2028.000000	11.816601
2026.000000	11.822080
2024.000000	11.827146
2022.000000	11.831884
2020.000000	11.835800
2018.000000	11.837505
2016.000000	11.841373
2014.000000	11.848374
2012.000000	11.854094
2010.000000	11.857136
2008.000000	11.860454
2006.000000	11.864717
2004.000000	11.866832
2002.000000	11.868023
2000.000000	11.870746
1998.000000	11.873604
1996.000000	11.876089
1994.000000	11.874761
1992.000000	11.872985
1990.000000	11.877071
1988.000000	11.881473
1986.000000	11.882415
1984.000000	11.880538
1982.000000	11.879219
1980.000000	11.879332
1978.000000	11.879622
1976.000000	11.878877
1974.000000	11.875609
1972.000000	11.872171
1970.000000	11.868261
1968.000000	11.862480
1966.000000	11.860839
1964.000000	11.860325
1962.000000	11.851682
1960.000000	11.836452
1958.000000	11.833560
1956.000000	11.842586
1954.000000	11.845530
1952.000000	11.840947
1950.000000	11.833127
1948.000000	11.829099
1946.000000	11.822899
1944.000000	11.812988
1942.000000	11.809543
1940.000000	11.812723
1938.000000	11.810058
1936.000000	11.805232
1934.000000	11.798918
1932.000000	11.792027
1930.000000	11.785327
1928.000000	11.780009
1926.000000	11.771140
1924.000000	11.760873
1922.000000	11.754140
1920.000000	11.743087
1918.000000	11.729444
1916.000000	11.730429
1914.000000	11.729658
1912.000000	11.721305
1910.000000	11.711003
1908.000000	11.703320
1906.000000	11.694549
1904.000000	11.685593
1902.000000	11.677626
1900.000000	11.672268
1898.000000	11.663183
1896.000000	11.653196
1894.000000	11.647856
1892.000000	11.640327
1890.000000	11.629509
1888.000000	11.630750
1886.000000	11.631624
1884.000000	11.627095
1882.000000	11.622031
1880.000000	11.619953
1878.000000	11.617019
1876.000000	11.611746
1874.000000	11.605606
1872.000000	11.593016
1870.000000	11.569634
1868.000000	11.566964
1866.000000	11.579949
1864.000000	11.583972
1862.000000	11.578864
1860.000000	11.573588
1858.000000	11.567370
1856.000000	11.562325
1854.000000	11.556296
1852.000000	11.552740
1850.000000	11.547113
1848.000000	11.531434
1846.000000	11.496914
1844.000000	11.479266
1842.000000	11.502373
1840.000000	11.513404
1838.000000	11.505292
1836.000000	11.498318
1834.000000	11.490327
1832.000000	11.467193
1830.000000	11.447143
1828.000000	11.448312
1826.000000	11.439993
1824.000000	11.435939
1822.000000	11.436997
1820.000000	11.429547
1818.000000	11.419686
1816.000000	11.410966
1814.000000	11.398298
1812.000000	11.381070
1810.000000	11.368244
1808.000000	11.361695
1806.000000	11.352473
1804.000000	11.334666
1802.000000	11.309111
1800.000000	11.293705
1798.000000	11.287263
1796.000000	11.269883
1794.000000	11.227230
1792.000000	11.205491
1790.000000	11.220777
1788.000000	11.223076
1786.000000	11.203162
1784.000000	11.186578
1782.000000	11.171142
1780.000000	11.157683
1778.000000	11.148727
1776.000000	11.122017
1774.000000	11.064335
1772.000000	11.036888
1770.000000	11.053468
1768.000000	11.058053
1766.000000	11.065767
1764.000000	11.047228
1762.000000	11.017620
1760.000000	11.013809
1758.000000	10.998849
1756.000000	10.981503
1754.000000	10.957010
1752.000000	10.902468
1750.000000	10.882090
1748.000000	10.885985
1746.000000	10.878456
1744.000000	10.858749
1742.000000	10.827065
1740.000000	10.797271
1738.000000	10.785740
1736.000000	10.719325
1734.000000	10.666795
1732.000000	10.720936
1730.000000	10.761299
1728.000000	10.767606
1726.000000	10.761626
1724.000000	10.750945
1722.000000	10.733807
1720.000000	10.670426
1718.000000	10.594211
1716.000000	10.610331
1714.000000	10.658254
1712.000000	10.676085
1710.000000	10.662599
1708.000000	10.634529
1706.000000	10.605832
1704.000000	10.585884
1702.000000	10.507728
1700.000000	10.461782
1698.000000	10.477437
1696.000000	10.465872
1694.000000	10.531033
1692.000000	10.580069
1690.000000	10.570712
1688.000000	10.534844
1686.000000	10.435140
1684.000000	10.406278
1682.000000	10.489371
1680.000000	10.526457
1678.000000	10.507509
1676.000000	10.463537
1674.000000	10.462442
1672.000000	10.457198
1670.000000	10.427348
1668.000000	10.439958
1666.000000	10.452941
1664.000000	10.424222
1662.000000	10.411328
1660.000000	10.421232
1658.000000	10.407757
1656.000000	10.317542
1654.000000	10.168568
1652.000000	10.189867
1650.000000	10.294993
1648.000000	10.272669
1646.000000	10.248279
1644.000000	10.285277
1642.000000	10.300012
1640.000000	10.276819
1638.000000	10.215221
1636.000000	10.149954
1634.000000	10.174777
1632.000000	10.205598
1630.000000	10.180390
1628.000000	10.142797
1626.000000	10.102188
1624.000000	10.044869
1622.000000	10.004541
1620.000000	9.956481
1618.000000	9.862646
1616.000000	9.815147
1614.000000	9.808737
1612.000000	9.750753
1610.000000	9.684450
1608.000000	9.653096
1606.000000	9.658236
1604.000000	9.678773
1602.000000	9.703886
1600.000000	9.728136
1598.000000	9.749969
1596.000000	9.764834
1594.000000	9.777279
1592.000000	9.784518
1590.000000	9.784230
1588.000000	9.777681
1586.000000	9.768711
1584.000000	9.759047
1582.000000	9.752291
1580.000000	9.739595
1578.000000	9.678625
1576.000000	9.640190
1574.000000	9.691834
1572.000000	9.697760
1570.000000	9.663164
1568.000000	9.660335
1566.000000	9.653385
1564.000000	9.620274
1562.000000	9.525048
1560.000000	9.391355
1558.000000	9.400244
1556.000000	9.489800
1554.000000	9.541484
1552.000000	9.586476
1550.000000	9.614822
1548.000000	9.632511
1546.000000	9.626449
1544.000000	9.604944
1542.000000	9.563547
1540.000000	9.547731
1538.000000	9.641596
1536.000000	9.724110
1534.000000	9.728115
1532.000000	9.753994
1530.000000	9.775092
1528.000000	9.761410
1526.000000	9.740906
1524.000000	9.711514
1522.000000	9.661640
1520.000000	9.669655
1518.000000	9.684532
1516.000000	9.668500
1514.000000	9.653469
1512.000000	9.632435
1510.000000	9.588126
1508.000000	9.481976
1506.000000	9.419034
1504.000000	9.416615
1502.000000	9.300358
1500.000000	9.025818
1498.000000	8.669941
1496.000000	8.404600
1494.000000	8.368750
1492.000000	8.498996
1490.000000	8.700727
1488.000000	8.909870
1486.000000	9.074852
1484.000000	9.180759
1482.000000	9.232932
1480.000000	9.256999
1478.000000	9.251137
1476.000000	9.221823
1474.000000	9.175450
1472.000000	9.157727
1470.000000	9.170766
1468.000000	9.146084
1466.000000	9.086590
1464.000000	9.046696
1462.000000	9.011972
1460.000000	8.912361
1458.000000	8.752116
1456.000000	8.644592
1454.000000	8.588949
1452.000000	8.531040
1450.000000	8.547422
1448.000000	8.645691
1446.000000	8.749496
1444.000000	8.797673
1442.000000	8.807661
1440.000000	8.798738
1438.000000	8.767864
1436.000000	8.770952
1434.000000	8.813043
1432.000000	8.820545
1430.000000	8.814660
1428.000000	8.816787
1426.000000	8.817328
1424.000000	8.808219
1422.000000	8.784745
1420.000000	8.738010
1418.000000	8.733340
1416.000000	8.744619
1414.000000	8.726874
1412.000000	8.686079
1410.000000	8.627901
1408.000000	8.546639
1406.000000	8.460512
1404.000000	8.415135
1402.000000	8.421274
1400.000000	8.451075
1398.000000	8.502211
1396.000000	8.545161
1394.000000	8.581857
1392.000000	8.616397
1390.000000	8.616876
1388.000000	8.585920
1386.000000	8.555972
1384.000000	8.545545
1382.000000	8.558834
1380.000000	8.570252
1378.000000	8.566637
1376.000000	8.552472
1374.000000	8.542618
1372.000000	8.540823
1370.000000	8.530407
1368.000000	8.514143
1366.000000	8.496574
1364.000000	8.473639
1362.000000	8.457429
1360.000000	8.447934
1358.000000	8.432706
1356.000000	8.412797
1354.000000	8.392320
1352.000000	8.370986
1350.000000	8.349557
1348.000000	8.327124
1346.000000	8.301303
1344.000000	8.273983
1342.000000	8.245584
1340.000000	8.219639
1338.000000	8.206526
1336.000000	8.198717
1334.000000	8.187982
1332.000000	8.172853
1330.000000	8.154893
1328.000000	8.132862
1326.000000	8.106379
1324.000000	8.076789
1322.000000	8.045450
1320.000000	8.013126
1318.000000	7.983284
1316.000000	7.951569
1314.000000	7.917465
1312.000000	7.884643
1310.000000	7.851096
1308.000000	7.814938
1306.000000	7.778661
1304.000000	7.740661
1302.000000	7.703116
1300.000000	7.666278
1298.000000	7.628470
1296.000000	7.591468
1294.000000	7.552877
1292.000000	7.509817
1290.000000	7.466212
1288.000000	7.421352
1286.000000	7.377335
1284.000000	7.332398
1282.000000	7.285508
1280.000000	7.236529
1278.000000	7.181869
1276.000000	7.118165
1274.000000	7.045759
1272.000000	6.962217
1270.000000	6.858946
1268.000000	6.725417
1266.000000	6.564918
1264.000000	6.397888
1262.000000	6.265201
1260.000000	6.203012
1258.000000	6.213027
1256.000000	6.260199
1254.000000	6.301319
1252.000000	6.310658
1250.000000	6.287985
1248.000000	6.246455
1246.000000	6.196347
1244.000000	6.141271
1242.000000	6.085592
1240.000000	6.030202
1238.000000	5.974914
1236.000000	5.921273
1234.000000	5.870367
1232.000000	5.819638
1230.000000	5.770487
1228.000000	5.722461
1226.000000	5.673595
1224.000000	5.623882
1222.000000	5.572723
1220.000000	5.516990
1218.000000	5.458864
1216.000000	5.401707
1214.000000	5.344046
1212.000000	5.288374
1210.000000	5.239404
1208.000000	5.193556
1206.000000	5.149059
1204.000000	5.103352
1202.000000	5.058126
1200.000000	5.014095
1198.000000	4.970779
1196.000000	4.926832
1194.000000	4.881418
1192.000000	4.833586
1190.000000	4.785736
1188.000000	4.736594
1186.000000	4.684343
1184.000000	4.618634
1182.000000	4.534946
1180.000000	4.469900
1178.000000	4.441561
1176.000000	4.414435
1174.000000	4.373318
1172.000000	4.324884
1170.000000	4.276140
1168.000000	4.223063
1166.000000	4.166925
1164.000000	4.111651
1162.000000	4.059969
1160.000000	4.009341
1158.000000	3.959734
1156.000000	3.912993
1154.000000	3.866195
1152.000000	3.817371
1150.000000	3.769110
1148.000000	3.721088
1146.000000	3.674420
1144.000000	3.627492
1142.000000	3.585351
1140.000000	3.552092
1138.000000	3.518194
1136.000000	3.477461
1134.000000	3.432675
1132.000000	3.386261
1130.000000	3.339045
1128.000000	3.294025
1126.000000	3.249108
1124.000000	3.200621
1122.000000	3.151073
1120.000000	3.100715
1118.000000	3.049385
1116.000000	2.998161
1114.000000	2.946325
1112.000000	2.892712
1110.000000	2.841215
1108.000000	2.792233
1106.000000	2.745591
1104.000000	2.701867
1102.000000	2.656816
1100.000000	2.610740
1098.000000	2.567611
1096.000000	2.527537
1094.000000	2.488022
1092.000000	2.451785
1090.000000	2.420297
1088.000000	2.389239
1086.000000	2.357906
1084.000000	2.325765
1082.000000	2.294941
1080.000000	2.267217
1078.000000	2.241601
1076.000000	2.216564
1074.000000	2.193842
1072.000000	2.170243
1070.000000	2.146841
1068.000000	2.125643
1066.000000	2.103540
1064.000000	2.079280
1062.000000	2.051899
1060.000000	2.024007
1058.000000	1.995530
1056.000000	1.953142
1054.000000	1.892307
1052.000000	1.832426
1050.000000	1.799500
1048.000000	1.796859
1046.000000	1.806478
1044.000000	1.808030
1042.000000	1.794919
1040.000000	1.773985
1038.000000	1.749996
1036.000000	1.721361
1034.000000	1.692097
1032.000000	1.663652
1030.000000	1.633183
1028.000000	1.600053
1026.000000	1.567208
1024.000000	1.535285
1022.000000	1.503436
1020.000000	1.472539
1018.000000	1.446666
1016.000000	1.423413
1014.000000	1.401117
1012.000000	1.382458
1010.000000	1.363855
1008.000000	1.345184
1006.000000	1.326519
1004.000000	1.304305
1002.000000	1.278572
1000.000000	1.251914
