PE IR       SUBTECH     SPECTRUM    ASCII       PEDS        4.00        
   -1
TE109A_055_80K_after_120K_SB.ASC
20/04/21
17:15:38.00
20/04/21
17:15:38.00
Administrator
TE109A, Tuesday, April 21 2020, 055.
1000.000000
#HDR
-1
-1
#GR
cm-1
EGY
1.0
0.0
6000.000000
-2.000000
2501
8
9.726827
1.015022
#DATA
6000.000000	1.702590
5998.000000	1.706467
5996.000000	1.709946
5994.000000	1.713113
5992.000000	1.717512
5990.000000	1.722477
5988.000000	1.725372
5986.000000	1.726762
5984.000000	1.728666
5982.000000	1.733335
5980.000000	1.738743
5978.000000	1.741838
5976.000000	1.743100
5974.000000	1.746115
5972.000000	1.751129
5970.000000	1.755595
5968.000000	1.759466
5966.000000	1.761509
5964.000000	1.764913
5962.000000	1.768684
5960.000000	1.772717
5958.000000	1.776662
5956.000000	1.779233
5954.000000	1.782422
5952.000000	1.787658
5950.000000	1.793388
5948.000000	1.797696
5946.000000	1.799813
5944.000000	1.801424
5942.000000	1.804672
5940.000000	1.808763
5938.000000	1.812621
5936.000000	1.815564
5934.000000	1.818485
5932.000000	1.823261
5930.000000	1.829731
5928.000000	1.834138
5926.000000	1.836735
5924.000000	1.838198
5922.000000	1.840992
5920.000000	1.844670
5918.000000	1.848254
5916.000000	1.851553
5914.000000	1.855499
5912.000000	1.859720
5910.000000	1.864033
5908.000000	1.867275
5906.000000	1.869699
5904.000000	1.873191
5902.000000	1.877343
5900.000000	1.882548
5898.000000	1.887940
5896.000000	1.893369
5894.000000	1.897993
5892.000000	1.900452
5890.000000	1.902829
5888.000000	1.905198
5886.000000	1.908009
5884.000000	1.911124
5882.000000	1.913622
5880.000000	1.917319
5878.000000	1.921594
5876.000000	1.926335
5874.000000	1.931948
5872.000000	1.937182
5870.000000	1.941915
5868.000000	1.945652
5866.000000	1.947440
5864.000000	1.949658
5862.000000	1.953901
5860.000000	1.959554
5858.000000	1.964851
5856.000000	1.968044
5854.000000	1.970111
5852.000000	1.973049
5850.000000	1.977886
5848.000000	1.983633
5846.000000	1.988769
5844.000000	1.991843
5842.000000	1.995127
5840.000000	1.999624
5838.000000	2.005229
5836.000000	2.010034
5834.000000	2.014341
5832.000000	2.018661
5830.000000	2.022866
5828.000000	2.027458
5826.000000	2.032009
5824.000000	2.036477
5822.000000	2.040283
5820.000000	2.043842
5818.000000	2.047749
5816.000000	2.051247
5814.000000	2.055402
5812.000000	2.060126
5810.000000	2.065455
5808.000000	2.069862
5806.000000	2.074165
5804.000000	2.077997
5802.000000	2.082249
5800.000000	2.086029
5798.000000	2.089586
5796.000000	2.093601
5794.000000	2.098072
5792.000000	2.103518
5790.000000	2.108208
5788.000000	2.112236
5786.000000	2.115290
5784.000000	2.118853
5782.000000	2.122822
5780.000000	2.126152
5778.000000	2.129173
5776.000000	2.133960
5774.000000	2.139982
5772.000000	2.144813
5770.000000	2.148195
5768.000000	2.152935
5766.000000	2.160907
5764.000000	2.167454
5762.000000	2.170808
5760.000000	2.172305
5758.000000	2.175154
5756.000000	2.178937
5754.000000	2.183211
5752.000000	2.187832
5750.000000	2.191365
5748.000000	2.195252
5746.000000	2.200317
5744.000000	2.207078
5742.000000	2.212759
5740.000000	2.214515
5738.000000	2.216573
5736.000000	2.220202
5734.000000	2.224994
5732.000000	2.229964
5730.000000	2.234897
5728.000000	2.239159
5726.000000	2.243133
5724.000000	2.246643
5722.000000	2.251565
5720.000000	2.256507
5718.000000	2.261009
5716.000000	2.266167
5714.000000	2.271036
5712.000000	2.276911
5710.000000	2.280799
5708.000000	2.284022
5706.000000	2.288148
5704.000000	2.293587
5702.000000	2.298652
5700.000000	2.302726
5698.000000	2.306769
5696.000000	2.312166
5694.000000	2.317911
5692.000000	2.321827
5690.000000	2.323967
5688.000000	2.326610
5686.000000	2.332251
5684.000000	2.339257
5682.000000	2.344273
5680.000000	2.347624
5678.000000	2.353269
5676.000000	2.360290
5674.000000	2.366153
5672.000000	2.368894
5670.000000	2.370924
5668.000000	2.375805
5666.000000	2.381902
5664.000000	2.386282
5662.000000	2.388709
5660.000000	2.391832
5658.000000	2.397840
5656.000000	2.404884
5654.000000	2.409874
5652.000000	2.413382
5650.000000	2.417746
5648.000000	2.425073
5646.000000	2.432534
5644.000000	2.436892
5642.000000	2.439795
5640.000000	2.443744
5638.000000	2.448316
5636.000000	2.452609
5634.000000	2.456918
5632.000000	2.462128
5630.000000	2.467362
5628.000000	2.471266
5626.000000	2.475077
5624.000000	2.479400
5622.000000	2.484143
5620.000000	2.489979
5618.000000	2.496542
5616.000000	2.502343
5614.000000	2.506978
5612.000000	2.510428
5610.000000	2.514563
5608.000000	2.518214
5606.000000	2.521982
5604.000000	2.526133
5602.000000	2.531329
5600.000000	2.536554
5598.000000	2.541342
5596.000000	2.545875
5594.000000	2.550883
5592.000000	2.556046
5590.000000	2.561383
5588.000000	2.566603
5586.000000	2.571578
5584.000000	2.576178
5582.000000	2.580297
5580.000000	2.585513
5578.000000	2.591563
5576.000000	2.595653
5574.000000	2.599125
5572.000000	2.603965
5570.000000	2.611438
5568.000000	2.618213
5566.000000	2.622139
5564.000000	2.625726
5562.000000	2.630876
5560.000000	2.636271
5558.000000	2.641153
5556.000000	2.645346
5554.000000	2.650428
5552.000000	2.656601
5550.000000	2.661896
5548.000000	2.667499
5546.000000	2.672721
5544.000000	2.676395
5542.000000	2.680117
5540.000000	2.684424
5538.000000	2.690417
5536.000000	2.695922
5534.000000	2.700172
5532.000000	2.704639
5530.000000	2.708957
5528.000000	2.714936
5526.000000	2.721162
5524.000000	2.725917
5522.000000	2.730259
5520.000000	2.735847
5518.000000	2.742472
5516.000000	2.746953
5514.000000	2.749171
5512.000000	2.751521
5510.000000	2.755004
5508.000000	2.760590
5506.000000	2.767464
5504.000000	2.774346
5502.000000	2.780731
5500.000000	2.785630
5498.000000	2.789761
5496.000000	2.792748
5494.000000	2.796512
5492.000000	2.802125
5490.000000	2.809018
5488.000000	2.815009
5486.000000	2.820437
5484.000000	2.825920
5482.000000	2.831055
5480.000000	2.835016
5478.000000	2.839008
5476.000000	2.844684
5474.000000	2.850603
5472.000000	2.855747
5470.000000	2.860223
5468.000000	2.865458
5466.000000	2.871301
5464.000000	2.877009
5462.000000	2.882242
5460.000000	2.886526
5458.000000	2.891475
5456.000000	2.897190
5454.000000	2.903093
5452.000000	2.908527
5450.000000	2.913752
5448.000000	2.918999
5446.000000	2.924213
5444.000000	2.928905
5442.000000	2.932368
5440.000000	2.935911
5438.000000	2.941632
5436.000000	2.948917
5434.000000	2.955103
5432.000000	2.958940
5430.000000	2.962866
5428.000000	2.968483
5426.000000	2.974696
5424.000000	2.978763
5422.000000	2.982777
5420.000000	2.988948
5418.000000	2.994631
5416.000000	2.998414
5414.000000	3.001510
5412.000000	3.006466
5410.000000	3.012683
5408.000000	3.019068
5406.000000	3.025761
5404.000000	3.030425
5402.000000	3.034001
5400.000000	3.038586
5398.000000	3.042868
5396.000000	3.046846
5394.000000	3.051971
5392.000000	3.059137
5390.000000	3.065484
5388.000000	3.069759
5386.000000	3.074839
5384.000000	3.081167
5382.000000	3.086782
5380.000000	3.090659
5378.000000	3.095103
5376.000000	3.101364
5374.000000	3.107641
5372.000000	3.113632
5370.000000	3.119106
5368.000000	3.124832
5366.000000	3.129307
5364.000000	3.133641
5362.000000	3.138939
5360.000000	3.143997
5358.000000	3.148838
5356.000000	3.153966
5354.000000	3.159530
5352.000000	3.165392
5350.000000	3.169983
5348.000000	3.173399
5346.000000	3.176556
5344.000000	3.181818
5342.000000	3.187832
5340.000000	3.191975
5338.000000	3.195624
5336.000000	3.201403
5334.000000	3.207576
5332.000000	3.212122
5330.000000	3.216608
5328.000000	3.222803
5326.000000	3.229649
5324.000000	3.234884
5322.000000	3.238626
5320.000000	3.243286
5318.000000	3.249162
5316.000000	3.255285
5314.000000	3.260337
5312.000000	3.265288
5310.000000	3.270394
5308.000000	3.275642
5306.000000	3.280906
5304.000000	3.286123
5302.000000	3.290814
5300.000000	3.295489
5298.000000	3.300448
5296.000000	3.305506
5294.000000	3.308729
5292.000000	3.311445
5290.000000	3.315256
5288.000000	3.321036
5286.000000	3.326583
5284.000000	3.331551
5282.000000	3.336674
5280.000000	3.341552
5278.000000	3.345977
5276.000000	3.350420
5274.000000	3.356167
5272.000000	3.361304
5270.000000	3.364864
5268.000000	3.366549
5266.000000	3.368775
5264.000000	3.373033
5262.000000	3.379662
5260.000000	3.386406
5258.000000	3.391576
5256.000000	3.395187
5254.000000	3.398730
5252.000000	3.402853
5250.000000	3.407363
5248.000000	3.412463
5246.000000	3.418142
5244.000000	3.423079
5242.000000	3.427133
5240.000000	3.431498
5238.000000	3.436529
5236.000000	3.439709
5234.000000	3.441805
5232.000000	3.444496
5230.000000	3.447943
5228.000000	3.451592
5226.000000	3.455244
5224.000000	3.459476
5222.000000	3.464113
5220.000000	3.468865
5218.000000	3.473695
5216.000000	3.478124
5214.000000	3.483080
5212.000000	3.486179
5210.000000	3.486839
5208.000000	3.488618
5206.000000	3.493861
5204.000000	3.500138
5202.000000	3.504173
5200.000000	3.506357
5198.000000	3.509613
5196.000000	3.513878
5194.000000	3.518663
5192.000000	3.522272
5190.000000	3.525470
5188.000000	3.529848
5186.000000	3.534508
5184.000000	3.537956
5182.000000	3.540044
5180.000000	3.543269
5178.000000	3.548507
5176.000000	3.553365
5174.000000	3.556631
5172.000000	3.559794
5170.000000	3.563870
5168.000000	3.567914
5166.000000	3.571901
5164.000000	3.575825
5162.000000	3.579364
5160.000000	3.582023
5158.000000	3.586064
5156.000000	3.590594
5154.000000	3.594362
5152.000000	3.598146
5150.000000	3.602964
5148.000000	3.607433
5146.000000	3.611373
5144.000000	3.615334
5142.000000	3.619910
5140.000000	3.624437
5138.000000	3.628927
5136.000000	3.632393
5134.000000	3.634987
5132.000000	3.637980
5130.000000	3.641647
5128.000000	3.645384
5126.000000	3.648525
5124.000000	3.652095
5122.000000	3.656468
5120.000000	3.660984
5118.000000	3.665842
5116.000000	3.672202
5114.000000	3.678729
5112.000000	3.682919
5110.000000	3.686666
5108.000000	3.692328
5106.000000	3.698291
5104.000000	3.702711
5102.000000	3.706228
5100.000000	3.709931
5098.000000	3.713895
5096.000000	3.717439
5094.000000	3.722333
5092.000000	3.729081
5090.000000	3.736641
5088.000000	3.742647
5086.000000	3.747198
5084.000000	3.751954
5082.000000	3.757213
5080.000000	3.763006
5078.000000	3.768723
5076.000000	3.774910
5074.000000	3.780477
5072.000000	3.783739
5070.000000	3.787245
5068.000000	3.791947
5066.000000	3.797727
5064.000000	3.803513
5062.000000	3.810437
5060.000000	3.817059
5058.000000	3.821176
5056.000000	3.823727
5054.000000	3.827881
5052.000000	3.834976
5050.000000	3.842729
5048.000000	3.849061
5046.000000	3.853755
5044.000000	3.856883
5042.000000	3.860300
5040.000000	3.866278
5038.000000	3.873686
5036.000000	3.880170
5034.000000	3.884408
5032.000000	3.887574
5030.000000	3.891222
5028.000000	3.896731
5026.000000	3.903797
5024.000000	3.910177
5022.000000	3.914973
5020.000000	3.920371
5018.000000	3.927303
5016.000000	3.933832
5014.000000	3.938169
5012.000000	3.943568
5010.000000	3.950302
5008.000000	3.955810
5006.000000	3.960383
5004.000000	3.966617
5002.000000	3.974722
5000.000000	3.981317
4998.000000	3.985968
4996.000000	3.991736
4994.000000	3.997679
4992.000000	4.003770
4990.000000	4.009800
4988.000000	4.016507
4986.000000	4.022447
4984.000000	4.029021
4982.000000	4.036291
4980.000000	4.042170
4978.000000	4.046706
4976.000000	4.051982
4974.000000	4.058498
4972.000000	4.063864
4970.000000	4.067713
4968.000000	4.072534
4966.000000	4.081309
4964.000000	4.090253
4962.000000	4.095958
4960.000000	4.100931
4958.000000	4.108045
4956.000000	4.114012
4954.000000	4.118112
4952.000000	4.124438
4950.000000	4.132683
4948.000000	4.138848
4946.000000	4.143457
4944.000000	4.149624
4942.000000	4.156425
4940.000000	4.162916
4938.000000	4.169353
4936.000000	4.175345
4934.000000	4.180184
4932.000000	4.185698
4930.000000	4.192356
4928.000000	4.198573
4926.000000	4.204346
4924.000000	4.211449
4922.000000	4.218975
4920.000000	4.225569
4918.000000	4.231527
4916.000000	4.237193
4914.000000	4.243702
4912.000000	4.250375
4910.000000	4.257044
4908.000000	4.263559
4906.000000	4.270318
4904.000000	4.275769
4902.000000	4.280178
4900.000000	4.286406
4898.000000	4.293700
4896.000000	4.301392
4894.000000	4.309512
4892.000000	4.318156
4890.000000	4.325550
4888.000000	4.332203
4886.000000	4.339489
4884.000000	4.346563
4882.000000	4.352478
4880.000000	4.357951
4878.000000	4.364098
4876.000000	4.371811
4874.000000	4.380577
4872.000000	4.388038
4870.000000	4.393121
4868.000000	4.398750
4866.000000	4.406765
4864.000000	4.415607
4862.000000	4.423270
4860.000000	4.430409
4858.000000	4.436242
4856.000000	4.440810
4854.000000	4.445838
4852.000000	4.454138
4850.000000	4.463361
4848.000000	4.470974
4846.000000	4.478077
4844.000000	4.485820
4842.000000	4.492974
4840.000000	4.498893
4838.000000	4.505306
4836.000000	4.511570
4834.000000	4.517120
4832.000000	4.523302
4830.000000	4.531927
4828.000000	4.541055
4826.000000	4.548893
4824.000000	4.555284
4822.000000	4.561555
4820.000000	4.567966
4818.000000	4.575732
4816.000000	4.583892
4814.000000	4.591175
4812.000000	4.597613
4810.000000	4.604687
4808.000000	4.612878
4806.000000	4.620755
4804.000000	4.627924
4802.000000	4.634692
4800.000000	4.642561
4798.000000	4.651677
4796.000000	4.661066
4794.000000	4.669272
4792.000000	4.676704
4790.000000	4.684635
4788.000000	4.692808
4786.000000	4.699888
4784.000000	4.706503
4782.000000	4.713878
4780.000000	4.722779
4778.000000	4.732203
4776.000000	4.741149
4774.000000	4.748949
4772.000000	4.756600
4770.000000	4.764394
4768.000000	4.771498
4766.000000	4.777364
4764.000000	4.784442
4762.000000	4.792459
4760.000000	4.800160
4758.000000	4.807159
4756.000000	4.814906
4754.000000	4.823004
4752.000000	4.829913
4750.000000	4.835276
4748.000000	4.842406
4746.000000	4.851971
4744.000000	4.860483
4742.000000	4.867987
4740.000000	4.876051
4738.000000	4.883281
4736.000000	4.890160
4734.000000	4.898976
4732.000000	4.907574
4730.000000	4.914034
4728.000000	4.920640
4726.000000	4.929030
4724.000000	4.937939
4722.000000	4.945903
4720.000000	4.953175
4718.000000	4.960111
4716.000000	4.966676
4714.000000	4.973766
4712.000000	4.982484
4710.000000	4.992126
4708.000000	5.000434
4706.000000	5.007343
4704.000000	5.014123
4702.000000	5.022287
4700.000000	5.030664
4698.000000	5.038459
4696.000000	5.046318
4694.000000	5.054640
4692.000000	5.061763
4690.000000	5.068165
4688.000000	5.075721
4686.000000	5.083897
4684.000000	5.091579
4682.000000	5.099468
4680.000000	5.108102
4678.000000	5.116457
4676.000000	5.123838
4674.000000	5.131415
4672.000000	5.140139
4670.000000	5.147705
4668.000000	5.153288
4666.000000	5.159974
4664.000000	5.168282
4662.000000	5.175713
4660.000000	5.182342
4658.000000	5.190073
4656.000000	5.198999
4654.000000	5.207664
4652.000000	5.215163
4650.000000	5.221786
4648.000000	5.228479
4646.000000	5.234618
4644.000000	5.240940
4642.000000	5.249079
4640.000000	5.258295
4638.000000	5.265870
4636.000000	5.271992
4634.000000	5.278358
4632.000000	5.284797
4630.000000	5.291182
4628.000000	5.298426
4626.000000	5.305814
4624.000000	5.312057
4622.000000	5.317744
4620.000000	5.325626
4618.000000	5.335111
4616.000000	5.342532
4614.000000	5.348129
4612.000000	5.355750
4610.000000	5.366300
4608.000000	5.376398
4606.000000	5.383607
4604.000000	5.388499
4602.000000	5.394245
4600.000000	5.401284
4598.000000	5.409365
4596.000000	5.417973
4594.000000	5.426212
4592.000000	5.433416
4590.000000	5.440303
4588.000000	5.446301
4586.000000	5.453004
4584.000000	5.461877
4582.000000	5.471531
4580.000000	5.479086
4578.000000	5.485378
4576.000000	5.492968
4574.000000	5.501115
4572.000000	5.507971
4570.000000	5.515062
4568.000000	5.522505
4566.000000	5.528962
4564.000000	5.536348
4562.000000	5.545588
4560.000000	5.553268
4558.000000	5.557600
4556.000000	5.561458
4554.000000	5.568235
4552.000000	5.576798
4550.000000	5.584096
4548.000000	5.590899
4546.000000	5.598502
4544.000000	5.605543
4542.000000	5.612068
4540.000000	5.619722
4538.000000	5.627497
4536.000000	5.634929
4534.000000	5.643561
4532.000000	5.652158
4530.000000	5.658003
4528.000000	5.662836
4526.000000	5.668979
4524.000000	5.675319
4522.000000	5.682850
4520.000000	5.691670
4518.000000	5.699596
4516.000000	5.706518
4514.000000	5.714221
4512.000000	5.721595
4510.000000	5.728905
4508.000000	5.735619
4506.000000	5.741553
4504.000000	5.748668
4502.000000	5.757957
4500.000000	5.766305
4498.000000	5.772850
4496.000000	5.780016
4494.000000	5.788054
4492.000000	5.796126
4490.000000	5.803909
4488.000000	5.810952
4486.000000	5.818029
4484.000000	5.825268
4482.000000	5.831911
4480.000000	5.838635
4478.000000	5.846534
4476.000000	5.853879
4474.000000	5.859492
4472.000000	5.865326
4470.000000	5.874584
4468.000000	5.884018
4466.000000	5.890453
4464.000000	5.895701
4462.000000	5.901651
4460.000000	5.907416
4458.000000	5.913887
4456.000000	5.921979
4454.000000	5.929332
4452.000000	5.933802
4450.000000	5.939146
4448.000000	5.947644
4446.000000	5.955555
4444.000000	5.961912
4442.000000	5.969079
4440.000000	5.976459
4438.000000	5.983099
4436.000000	5.989576
4434.000000	5.995339
4432.000000	6.001025
4430.000000	6.008180
4428.000000	6.015332
4426.000000	6.020332
4424.000000	6.025225
4422.000000	6.033404
4420.000000	6.042416
4418.000000	6.049666
4416.000000	6.057790
4414.000000	6.066410
4412.000000	6.072229
4410.000000	6.076722
4408.000000	6.082213
4406.000000	6.089421
4404.000000	6.097444
4402.000000	6.104719
4400.000000	6.111224
4398.000000	6.117996
4396.000000	6.125062
4394.000000	6.132130
4392.000000	6.139124
4390.000000	6.145772
4388.000000	6.151820
4386.000000	6.158188
4384.000000	6.164800
4382.000000	6.170512
4380.000000	6.176011
4378.000000	6.181970
4376.000000	6.187710
4374.000000	6.192720
4372.000000	6.198114
4370.000000	6.204598
4368.000000	6.210388
4366.000000	6.215796
4364.000000	6.222253
4362.000000	6.228286
4360.000000	6.232937
4358.000000	6.238521
4356.000000	6.244725
4354.000000	6.250889
4352.000000	6.257573
4350.000000	6.264713
4348.000000	6.270779
4346.000000	6.276252
4344.000000	6.282539
4342.000000	6.289496
4340.000000	6.295556
4338.000000	6.300298
4336.000000	6.306186
4334.000000	6.313072
4332.000000	6.319028
4330.000000	6.325094
4328.000000	6.332796
4326.000000	6.340116
4324.000000	6.345796
4322.000000	6.350295
4320.000000	6.355847
4318.000000	6.362680
4316.000000	6.368868
4314.000000	6.374636
4312.000000	6.380842
4310.000000	6.387279
4308.000000	6.394387
4306.000000	6.402194
4304.000000	6.408354
4302.000000	6.413155
4300.000000	6.418748
4298.000000	6.425603
4296.000000	6.432756
4294.000000	6.439613
4292.000000	6.445555
4290.000000	6.450870
4288.000000	6.455338
4286.000000	6.460528
4284.000000	6.467626
4282.000000	6.474962
4280.000000	6.480901
4278.000000	6.485557
4276.000000	6.489994
4274.000000	6.495883
4272.000000	6.503134
4270.000000	6.509399
4268.000000	6.513868
4266.000000	6.519026
4264.000000	6.525264
4262.000000	6.530045
4260.000000	6.534518
4258.000000	6.541165
4256.000000	6.548634
4254.000000	6.554526
4252.000000	6.559312
4250.000000	6.565803
4248.000000	6.573035
4246.000000	6.579017
4244.000000	6.585503
4242.000000	6.592065
4240.000000	6.597143
4238.000000	6.602514
4236.000000	6.608291
4234.000000	6.615327
4232.000000	6.623944
4230.000000	6.630417
4228.000000	6.634786
4226.000000	6.640842
4224.000000	6.647551
4222.000000	6.653678
4220.000000	6.659328
4218.000000	6.664818
4216.000000	6.671359
4214.000000	6.678690
4212.000000	6.686133
4210.000000	6.693729
4208.000000	6.700393
4206.000000	6.706939
4204.000000	6.713675
4202.000000	6.719905
4200.000000	6.726273
4198.000000	6.734235
4196.000000	6.743157
4194.000000	6.750740
4192.000000	6.757880
4190.000000	6.765494
4188.000000	6.771856
4186.000000	6.778296
4184.000000	6.785175
4182.000000	6.790942
4180.000000	6.796627
4178.000000	6.803196
4176.000000	6.810171
4174.000000	6.817345
4172.000000	6.824017
4170.000000	6.831445
4168.000000	6.839843
4166.000000	6.845902
4164.000000	6.850723
4162.000000	6.856905
4160.000000	6.863647
4158.000000	6.870971
4156.000000	6.877423
4154.000000	6.881889
4152.000000	6.887387
4150.000000	6.894720
4148.000000	6.902999
4146.000000	6.912072
4144.000000	6.919559
4142.000000	6.925685
4140.000000	6.932588
4138.000000	6.938486
4136.000000	6.943688
4134.000000	6.950284
4132.000000	6.957560
4130.000000	6.964552
4128.000000	6.970072
4126.000000	6.975625
4124.000000	6.983822
4122.000000	6.993000
4120.000000	7.000966
4118.000000	7.008364
4116.000000	7.015620
4114.000000	7.022353
4112.000000	7.028541
4110.000000	7.034633
4108.000000	7.041311
4106.000000	7.048578
4104.000000	7.055458
4102.000000	7.062475
4100.000000	7.069872
4098.000000	7.077340
4096.000000	7.085980
4094.000000	7.094702
4092.000000	7.100729
4090.000000	7.105895
4088.000000	7.112710
4086.000000	7.119878
4084.000000	7.126911
4082.000000	7.133965
4080.000000	7.140254
4078.000000	7.146888
4076.000000	7.154125
4074.000000	7.160781
4072.000000	7.166970
4070.000000	7.173450
4068.000000	7.180198
4066.000000	7.187833
4064.000000	7.195728
4062.000000	7.202257
4060.000000	7.209243
4058.000000	7.216832
4056.000000	7.223528
4054.000000	7.230251
4052.000000	7.235803
4050.000000	7.240927
4048.000000	7.248655
4046.000000	7.256896
4044.000000	7.262746
4042.000000	7.268501
4040.000000	7.275653
4038.000000	7.283532
4036.000000	7.291136
4034.000000	7.296971
4032.000000	7.303031
4030.000000	7.311202
4028.000000	7.318868
4026.000000	7.325481
4024.000000	7.332453
4022.000000	7.340049
4020.000000	7.348254
4018.000000	7.356568
4016.000000	7.363926
4014.000000	7.372166
4012.000000	7.380907
4010.000000	7.387609
4008.000000	7.394059
4006.000000	7.402108
4004.000000	7.411298
4002.000000	7.419009
4000.000000	7.424820
3998.000000	7.432358
3996.000000	7.440476
3994.000000	7.447557
3992.000000	7.455052
3990.000000	7.462601
3988.000000	7.469592
3986.000000	7.477000
3984.000000	7.484849
3982.000000	7.493201
3980.000000	7.501647
3978.000000	7.507563
3976.000000	7.512228
3974.000000	7.520361
3972.000000	7.530725
3970.000000	7.539144
3968.000000	7.546501
3966.000000	7.554057
3964.000000	7.560860
3962.000000	7.568554
3960.000000	7.577929
3958.000000	7.586470
3956.000000	7.594160
3954.000000	7.602671
3952.000000	7.609799
3950.000000	7.615312
3948.000000	7.623248
3946.000000	7.632270
3944.000000	7.639660
3942.000000	7.648922
3940.000000	7.659973
3938.000000	7.669812
3936.000000	7.676412
3934.000000	7.680189
3932.000000	7.687940
3930.000000	7.701472
3928.000000	7.713395
3926.000000	7.721122
3924.000000	7.729260
3922.000000	7.738199
3920.000000	7.743995
3918.000000	7.751130
3916.000000	7.766800
3914.000000	7.785350
3912.000000	7.799474
3910.000000	7.809455
3908.000000	7.808013
3906.000000	7.794908
3904.000000	7.788847
3902.000000	7.797165
3900.000000	7.817221
3898.000000	7.846163
3896.000000	7.866344
3894.000000	7.866317
3892.000000	7.867167
3890.000000	7.880202
3888.000000	7.881894
3886.000000	7.881647
3884.000000	7.898395
3882.000000	7.912245
3880.000000	7.924778
3878.000000	7.941336
3876.000000	7.947453
3874.000000	7.942123
3872.000000	7.928638
3870.000000	7.930017
3868.000000	7.952482
3866.000000	7.967770
3864.000000	7.980218
3862.000000	8.002471
3860.000000	8.020312
3858.000000	8.000787
3856.000000	7.934003
3854.000000	7.902598
3852.000000	7.963435
3850.000000	8.044235
3848.000000	8.081766
3846.000000	8.087543
3844.000000	8.084101
3842.000000	8.072368
3840.000000	8.048432
3838.000000	8.045949
3836.000000	8.079555
3834.000000	8.112475
3832.000000	8.132842
3830.000000	8.150805
3828.000000	8.163171
3826.000000	8.167679
3824.000000	8.154274
3822.000000	8.141234
3820.000000	8.149858
3818.000000	8.151033
3816.000000	8.161248
3814.000000	8.204636
3812.000000	8.236625
3810.000000	8.230147
3808.000000	8.214680
3806.000000	8.220373
3804.000000	8.216072
3802.000000	8.207482
3800.000000	8.236176
3798.000000	8.271054
3796.000000	8.291935
3794.000000	8.310972
3792.000000	8.323473
3790.000000	8.329852
3788.000000	8.334002
3786.000000	8.338775
3784.000000	8.344360
3782.000000	8.345220
3780.000000	8.346782
3778.000000	8.359597
3776.000000	8.375241
3774.000000	8.379889
3772.000000	8.371030
3770.000000	8.367258
3768.000000	8.377273
3766.000000	8.390463
3764.000000	8.402014
3762.000000	8.403348
3760.000000	8.400094
3758.000000	8.406858
3756.000000	8.401305
3754.000000	8.359439
3752.000000	8.320218
3750.000000	8.329844
3748.000000	8.348207
3746.000000	8.332421
3744.000000	8.353665
3742.000000	8.421479
3740.000000	8.445290
3738.000000	8.423853
3736.000000	8.413837
3734.000000	8.426978
3732.000000	8.452229
3730.000000	8.479896
3728.000000	8.490264
3726.000000	8.490773
3724.000000	8.495554
3722.000000	8.505065
3720.000000	8.517812
3718.000000	8.526682
3716.000000	8.517079
3714.000000	8.487801
3712.000000	8.474290
3710.000000	8.493893
3708.000000	8.521750
3706.000000	8.533721
3704.000000	8.526542
3702.000000	8.519984
3700.000000	8.525309
3698.000000	8.529505
3696.000000	8.524981
3694.000000	8.507540
3692.000000	8.469621
3690.000000	8.432467
3688.000000	8.441088
3686.000000	8.479993
3684.000000	8.496265
3682.000000	8.485560
3680.000000	8.455186
3678.000000	8.402450
3676.000000	8.367342
3674.000000	8.368833
3672.000000	8.359102
3670.000000	8.354457
3668.000000	8.379198
3666.000000	8.393922
3664.000000	8.386141
3662.000000	8.372535
3660.000000	8.350304
3658.000000	8.315535
3656.000000	8.294001
3654.000000	8.277771
3652.000000	8.231479
3650.000000	8.187729
3648.000000	8.191478
3646.000000	8.217007
3644.000000	8.223754
3642.000000	8.212824
3640.000000	8.198809
3638.000000	8.183383
3636.000000	8.163349
3634.000000	8.137277
3632.000000	8.092080
3630.000000	8.044328
3628.000000	8.044187
3626.000000	8.069640
3624.000000	8.068832
3622.000000	8.039238
3620.000000	8.010151
3618.000000	8.001218
3616.000000	7.994448
3614.000000	7.978687
3612.000000	7.961004
3610.000000	7.945110
3608.000000	7.940229
3606.000000	7.943142
3604.000000	7.936370
3602.000000	7.919947
3600.000000	7.904302
3598.000000	7.890198
3596.000000	7.877029
3594.000000	7.866970
3592.000000	7.852949
3590.000000	7.830080
3588.000000	7.814084
3586.000000	7.814749
3584.000000	7.818063
3582.000000	7.814841
3580.000000	7.807857
3578.000000	7.799109
3576.000000	7.791059
3574.000000	7.783226
3572.000000	7.769432
3570.000000	7.747791
3568.000000	7.730792
3566.000000	7.730006
3564.000000	7.735297
3562.000000	7.736193
3560.000000	7.733777
3558.000000	7.729436
3556.000000	7.723284
3554.000000	7.715050
3552.000000	7.708466
3550.000000	7.702405
3548.000000	7.692700
3546.000000	7.685641
3544.000000	7.685219
3542.000000	7.685258
3540.000000	7.681527
3538.000000	7.676212
3536.000000	7.671482
3534.000000	7.666634
3532.000000	7.658738
3530.000000	7.649696
3528.000000	7.642604
3526.000000	7.635322
3524.000000	7.628143
3522.000000	7.623512
3520.000000	7.618447
3518.000000	7.610801
3516.000000	7.604058
3514.000000	7.597961
3512.000000	7.588276
3510.000000	7.577713
3508.000000	7.568811
3506.000000	7.558893
3504.000000	7.548654
3502.000000	7.539575
3500.000000	7.530480
3498.000000	7.521237
3496.000000	7.510683
3494.000000	7.499031
3492.000000	7.489333
3490.000000	7.480289
3488.000000	7.470614
3486.000000	7.461380
3484.000000	7.450923
3482.000000	7.442114
3480.000000	7.436439
3478.000000	7.430028
3476.000000	7.423496
3474.000000	7.420021
3472.000000	7.417504
3470.000000	7.413113
3468.000000	7.407900
3466.000000	7.404592
3464.000000	7.403646
3462.000000	7.402056
3460.000000	7.400761
3458.000000	7.400310
3456.000000	7.398115
3454.000000	7.395040
3452.000000	7.392451
3450.000000	7.389635
3448.000000	7.386473
3446.000000	7.384975
3444.000000	7.384113
3442.000000	7.384058
3440.000000	7.387484
3438.000000	7.395103
3436.000000	7.402485
3434.000000	7.409293
3432.000000	7.418926
3430.000000	7.428480
3428.000000	7.437923
3426.000000	7.449213
3424.000000	7.458904
3422.000000	7.466435
3420.000000	7.473251
3418.000000	7.479829
3416.000000	7.485488
3414.000000	7.489544
3412.000000	7.493727
3410.000000	7.498316
3408.000000	7.501127
3406.000000	7.503887
3404.000000	7.507857
3402.000000	7.510273
3400.000000	7.512897
3398.000000	7.518556
3396.000000	7.524979
3394.000000	7.529131
3392.000000	7.532291
3390.000000	7.537733
3388.000000	7.544024
3386.000000	7.549297
3384.000000	7.553251
3382.000000	7.556998
3380.000000	7.561525
3378.000000	7.565653
3376.000000	7.569267
3374.000000	7.572473
3372.000000	7.574689
3370.000000	7.576492
3368.000000	7.578885
3366.000000	7.582568
3364.000000	7.587106
3362.000000	7.589984
3360.000000	7.591544
3358.000000	7.594258
3356.000000	7.597119
3354.000000	7.599851
3352.000000	7.604365
3350.000000	7.608719
3348.000000	7.610003
3346.000000	7.610985
3344.000000	7.614522
3342.000000	7.618970
3340.000000	7.621330
3338.000000	7.623684
3336.000000	7.628553
3334.000000	7.632725
3332.000000	7.635536
3330.000000	7.638577
3328.000000	7.640522
3326.000000	7.643015
3324.000000	7.646502
3322.000000	7.648479
3320.000000	7.650427
3318.000000	7.652349
3316.000000	7.654030
3314.000000	7.657022
3312.000000	7.660573
3310.000000	7.663101
3308.000000	7.663075
3306.000000	7.664820
3304.000000	7.668043
3302.000000	7.670071
3300.000000	7.672291
3298.000000	7.674435
3296.000000	7.676030
3294.000000	7.677918
3292.000000	7.679983
3290.000000	7.681541
3288.000000	7.683955
3286.000000	7.687097
3284.000000	7.690567
3282.000000	7.692647
3280.000000	7.694325
3278.000000	7.697220
3276.000000	7.700072
3274.000000	7.703084
3272.000000	7.705192
3270.000000	7.707067
3268.000000	7.710244
3266.000000	7.714743
3264.000000	7.718786
3262.000000	7.720793
3260.000000	7.722925
3258.000000	7.725955
3256.000000	7.727994
3254.000000	7.730626
3252.000000	7.735264
3250.000000	7.739774
3248.000000	7.741725
3246.000000	7.744622
3244.000000	7.749250
3242.000000	7.752415
3240.000000	7.755179
3238.000000	7.758879
3236.000000	7.762620
3234.000000	7.766820
3232.000000	7.771418
3230.000000	7.775040
3228.000000	7.778835
3226.000000	7.782342
3224.000000	7.786639
3222.000000	7.789902
3220.000000	7.792758
3218.000000	7.797485
3216.000000	7.801566
3214.000000	7.805655
3212.000000	7.810205
3210.000000	7.813664
3208.000000	7.817755
3206.000000	7.823913
3204.000000	7.829905
3202.000000	7.834121
3200.000000	7.838478
3198.000000	7.845424
3196.000000	7.852640
3194.000000	7.858761
3192.000000	7.866249
3190.000000	7.874016
3188.000000	7.879875
3186.000000	7.883830
3184.000000	7.889217
3182.000000	7.896229
3180.000000	7.901999
3178.000000	7.906897
3176.000000	7.912334
3174.000000	7.918684
3172.000000	7.924026
3170.000000	7.930414
3168.000000	7.938459
3166.000000	7.946788
3164.000000	7.954477
3162.000000	7.959814
3160.000000	7.964824
3158.000000	7.970922
3156.000000	7.977863
3154.000000	7.983827
3152.000000	7.989338
3150.000000	7.997306
3148.000000	8.004431
3146.000000	8.011023
3144.000000	8.016834
3142.000000	8.021176
3140.000000	8.026620
3138.000000	8.033368
3136.000000	8.040777
3134.000000	8.047688
3132.000000	8.053166
3130.000000	8.058454
3128.000000	8.062432
3126.000000	8.065866
3124.000000	8.071037
3122.000000	8.077210
3120.000000	8.081817
3118.000000	8.083885
3116.000000	8.086569
3114.000000	8.092581
3112.000000	8.098363
3110.000000	8.103209
3108.000000	8.108839
3106.000000	8.112678
3104.000000	8.116827
3102.000000	8.121574
3100.000000	8.126277
3098.000000	8.132418
3096.000000	8.138677
3094.000000	8.144828
3092.000000	8.150768
3090.000000	8.154781
3088.000000	8.158971
3086.000000	8.164776
3084.000000	8.169116
3082.000000	8.171578
3080.000000	8.174471
3078.000000	8.177806
3076.000000	8.180117
3074.000000	8.181735
3072.000000	8.184027
3070.000000	8.186242
3068.000000	8.187539
3066.000000	8.189475
3064.000000	8.192178
3062.000000	8.196607
3060.000000	8.203609
3058.000000	8.210145
3056.000000	8.214810
3054.000000	8.218531
3052.000000	8.222242
3050.000000	8.227915
3048.000000	8.234226
3046.000000	8.238626
3044.000000	8.242386
3042.000000	8.246056
3040.000000	8.248739
3038.000000	8.250201
3036.000000	8.251699
3034.000000	8.253841
3032.000000	8.255377
3030.000000	8.253281
3028.000000	8.246618
3026.000000	8.237026
3024.000000	8.225857
3022.000000	8.216151
3020.000000	8.212377
3018.000000	8.218389
3016.000000	8.233989
3014.000000	8.257391
3012.000000	8.285901
3010.000000	8.312329
3008.000000	8.333146
3006.000000	8.349871
3004.000000	8.361154
3002.000000	8.369720
3000.000000	8.377037
2998.000000	8.382052
2996.000000	8.386155
2994.000000	8.389937
2992.000000	8.393968
2990.000000	8.395979
2988.000000	8.395400
2986.000000	8.394641
2984.000000	8.392324
2982.000000	8.386332
2980.000000	8.377830
2978.000000	8.365348
2976.000000	8.345717
2974.000000	8.317408
2972.000000	8.280761
2970.000000	8.236447
2968.000000	8.188663
2966.000000	8.146092
2964.000000	8.117037
2962.000000	8.106766
2960.000000	8.114565
2958.000000	8.136765
2956.000000	8.164160
2954.000000	8.186615
2952.000000	8.202518
2950.000000	8.214995
2948.000000	8.217559
2946.000000	8.205197
2944.000000	8.180592
2942.000000	8.145042
2940.000000	8.102797
2938.000000	8.061411
2936.000000	8.023362
2934.000000	7.988543
2932.000000	7.956801
2930.000000	7.926773
2928.000000	7.901100
2926.000000	7.891779
2924.000000	7.910132
2922.000000	7.956977
2920.000000	8.024885
2918.000000	8.104453
2916.000000	8.188126
2914.000000	8.266190
2912.000000	8.331303
2910.000000	8.383294
2908.000000	8.425360
2906.000000	8.460232
2904.000000	8.489771
2902.000000	8.518754
2900.000000	8.548560
2898.000000	8.576012
2896.000000	8.601232
2894.000000	8.624006
2892.000000	8.645976
2890.000000	8.666469
2888.000000	8.684561
2886.000000	8.700383
2884.000000	8.713316
2882.000000	8.721899
2880.000000	8.724608
2878.000000	8.722782
2876.000000	8.714946
2874.000000	8.700467
2872.000000	8.680247
2870.000000	8.650207
2868.000000	8.606916
2866.000000	8.556212
2864.000000	8.509697
2862.000000	8.483882
2860.000000	8.484986
2858.000000	8.504946
2856.000000	8.535806
2854.000000	8.573997
2852.000000	8.618829
2850.000000	8.672419
2848.000000	8.732943
2846.000000	8.792030
2844.000000	8.843771
2842.000000	8.887733
2840.000000	8.922427
2838.000000	8.948990
2836.000000	8.971261
2834.000000	8.990791
2832.000000	9.007304
2830.000000	9.022366
2828.000000	9.036752
2826.000000	9.049633
2824.000000	9.060931
2822.000000	9.072923
2820.000000	9.083491
2818.000000	9.091865
2816.000000	9.100917
2814.000000	9.110668
2812.000000	9.119718
2810.000000	9.128667
2808.000000	9.136632
2806.000000	9.140464
2804.000000	9.144303
2802.000000	9.150281
2800.000000	9.158702
2798.000000	9.166301
2796.000000	9.170475
2794.000000	9.176047
2792.000000	9.182792
2790.000000	9.188544
2788.000000	9.197055
2786.000000	9.206362
2784.000000	9.215399
2782.000000	9.225394
2780.000000	9.234810
2778.000000	9.242920
2776.000000	9.249809
2774.000000	9.256631
2772.000000	9.263172
2770.000000	9.269158
2768.000000	9.274742
2766.000000	9.280237
2764.000000	9.286513
2762.000000	9.291293
2760.000000	9.296703
2758.000000	9.302804
2756.000000	9.309118
2754.000000	9.314504
2752.000000	9.319163
2750.000000	9.323685
2748.000000	9.327532
2746.000000	9.331287
2744.000000	9.336029
2742.000000	9.340745
2740.000000	9.343606
2738.000000	9.345513
2736.000000	9.347797
2734.000000	9.351029
2732.000000	9.355003
2730.000000	9.359390
2728.000000	9.362916
2726.000000	9.364941
2724.000000	9.368492
2722.000000	9.373694
2720.000000	9.376902
2718.000000	9.378926
2716.000000	9.382228
2714.000000	9.385052
2712.000000	9.385772
2710.000000	9.386243
2708.000000	9.387623
2706.000000	9.389238
2704.000000	9.392521
2702.000000	9.396414
2700.000000	9.399385
2698.000000	9.402316
2696.000000	9.406927
2694.000000	9.411188
2692.000000	9.413191
2690.000000	9.413916
2688.000000	9.416568
2686.000000	9.420092
2684.000000	9.421670
2682.000000	9.422807
2680.000000	9.423115
2678.000000	9.424884
2676.000000	9.428335
2674.000000	9.429830
2672.000000	9.431125
2670.000000	9.432517
2668.000000	9.432334
2666.000000	9.432972
2664.000000	9.434116
2662.000000	9.433803
2660.000000	9.434875
2658.000000	9.435583
2656.000000	9.436349
2654.000000	9.438513
2652.000000	9.439883
2650.000000	9.440753
2648.000000	9.442143
2646.000000	9.443337
2644.000000	9.444685
2642.000000	9.444647
2640.000000	9.444494
2638.000000	9.445589
2636.000000	9.447957
2634.000000	9.449341
2632.000000	9.449129
2630.000000	9.448633
2628.000000	9.447889
2626.000000	9.447705
2624.000000	9.448040
2622.000000	9.447047
2620.000000	9.446047
2618.000000	9.445063
2616.000000	9.443746
2614.000000	9.443262
2612.000000	9.442604
2610.000000	9.441203
2608.000000	9.441293
2606.000000	9.440356
2604.000000	9.437746
2602.000000	9.435843
2600.000000	9.433608
2598.000000	9.432047
2596.000000	9.431793
2594.000000	9.430926
2592.000000	9.429147
2590.000000	9.428430
2588.000000	9.429824
2586.000000	9.431401
2584.000000	9.434422
2582.000000	9.437301
2580.000000	9.438935
2578.000000	9.442151
2576.000000	9.444535
2574.000000	9.444817
2572.000000	9.445736
2570.000000	9.445773
2568.000000	9.446044
2566.000000	9.448941
2564.000000	9.450451
2562.000000	9.448739
2560.000000	9.447682
2558.000000	9.446615
2556.000000	9.446618
2554.000000	9.446144
2552.000000	9.443747
2550.000000	9.442366
2548.000000	9.442314
2546.000000	9.442202
2544.000000	9.442247
2542.000000	9.441314
2540.000000	9.438665
2538.000000	9.436625
2536.000000	9.435953
2534.000000	9.434188
2532.000000	9.432606
2530.000000	9.432055
2528.000000	9.429638
2526.000000	9.427575
2524.000000	9.426927
2522.000000	9.425039
2520.000000	9.422902
2518.000000	9.421534
2516.000000	9.421129
2514.000000	9.418952
2512.000000	9.415932
2510.000000	9.414333
2508.000000	9.413976
2506.000000	9.412219
2504.000000	9.409158
2502.000000	9.407304
2500.000000	9.406866
2498.000000	9.406684
2496.000000	9.404767
2494.000000	9.401650
2492.000000	9.399404
2490.000000	9.398772
2488.000000	9.397601
2486.000000	9.395532
2484.000000	9.393544
2482.000000	9.391735
2480.000000	9.390699
2478.000000	9.389661
2476.000000	9.387669
2474.000000	9.384426
2472.000000	9.382724
2470.000000	9.381771
2468.000000	9.379614
2466.000000	9.375768
2464.000000	9.374141
2462.000000	9.373074
2460.000000	9.370364
2458.000000	9.367716
2456.000000	9.365907
2454.000000	9.363120
2452.000000	9.359752
2450.000000	9.358798
2448.000000	9.358576
2446.000000	9.357422
2444.000000	9.356750
2442.000000	9.356371
2440.000000	9.356140
2438.000000	9.356031
2436.000000	9.355687
2434.000000	9.354463
2432.000000	9.353257
2430.000000	9.353882
2428.000000	9.354536
2426.000000	9.354739
2424.000000	9.356540
2422.000000	9.360484
2420.000000	9.364833
2418.000000	9.366509
2416.000000	9.368602
2414.000000	9.372036
2412.000000	9.375815
2410.000000	9.379212
2408.000000	9.383673
2406.000000	9.387751
2404.000000	9.390505
2402.000000	9.392804
2400.000000	9.395838
2398.000000	9.399309
2396.000000	9.403367
2394.000000	9.406961
2392.000000	9.410143
2390.000000	9.411613
2388.000000	9.413325
2386.000000	9.414567
2384.000000	9.414080
2382.000000	9.410741
2380.000000	9.403949
2378.000000	9.394659
2376.000000	9.381404
2374.000000	9.364060
2372.000000	9.344340
2370.000000	9.324260
2368.000000	9.304517
2366.000000	9.286976
2364.000000	9.276278
2362.000000	9.272768
2360.000000	9.276413
2358.000000	9.288006
2356.000000	9.307802
2354.000000	9.332423
2352.000000	9.358835
2350.000000	9.376431
2348.000000	9.369119
2346.000000	9.342605
2344.000000	9.310713
2342.000000	9.281307
2340.000000	9.265027
2338.000000	9.267512
2336.000000	9.281074
2334.000000	9.290996
2332.000000	9.296406
2330.000000	9.303668
2328.000000	9.311514
2326.000000	9.320387
2324.000000	9.329368
2322.000000	9.335239
2320.000000	9.341388
2318.000000	9.348457
2316.000000	9.353476
2314.000000	9.357383
2312.000000	9.363056
2310.000000	9.367428
2308.000000	9.369272
2306.000000	9.370108
2304.000000	9.369288
2302.000000	9.370120
2300.000000	9.372334
2298.000000	9.371819
2296.000000	9.370289
2294.000000	9.369206
2292.000000	9.368608
2290.000000	9.367536
2288.000000	9.366878
2286.000000	9.364166
2284.000000	9.362217
2282.000000	9.362383
2280.000000	9.360599
2278.000000	9.358415
2276.000000	9.355191
2274.000000	9.352460
2272.000000	9.350732
2270.000000	9.346870
2268.000000	9.344721
2266.000000	9.343877
2264.000000	9.342746
2262.000000	9.340025
2260.000000	9.337169
2258.000000	9.334853
2256.000000	9.332607
2254.000000	9.330834
2252.000000	9.329864
2250.000000	9.330178
2248.000000	9.330489
2246.000000	9.329471
2244.000000	9.329359
2242.000000	9.328814
2240.000000	9.327392
2238.000000	9.327169
2236.000000	9.328953
2234.000000	9.330226
2232.000000	9.330941
2230.000000	9.332123
2228.000000	9.332506
2226.000000	9.333016
2224.000000	9.334734
2222.000000	9.335336
2220.000000	9.334882
2218.000000	9.335775
2216.000000	9.336514
2214.000000	9.335073
2212.000000	9.334543
2210.000000	9.334840
2208.000000	9.335102
2206.000000	9.335357
2204.000000	9.336744
2202.000000	9.338873
2200.000000	9.340126
2198.000000	9.340104
2196.000000	9.341349
2194.000000	9.341941
2192.000000	9.341623
2190.000000	9.344004
2188.000000	9.347486
2186.000000	9.348727
2184.000000	9.347235
2182.000000	9.346275
2180.000000	9.347384
2178.000000	9.348066
2176.000000	9.349066
2174.000000	9.350872
2172.000000	9.350000
2170.000000	9.347839
2168.000000	9.351855
2166.000000	9.355246
2164.000000	9.356533
2162.000000	9.359669
2160.000000	9.361047
2158.000000	9.363420
2156.000000	9.366316
2154.000000	9.366393
2152.000000	9.367664
2150.000000	9.369968
2148.000000	9.372292
2146.000000	9.374549
2144.000000	9.377246
2142.000000	9.379306
2140.000000	9.381341
2138.000000	9.384704
2136.000000	9.387958
2134.000000	9.389421
2132.000000	9.391416
2130.000000	9.395191
2128.000000	9.399107
2126.000000	9.402046
2124.000000	9.403989
2122.000000	9.405083
2120.000000	9.408187
2118.000000	9.413569
2116.000000	9.416922
2114.000000	9.419865
2112.000000	9.424356
2110.000000	9.428814
2108.000000	9.435066
2106.000000	9.441718
2104.000000	9.445472
2102.000000	9.449588
2100.000000	9.454963
2098.000000	9.459018
2096.000000	9.463437
2094.000000	9.468303
2092.000000	9.473339
2090.000000	9.479458
2088.000000	9.485216
2086.000000	9.490186
2084.000000	9.496343
2082.000000	9.501779
2080.000000	9.506138
2078.000000	9.511657
2076.000000	9.518030
2074.000000	9.523364
2072.000000	9.529242
2070.000000	9.535354
2068.000000	9.540034
2066.000000	9.544364
2064.000000	9.550801
2062.000000	9.557184
2060.000000	9.563051
2058.000000	9.568712
2056.000000	9.575279
2054.000000	9.582174
2052.000000	9.589314
2050.000000	9.594584
2048.000000	9.599249
2046.000000	9.602805
2044.000000	9.606116
2042.000000	9.612196
2040.000000	9.620643
2038.000000	9.626309
2036.000000	9.630764
2034.000000	9.635897
2032.000000	9.639927
2030.000000	9.641405
2028.000000	9.645189
2026.000000	9.651915
2024.000000	9.657990
2022.000000	9.661788
2020.000000	9.664122
2018.000000	9.667787
2016.000000	9.674581
2014.000000	9.681673
2012.000000	9.686391
2010.000000	9.691261
2008.000000	9.695513
2006.000000	9.697481
2004.000000	9.701741
2002.000000	9.705829
2000.000000	9.707995
1998.000000	9.710319
1996.000000	9.713506
1994.000000	9.713212
1992.000000	9.713655
1990.000000	9.717718
1988.000000	9.720144
1986.000000	9.722844
1984.000000	9.724659
1982.000000	9.726070
1980.000000	9.726301
1978.000000	9.725233
1976.000000	9.725797
1974.000000	9.726606
1972.000000	9.726827
1970.000000	9.723796
1968.000000	9.719139
1966.000000	9.719096
1964.000000	9.719373
1962.000000	9.712365
1960.000000	9.700896
1958.000000	9.701668
1956.000000	9.712016
1954.000000	9.714824
1952.000000	9.713698
1950.000000	9.710846
1948.000000	9.707349
1946.000000	9.702462
1944.000000	9.695322
1942.000000	9.693301
1940.000000	9.698819
1938.000000	9.698703
1936.000000	9.696397
1934.000000	9.694246
1932.000000	9.691402
1930.000000	9.686150
1928.000000	9.681484
1926.000000	9.676784
1924.000000	9.668889
1922.000000	9.662761
1920.000000	9.653056
1918.000000	9.643288
1916.000000	9.648514
1914.000000	9.648365
1912.000000	9.640432
1910.000000	9.631938
1908.000000	9.627275
1906.000000	9.622325
1904.000000	9.616779
1902.000000	9.610499
1900.000000	9.604360
1898.000000	9.596154
1896.000000	9.588640
1894.000000	9.583821
1892.000000	9.576768
1890.000000	9.566575
1888.000000	9.569464
1886.000000	9.571641
1884.000000	9.569357
1882.000000	9.564747
1880.000000	9.558740
1878.000000	9.555091
1876.000000	9.551953
1874.000000	9.545989
1872.000000	9.533142
1870.000000	9.510635
1868.000000	9.507773
1866.000000	9.519755
1864.000000	9.523738
1862.000000	9.518953
1860.000000	9.513981
1858.000000	9.508775
1856.000000	9.503897
1854.000000	9.497414
1852.000000	9.491214
1850.000000	9.483065
1848.000000	9.468768
1846.000000	9.435472
1844.000000	9.416860
1842.000000	9.437575
1840.000000	9.447961
1838.000000	9.440229
1836.000000	9.431464
1834.000000	9.421695
1832.000000	9.398345
1830.000000	9.376064
1828.000000	9.375709
1826.000000	9.368559
1824.000000	9.364945
1822.000000	9.364756
1820.000000	9.356961
1818.000000	9.347071
1816.000000	9.337823
1814.000000	9.323817
1812.000000	9.306314
1810.000000	9.294468
1808.000000	9.286251
1806.000000	9.274136
1804.000000	9.256549
1802.000000	9.233090
1800.000000	9.217859
1798.000000	9.210244
1796.000000	9.192689
1794.000000	9.150662
1792.000000	9.128377
1790.000000	9.142405
1788.000000	9.143285
1786.000000	9.120621
1784.000000	9.105398
1782.000000	9.093801
1780.000000	9.080728
1778.000000	9.068539
1776.000000	9.038914
1774.000000	8.981174
1772.000000	8.954277
1770.000000	8.969654
1768.000000	8.974281
1766.000000	8.979347
1764.000000	8.958349
1762.000000	8.927941
1760.000000	8.923960
1758.000000	8.910161
1756.000000	8.892993
1754.000000	8.866858
1752.000000	8.813182
1750.000000	8.793555
1748.000000	8.797566
1746.000000	8.790337
1744.000000	8.770702
1742.000000	8.740645
1740.000000	8.712658
1738.000000	8.702175
1736.000000	8.637894
1734.000000	8.585711
1732.000000	8.636402
1730.000000	8.674477
1728.000000	8.678774
1726.000000	8.672051
1724.000000	8.660220
1722.000000	8.643110
1720.000000	8.586729
1718.000000	8.517265
1716.000000	8.534020
1714.000000	8.578946
1712.000000	8.594130
1710.000000	8.582659
1708.000000	8.557133
1706.000000	8.528896
1704.000000	8.511583
1702.000000	8.438665
1700.000000	8.395019
1698.000000	8.410816
1696.000000	8.404846
1694.000000	8.468230
1692.000000	8.511682
1690.000000	8.500769
1688.000000	8.466702
1686.000000	8.373777
1684.000000	8.350057
1682.000000	8.429798
1680.000000	8.465708
1678.000000	8.448447
1676.000000	8.407510
1674.000000	8.408481
1672.000000	8.404672
1670.000000	8.377354
1668.000000	8.391413
1666.000000	8.407092
1664.000000	8.382237
1662.000000	8.371623
1660.000000	8.380888
1658.000000	8.366140
1656.000000	8.280814
1654.000000	8.143173
1652.000000	8.167898
1650.000000	8.269946
1648.000000	8.250032
1646.000000	8.229430
1644.000000	8.266027
1642.000000	8.279859
1640.000000	8.259855
1638.000000	8.203090
1636.000000	8.143519
1634.000000	8.170576
1632.000000	8.203593
1630.000000	8.184252
1628.000000	8.152927
1626.000000	8.118721
1624.000000	8.070551
1622.000000	8.041042
1620.000000	8.003369
1618.000000	7.920298
1616.000000	7.882516
1614.000000	7.885127
1612.000000	7.839838
1610.000000	7.786001
1608.000000	7.759710
1606.000000	7.764531
1604.000000	7.782351
1602.000000	7.803827
1600.000000	7.823549
1598.000000	7.840897
1596.000000	7.854652
1594.000000	7.864339
1592.000000	7.868587
1590.000000	7.868550
1588.000000	7.863835
1586.000000	7.856378
1584.000000	7.849988
1582.000000	7.846061
1580.000000	7.833152
1578.000000	7.775604
1576.000000	7.742862
1574.000000	7.793947
1572.000000	7.799254
1570.000000	7.767947
1568.000000	7.770957
1566.000000	7.768822
1564.000000	7.739693
1562.000000	7.651468
1560.000000	7.527776
1558.000000	7.540364
1556.000000	7.626655
1554.000000	7.673287
1552.000000	7.713349
1550.000000	7.738268
1548.000000	7.751241
1546.000000	7.743246
1544.000000	7.719661
1542.000000	7.674702
1540.000000	7.659615
1538.000000	7.750240
1536.000000	7.825686
1534.000000	7.825896
1532.000000	7.845960
1530.000000	7.864683
1528.000000	7.852717
1526.000000	7.833649
1524.000000	7.807203
1522.000000	7.763891
1520.000000	7.772917
1518.000000	7.786747
1516.000000	7.777903
1514.000000	7.770204
1512.000000	7.752245
1510.000000	7.710378
1508.000000	7.611314
1506.000000	7.559818
1504.000000	7.571490
1502.000000	7.485320
1500.000000	7.262254
1498.000000	6.970370
1496.000000	6.758719
1494.000000	6.737027
1492.000000	6.841406
1490.000000	7.001347
1488.000000	7.171019
1486.000000	7.306525
1484.000000	7.395293
1482.000000	7.436577
1480.000000	7.455401
1478.000000	7.449303
1476.000000	7.419926
1474.000000	7.377762
1472.000000	7.366931
1470.000000	7.384259
1468.000000	7.363634
1466.000000	7.312850
1464.000000	7.282774
1462.000000	7.256740
1460.000000	7.169803
1458.000000	7.029473
1456.000000	6.946764
1454.000000	6.914317
1452.000000	6.870401
1450.000000	6.881771
1448.000000	6.959700
1446.000000	7.044449
1444.000000	7.085368
1442.000000	7.094220
1440.000000	7.084903
1438.000000	7.055197
1436.000000	7.058584
1434.000000	7.097226
1432.000000	7.103174
1430.000000	7.097566
1428.000000	7.099433
1426.000000	7.099394
1424.000000	7.093705
1422.000000	7.072675
1420.000000	7.029230
1418.000000	7.027361
1416.000000	7.040373
1414.000000	7.027155
1412.000000	6.995869
1410.000000	6.951012
1408.000000	6.883743
1406.000000	6.812698
1404.000000	6.776106
1402.000000	6.780454
1400.000000	6.804101
1398.000000	6.846107
1396.000000	6.880293
1394.000000	6.909405
1392.000000	6.937208
1390.000000	6.935591
1388.000000	6.907761
1386.000000	6.886156
1384.000000	6.881871
1382.000000	6.893936
1380.000000	6.902362
1378.000000	6.897006
1376.000000	6.882949
1374.000000	6.873258
1372.000000	6.872321
1370.000000	6.866890
1368.000000	6.857787
1366.000000	6.845620
1364.000000	6.823993
1362.000000	6.808420
1360.000000	6.801861
1358.000000	6.791307
1356.000000	6.774647
1354.000000	6.758996
1352.000000	6.744256
1350.000000	6.726753
1348.000000	6.706726
1346.000000	6.686307
1344.000000	6.665299
1342.000000	6.642709
1340.000000	6.622685
1338.000000	6.612654
1336.000000	6.608094
1334.000000	6.601875
1332.000000	6.589510
1330.000000	6.572739
1328.000000	6.553204
1326.000000	6.533689
1324.000000	6.511927
1322.000000	6.487517
1320.000000	6.459595
1318.000000	6.434273
1316.000000	6.411859
1314.000000	6.386157
1312.000000	6.359140
1310.000000	6.333576
1308.000000	6.304756
1306.000000	6.272915
1304.000000	6.244436
1302.000000	6.218456
1300.000000	6.188415
1298.000000	6.156789
1296.000000	6.127116
1294.000000	6.097503
1292.000000	6.063525
1290.000000	6.027618
1288.000000	5.991482
1286.000000	5.956440
1284.000000	5.920798
1282.000000	5.883618
1280.000000	5.843070
1278.000000	5.799632
1276.000000	5.751606
1274.000000	5.695409
1272.000000	5.627569
1270.000000	5.543380
1268.000000	5.434431
1266.000000	5.304127
1264.000000	5.171393
1262.000000	5.068128
1260.000000	5.019394
1258.000000	5.026708
1256.000000	5.062784
1254.000000	5.093514
1252.000000	5.101428
1250.000000	5.085649
1248.000000	5.051095
1246.000000	5.008762
1244.000000	4.964149
1242.000000	4.917087
1240.000000	4.870109
1238.000000	4.826186
1236.000000	4.784568
1234.000000	4.743805
1232.000000	4.704393
1230.000000	4.664590
1228.000000	4.622936
1226.000000	4.581228
1224.000000	4.541023
1222.000000	4.498176
1220.000000	4.452913
1218.000000	4.406400
1216.000000	4.358926
1214.000000	4.312374
1212.000000	4.269391
1210.000000	4.230846
1208.000000	4.193256
1206.000000	4.156823
1204.000000	4.120396
1202.000000	4.082964
1200.000000	4.047084
1198.000000	4.011748
1196.000000	3.974111
1194.000000	3.936317
1192.000000	3.899048
1190.000000	3.861419
1188.000000	3.819707
1186.000000	3.774463
1184.000000	3.720264
1182.000000	3.654391
1180.000000	3.605695
1178.000000	3.583961
1176.000000	3.561705
1174.000000	3.529784
1172.000000	3.489801
1170.000000	3.446285
1168.000000	3.401435
1166.000000	3.358003
1164.000000	3.315820
1162.000000	3.275609
1160.000000	3.235701
1158.000000	3.195625
1156.000000	3.156648
1154.000000	3.118790
1152.000000	3.080242
1150.000000	3.042339
1148.000000	3.002898
1146.000000	2.963209
1144.000000	2.924927
1142.000000	2.890854
1140.000000	2.863521
1138.000000	2.836674
1136.000000	2.804328
1134.000000	2.766182
1132.000000	2.727239
1130.000000	2.690257
1128.000000	2.651877
1126.000000	2.613690
1124.000000	2.575453
1122.000000	2.536590
1120.000000	2.497024
1118.000000	2.455572
1116.000000	2.411965
1114.000000	2.369185
1112.000000	2.327599
1110.000000	2.285854
1108.000000	2.245024
1106.000000	2.205854
1104.000000	2.167689
1102.000000	2.130627
1100.000000	2.093398
1098.000000	2.057348
1096.000000	2.022338
1094.000000	1.988406
1092.000000	1.955501
1090.000000	1.924359
1088.000000	1.894634
1086.000000	1.866862
1084.000000	1.838586
1082.000000	1.809103
1080.000000	1.780430
1078.000000	1.753702
1076.000000	1.730335
1074.000000	1.712729
1072.000000	1.696759
1070.000000	1.679692
1068.000000	1.661792
1066.000000	1.643146
1064.000000	1.624498
1062.000000	1.607387
1060.000000	1.587361
1058.000000	1.561392
1056.000000	1.527538
1054.000000	1.482938
1052.000000	1.437928
1050.000000	1.413946
1048.000000	1.414867
1046.000000	1.424297
1044.000000	1.426252
1042.000000	1.417132
1040.000000	1.402531
1038.000000	1.386635
1036.000000	1.367131
1034.000000	1.345597
1032.000000	1.324269
1030.000000	1.303098
1028.000000	1.278527
1026.000000	1.254611
1024.000000	1.232717
1022.000000	1.208514
1020.000000	1.184150
1018.000000	1.163108
1016.000000	1.144133
1014.000000	1.128056
1012.000000	1.114335
1010.000000	1.100192
1008.000000	1.084621
1006.000000	1.068906
1004.000000	1.052461
1002.000000	1.034734
1000.000000	1.015022
