PE IR       SUBTECH     SPECTRUM    ASCII       PEDS        4.00        
   -1
TE109A_037_80K_after_105K_SB.ASC
20/04/21
14:47:20.00
20/04/21
14:47:20.00
Administrator
TE109A, Tuesday, April 21 2020, 037.
1000.000000
#HDR
-1
-1
#GR
cm-1
EGY
1.0
0.0
6000.000000
-2.000000
2501
8
6.894867
0.707559
#DATA
6000.000000	1.254964
5998.000000	1.258329
5996.000000	1.260813
5994.000000	1.263990
5992.000000	1.267747
5990.000000	1.270924
5988.000000	1.273827
5986.000000	1.275013
5984.000000	1.277760
5982.000000	1.280737
5980.000000	1.284437
5978.000000	1.287177
5976.000000	1.288808
5974.000000	1.291690
5972.000000	1.294871
5970.000000	1.298381
5968.000000	1.300389
5966.000000	1.300573
5964.000000	1.301973
5962.000000	1.304915
5960.000000	1.309311
5958.000000	1.312515
5956.000000	1.314559
5954.000000	1.315737
5952.000000	1.317312
5950.000000	1.320119
5948.000000	1.321742
5946.000000	1.324584
5944.000000	1.328949
5942.000000	1.333455
5940.000000	1.337224
5938.000000	1.339757
5936.000000	1.341618
5934.000000	1.344333
5932.000000	1.345904
5930.000000	1.348266
5928.000000	1.351351
5926.000000	1.353386
5924.000000	1.354738
5922.000000	1.356903
5920.000000	1.359554
5918.000000	1.362509
5916.000000	1.365643
5914.000000	1.368983
5912.000000	1.373555
5910.000000	1.377484
5908.000000	1.380919
5906.000000	1.383352
5904.000000	1.384625
5902.000000	1.386484
5900.000000	1.389926
5898.000000	1.393538
5896.000000	1.396065
5894.000000	1.398505
5892.000000	1.401794
5890.000000	1.405494
5888.000000	1.406980
5886.000000	1.407597
5884.000000	1.409853
5882.000000	1.414145
5880.000000	1.417760
5878.000000	1.419222
5876.000000	1.421363
5874.000000	1.424571
5872.000000	1.428774
5870.000000	1.431069
5868.000000	1.432752
5866.000000	1.436324
5864.000000	1.439421
5862.000000	1.442080
5860.000000	1.443235
5858.000000	1.445008
5856.000000	1.448508
5854.000000	1.453177
5852.000000	1.459083
5850.000000	1.463355
5848.000000	1.466209
5846.000000	1.468114
5844.000000	1.470436
5842.000000	1.473075
5840.000000	1.475327
5838.000000	1.477468
5836.000000	1.480417
5834.000000	1.484036
5832.000000	1.487877
5830.000000	1.491506
5828.000000	1.494640
5826.000000	1.497741
5824.000000	1.501360
5822.000000	1.504979
5820.000000	1.507882
5818.000000	1.509428
5816.000000	1.511272
5814.000000	1.514729
5812.000000	1.519143
5810.000000	1.523172
5808.000000	1.525344
5806.000000	1.526534
5804.000000	1.529424
5802.000000	1.534079
5800.000000	1.538496
5798.000000	1.541533
5796.000000	1.545118
5794.000000	1.549594
5792.000000	1.552718
5790.000000	1.553626
5788.000000	1.555428
5786.000000	1.559286
5784.000000	1.562533
5782.000000	1.563697
5780.000000	1.564401
5778.000000	1.566586
5776.000000	1.571467
5774.000000	1.577110
5772.000000	1.581970
5770.000000	1.584901
5768.000000	1.587276
5766.000000	1.590005
5764.000000	1.593526
5762.000000	1.597497
5760.000000	1.601337
5758.000000	1.605041
5756.000000	1.608233
5754.000000	1.611381
5752.000000	1.614565
5750.000000	1.617436
5748.000000	1.619620
5746.000000	1.622157
5744.000000	1.625419
5742.000000	1.629866
5740.000000	1.634188
5738.000000	1.637370
5736.000000	1.639644
5734.000000	1.640939
5732.000000	1.643133
5730.000000	1.646836
5728.000000	1.650501
5726.000000	1.652711
5724.000000	1.654304
5722.000000	1.657558
5720.000000	1.661556
5718.000000	1.664734
5716.000000	1.667286
5714.000000	1.671578
5712.000000	1.676333
5710.000000	1.680148
5708.000000	1.682920
5706.000000	1.686531
5704.000000	1.689719
5702.000000	1.692550
5700.000000	1.695403
5698.000000	1.699969
5696.000000	1.705150
5694.000000	1.709354
5692.000000	1.712434
5690.000000	1.715597
5688.000000	1.718052
5686.000000	1.719880
5684.000000	1.722810
5682.000000	1.726015
5680.000000	1.728870
5678.000000	1.732110
5676.000000	1.736525
5674.000000	1.741560
5672.000000	1.745319
5670.000000	1.748144
5668.000000	1.752113
5666.000000	1.755146
5664.000000	1.757142
5662.000000	1.760444
5660.000000	1.764719
5658.000000	1.769858
5656.000000	1.773148
5654.000000	1.776421
5652.000000	1.779874
5650.000000	1.783846
5648.000000	1.786956
5646.000000	1.790471
5644.000000	1.792589
5642.000000	1.793656
5640.000000	1.795637
5638.000000	1.800212
5636.000000	1.805539
5634.000000	1.809419
5632.000000	1.812692
5630.000000	1.816156
5628.000000	1.819753
5626.000000	1.823542
5624.000000	1.826824
5622.000000	1.830383
5620.000000	1.832801
5618.000000	1.834541
5616.000000	1.837323
5614.000000	1.841289
5612.000000	1.846430
5610.000000	1.850337
5608.000000	1.853554
5606.000000	1.855921
5604.000000	1.859155
5602.000000	1.862757
5600.000000	1.867617
5598.000000	1.872021
5596.000000	1.875874
5594.000000	1.878958
5592.000000	1.881621
5590.000000	1.883945
5588.000000	1.888087
5586.000000	1.893233
5584.000000	1.897863
5582.000000	1.901082
5580.000000	1.902534
5578.000000	1.904904
5576.000000	1.910322
5574.000000	1.916371
5572.000000	1.921094
5570.000000	1.923857
5568.000000	1.925693
5566.000000	1.927931
5564.000000	1.931015
5562.000000	1.935572
5560.000000	1.940231
5558.000000	1.943480
5556.000000	1.946420
5554.000000	1.951155
5552.000000	1.956618
5550.000000	1.961693
5548.000000	1.964411
5546.000000	1.967389
5544.000000	1.970278
5542.000000	1.973129
5540.000000	1.975935
5538.000000	1.980236
5536.000000	1.985199
5534.000000	1.989218
5532.000000	1.992283
5530.000000	1.995772
5528.000000	1.998561
5526.000000	2.000836
5524.000000	2.004445
5522.000000	2.008251
5520.000000	2.012509
5518.000000	2.015655
5516.000000	2.018919
5514.000000	2.022631
5512.000000	2.025136
5510.000000	2.028524
5508.000000	2.032488
5506.000000	2.038483
5504.000000	2.042623
5502.000000	2.045610
5500.000000	2.048586
5498.000000	2.052544
5496.000000	2.056679
5494.000000	2.059765
5492.000000	2.064125
5490.000000	2.068882
5488.000000	2.073877
5486.000000	2.078604
5484.000000	2.082136
5482.000000	2.085004
5480.000000	2.087518
5478.000000	2.090032
5476.000000	2.093197
5474.000000	2.097075
5472.000000	2.101545
5470.000000	2.105694
5468.000000	2.109479
5466.000000	2.113215
5464.000000	2.117732
5462.000000	2.122505
5460.000000	2.126948
5458.000000	2.130095
5456.000000	2.132390
5454.000000	2.136606
5452.000000	2.141994
5450.000000	2.146403
5448.000000	2.148691
5446.000000	2.151035
5444.000000	2.154992
5442.000000	2.159755
5440.000000	2.162801
5438.000000	2.165509
5436.000000	2.169673
5434.000000	2.174113
5432.000000	2.176912
5430.000000	2.178960
5428.000000	2.182398
5426.000000	2.187541
5424.000000	2.191587
5422.000000	2.194860
5420.000000	2.198919
5418.000000	2.202513
5416.000000	2.205013
5414.000000	2.207067
5412.000000	2.212007
5410.000000	2.218023
5408.000000	2.223365
5406.000000	2.228636
5404.000000	2.234289
5402.000000	2.237820
5400.000000	2.238986
5398.000000	2.240557
5396.000000	2.244687
5394.000000	2.249065
5392.000000	2.253204
5390.000000	2.257314
5388.000000	2.260837
5386.000000	2.264015
5384.000000	2.266628
5382.000000	2.271533
5380.000000	2.275220
5378.000000	2.279176
5376.000000	2.282436
5374.000000	2.286346
5372.000000	2.290593
5370.000000	2.295317
5368.000000	2.300640
5366.000000	2.304038
5364.000000	2.307755
5362.000000	2.313054
5360.000000	2.317607
5358.000000	2.319692
5356.000000	2.320122
5354.000000	2.321887
5352.000000	2.325596
5350.000000	2.330478
5348.000000	2.334333
5346.000000	2.336959
5344.000000	2.339095
5342.000000	2.341992
5340.000000	2.346129
5338.000000	2.351461
5336.000000	2.356970
5334.000000	2.360878
5332.000000	2.363215
5330.000000	2.366359
5328.000000	2.370521
5326.000000	2.375272
5324.000000	2.379442
5322.000000	2.383530
5320.000000	2.387361
5318.000000	2.390361
5316.000000	2.392726
5314.000000	2.394783
5312.000000	2.398668
5310.000000	2.402691
5308.000000	2.406067
5306.000000	2.408859
5304.000000	2.412223
5302.000000	2.416399
5300.000000	2.420689
5298.000000	2.424396
5296.000000	2.427291
5294.000000	2.429018
5292.000000	2.430835
5290.000000	2.434329
5288.000000	2.439005
5286.000000	2.441802
5284.000000	2.441742
5282.000000	2.443369
5280.000000	2.449263
5278.000000	2.454989
5276.000000	2.457615
5274.000000	2.458826
5272.000000	2.461393
5270.000000	2.464725
5268.000000	2.467491
5266.000000	2.468538
5264.000000	2.470184
5262.000000	2.474061
5260.000000	2.479338
5258.000000	2.483144
5256.000000	2.485309
5254.000000	2.487669
5252.000000	2.489590
5250.000000	2.490822
5248.000000	2.491783
5246.000000	2.494393
5244.000000	2.499091
5242.000000	2.502699
5240.000000	2.505332
5238.000000	2.505986
5236.000000	2.506449
5234.000000	2.507027
5232.000000	2.508939
5230.000000	2.510860
5228.000000	2.512666
5226.000000	2.514729
5224.000000	2.517908
5222.000000	2.519459
5220.000000	2.521221
5218.000000	2.524018
5216.000000	2.527484
5214.000000	2.530222
5212.000000	2.531939
5210.000000	2.532685
5208.000000	2.532757
5206.000000	2.533628
5204.000000	2.536557
5202.000000	2.539582
5200.000000	2.541679
5198.000000	2.542717
5196.000000	2.543295
5194.000000	2.545463
5192.000000	2.547497
5190.000000	2.549034
5188.000000	2.550291
5186.000000	2.552765
5184.000000	2.553973
5182.000000	2.554266
5180.000000	2.555019
5178.000000	2.557867
5176.000000	2.560969
5174.000000	2.563438
5172.000000	2.564545
5170.000000	2.565843
5168.000000	2.567593
5166.000000	2.569634
5164.000000	2.571863
5162.000000	2.575059
5160.000000	2.578270
5158.000000	2.581098
5156.000000	2.583501
5154.000000	2.585190
5152.000000	2.586297
5150.000000	2.587143
5148.000000	2.587344
5146.000000	2.588883
5144.000000	2.592258
5142.000000	2.595880
5140.000000	2.598053
5138.000000	2.601031
5136.000000	2.604948
5134.000000	2.607733
5132.000000	2.609858
5130.000000	2.612606
5128.000000	2.614502
5126.000000	2.614556
5124.000000	2.615203
5122.000000	2.618609
5120.000000	2.623318
5118.000000	2.627901
5116.000000	2.631330
5114.000000	2.634107
5112.000000	2.636319
5110.000000	2.638941
5108.000000	2.642030
5106.000000	2.645210
5104.000000	2.648352
5102.000000	2.652163
5100.000000	2.656286
5098.000000	2.659598
5096.000000	2.662546
5094.000000	2.666078
5092.000000	2.669917
5090.000000	2.674162
5088.000000	2.678463
5086.000000	2.681972
5084.000000	2.684611
5082.000000	2.688082
5080.000000	2.692734
5078.000000	2.697260
5076.000000	2.702016
5074.000000	2.706832
5072.000000	2.711472
5070.000000	2.714822
5068.000000	2.717047
5066.000000	2.719494
5064.000000	2.723377
5062.000000	2.726928
5060.000000	2.730460
5058.000000	2.734311
5056.000000	2.738744
5054.000000	2.742547
5052.000000	2.746216
5050.000000	2.751730
5048.000000	2.758078
5046.000000	2.762495
5044.000000	2.764875
5042.000000	2.767841
5040.000000	2.772419
5038.000000	2.776153
5036.000000	2.779152
5034.000000	2.782508
5032.000000	2.787316
5030.000000	2.792012
5028.000000	2.796030
5026.000000	2.799951
5024.000000	2.804969
5022.000000	2.810268
5020.000000	2.815231
5018.000000	2.818858
5016.000000	2.821062
5014.000000	2.823368
5012.000000	2.826846
5010.000000	2.831533
5008.000000	2.837522
5006.000000	2.842856
5004.000000	2.847690
5002.000000	2.851475
5000.000000	2.855236
4998.000000	2.859624
4996.000000	2.865919
4994.000000	2.871901
4992.000000	2.875686
4990.000000	2.879517
4988.000000	2.884679
4986.000000	2.889788
4984.000000	2.894191
4982.000000	2.898476
4980.000000	2.903027
4978.000000	2.906952
4976.000000	2.910708
4974.000000	2.914629
4972.000000	2.919481
4970.000000	2.925481
4968.000000	2.931775
4966.000000	2.938655
4964.000000	2.943769
4962.000000	2.946265
4960.000000	2.949537
4958.000000	2.955338
4956.000000	2.961544
4954.000000	2.966361
4952.000000	2.969734
4950.000000	2.973789
4948.000000	2.978493
4946.000000	2.983398
4944.000000	2.987223
4942.000000	2.992947
4940.000000	2.999669
4938.000000	3.004393
4936.000000	3.008208
4934.000000	3.013061
4932.000000	3.019078
4930.000000	3.025843
4928.000000	3.032721
4926.000000	3.038493
4924.000000	3.042503
4922.000000	3.045227
4920.000000	3.047975
4918.000000	3.051309
4916.000000	3.056547
4914.000000	3.063328
4912.000000	3.070382
4910.000000	3.076994
4908.000000	3.082903
4906.000000	3.088156
4904.000000	3.091828
4902.000000	3.095812
4900.000000	3.100755
4898.000000	3.106694
4896.000000	3.113597
4894.000000	3.120083
4892.000000	3.123485
4890.000000	3.126082
4888.000000	3.132513
4886.000000	3.141118
4884.000000	3.147303
4882.000000	3.152212
4880.000000	3.158853
4878.000000	3.165265
4876.000000	3.170408
4874.000000	3.175439
4872.000000	3.180225
4870.000000	3.184303
4868.000000	3.188519
4866.000000	3.194034
4864.000000	3.200285
4862.000000	3.206725
4860.000000	3.211651
4858.000000	3.217915
4856.000000	3.224575
4854.000000	3.230147
4852.000000	3.234736
4850.000000	3.240657
4848.000000	3.247373
4846.000000	3.253374
4844.000000	3.258728
4842.000000	3.262670
4840.000000	3.267781
4838.000000	3.274144
4836.000000	3.279728
4834.000000	3.283916
4832.000000	3.288572
4830.000000	3.294889
4828.000000	3.302056
4826.000000	3.309096
4824.000000	3.315353
4822.000000	3.321350
4820.000000	3.327436
4818.000000	3.332846
4816.000000	3.338273
4814.000000	3.344916
4812.000000	3.351171
4810.000000	3.356313
4808.000000	3.361702
4806.000000	3.367435
4804.000000	3.373028
4802.000000	3.378706
4800.000000	3.385742
4798.000000	3.394168
4796.000000	3.402568
4794.000000	3.408356
4792.000000	3.411994
4790.000000	3.416052
4788.000000	3.423166
4786.000000	3.431902
4784.000000	3.438614
4782.000000	3.442978
4780.000000	3.448518
4778.000000	3.456464
4776.000000	3.464310
4774.000000	3.470526
4772.000000	3.475907
4770.000000	3.482253
4768.000000	3.487423
4766.000000	3.491619
4764.000000	3.497047
4762.000000	3.504880
4760.000000	3.512614
4758.000000	3.518457
4756.000000	3.523211
4754.000000	3.528554
4752.000000	3.535008
4750.000000	3.542196
4748.000000	3.548590
4746.000000	3.553380
4744.000000	3.558521
4742.000000	3.565810
4740.000000	3.572022
4738.000000	3.576450
4736.000000	3.581725
4734.000000	3.588468
4732.000000	3.594697
4730.000000	3.600800
4728.000000	3.606944
4726.000000	3.612225
4724.000000	3.617081
4722.000000	3.622856
4720.000000	3.630110
4718.000000	3.637437
4716.000000	3.643871
4714.000000	3.650542
4712.000000	3.658023
4710.000000	3.664998
4708.000000	3.670585
4706.000000	3.675496
4704.000000	3.681143
4702.000000	3.688205
4700.000000	3.694576
4698.000000	3.699306
4696.000000	3.704625
4694.000000	3.712168
4692.000000	3.720618
4690.000000	3.726699
4688.000000	3.730465
4686.000000	3.735429
4684.000000	3.742560
4682.000000	3.749467
4680.000000	3.754553
4678.000000	3.759057
4676.000000	3.764660
4674.000000	3.770958
4672.000000	3.777395
4670.000000	3.783946
4668.000000	3.790540
4666.000000	3.796090
4664.000000	3.801303
4662.000000	3.805710
4660.000000	3.809375
4658.000000	3.814510
4656.000000	3.822367
4654.000000	3.830373
4652.000000	3.836300
4650.000000	3.841288
4648.000000	3.846922
4646.000000	3.852518
4644.000000	3.856433
4642.000000	3.860795
4640.000000	3.868321
4638.000000	3.876315
4636.000000	3.881593
4634.000000	3.884808
4632.000000	3.888523
4630.000000	3.894324
4628.000000	3.901880
4626.000000	3.909130
4624.000000	3.915711
4622.000000	3.922001
4620.000000	3.927418
4618.000000	3.931511
4616.000000	3.935512
4614.000000	3.941335
4612.000000	3.948006
4610.000000	3.953014
4608.000000	3.957923
4606.000000	3.964605
4604.000000	3.972007
4602.000000	3.978954
4600.000000	3.985104
4598.000000	3.990497
4596.000000	3.996330
4594.000000	4.002214
4592.000000	4.007537
4590.000000	4.013284
4588.000000	4.019828
4586.000000	4.026614
4584.000000	4.032613
4582.000000	4.037099
4580.000000	4.040987
4578.000000	4.046588
4576.000000	4.051659
4574.000000	4.056724
4572.000000	4.064231
4570.000000	4.072407
4568.000000	4.077301
4566.000000	4.081661
4564.000000	4.087117
4562.000000	4.092566
4560.000000	4.098062
4558.000000	4.104506
4556.000000	4.110146
4554.000000	4.114258
4552.000000	4.118475
4550.000000	4.123503
4548.000000	4.128744
4546.000000	4.134895
4544.000000	4.141150
4542.000000	4.146440
4540.000000	4.152081
4538.000000	4.158025
4536.000000	4.162970
4534.000000	4.168097
4532.000000	4.173937
4530.000000	4.179084
4528.000000	4.183389
4526.000000	4.189335
4524.000000	4.196575
4522.000000	4.203051
4520.000000	4.207677
4518.000000	4.212535
4516.000000	4.218184
4514.000000	4.223673
4512.000000	4.228698
4510.000000	4.234092
4508.000000	4.239597
4506.000000	4.245040
4504.000000	4.249740
4502.000000	4.254639
4500.000000	4.261859
4498.000000	4.268525
4496.000000	4.272022
4494.000000	4.276764
4492.000000	4.283644
4490.000000	4.289462
4488.000000	4.295211
4486.000000	4.301486
4484.000000	4.307572
4482.000000	4.314303
4480.000000	4.320376
4478.000000	4.324607
4476.000000	4.329456
4474.000000	4.335829
4472.000000	4.341732
4470.000000	4.346075
4468.000000	4.350329
4466.000000	4.355192
4464.000000	4.360580
4462.000000	4.366045
4460.000000	4.371770
4458.000000	4.377862
4456.000000	4.382824
4454.000000	4.385446
4452.000000	4.388790
4450.000000	4.394647
4448.000000	4.400181
4446.000000	4.405453
4444.000000	4.412419
4442.000000	4.418955
4440.000000	4.422185
4438.000000	4.425215
4436.000000	4.430780
4434.000000	4.438062
4432.000000	4.443806
4430.000000	4.448071
4428.000000	4.452876
4426.000000	4.458523
4424.000000	4.463016
4422.000000	4.467354
4420.000000	4.473044
4418.000000	4.478274
4416.000000	4.481222
4414.000000	4.485741
4412.000000	4.492836
4410.000000	4.498311
4408.000000	4.502946
4406.000000	4.508460
4404.000000	4.512419
4402.000000	4.515806
4400.000000	4.520360
4398.000000	4.525889
4396.000000	4.533026
4394.000000	4.538913
4392.000000	4.541156
4390.000000	4.542648
4388.000000	4.546728
4386.000000	4.553133
4384.000000	4.559927
4382.000000	4.565744
4380.000000	4.569798
4378.000000	4.572562
4376.000000	4.576338
4374.000000	4.581046
4372.000000	4.584764
4370.000000	4.589109
4368.000000	4.594285
4366.000000	4.598247
4364.000000	4.601751
4362.000000	4.606392
4360.000000	4.610245
4358.000000	4.614684
4356.000000	4.619991
4354.000000	4.623589
4352.000000	4.626808
4350.000000	4.631884
4348.000000	4.637126
4346.000000	4.641686
4344.000000	4.645567
4342.000000	4.650777
4340.000000	4.656762
4338.000000	4.660005
4336.000000	4.662472
4334.000000	4.666333
4332.000000	4.669699
4330.000000	4.672057
4328.000000	4.674763
4326.000000	4.679016
4324.000000	4.685200
4322.000000	4.691304
4320.000000	4.695790
4318.000000	4.699303
4316.000000	4.703567
4314.000000	4.708007
4312.000000	4.711813
4310.000000	4.716537
4308.000000	4.721476
4306.000000	4.725042
4304.000000	4.728007
4302.000000	4.732701
4300.000000	4.738733
4298.000000	4.743588
4296.000000	4.748065
4294.000000	4.754379
4292.000000	4.759288
4290.000000	4.762445
4288.000000	4.766249
4286.000000	4.770301
4284.000000	4.773838
4282.000000	4.777077
4280.000000	4.779829
4278.000000	4.783444
4276.000000	4.786949
4274.000000	4.788812
4272.000000	4.791753
4270.000000	4.798031
4268.000000	4.803169
4266.000000	4.804878
4264.000000	4.807398
4262.000000	4.812289
4260.000000	4.817044
4258.000000	4.821734
4256.000000	4.826162
4254.000000	4.829864
4252.000000	4.833170
4250.000000	4.836507
4248.000000	4.840856
4246.000000	4.846924
4244.000000	4.852604
4242.000000	4.856139
4240.000000	4.859305
4238.000000	4.864426
4236.000000	4.870756
4234.000000	4.875408
4232.000000	4.878750
4230.000000	4.882647
4228.000000	4.886467
4226.000000	4.890777
4224.000000	4.895958
4222.000000	4.899859
4220.000000	4.903315
4218.000000	4.907454
4216.000000	4.911515
4214.000000	4.915661
4212.000000	4.919595
4210.000000	4.923129
4208.000000	4.928275
4206.000000	4.935228
4204.000000	4.940982
4202.000000	4.945443
4200.000000	4.950657
4198.000000	4.955403
4196.000000	4.958517
4194.000000	4.961907
4192.000000	4.967305
4190.000000	4.973090
4188.000000	4.978352
4186.000000	4.984230
4184.000000	4.990343
4182.000000	4.995299
4180.000000	5.000111
4178.000000	5.005524
4176.000000	5.010829
4174.000000	5.015198
4172.000000	5.018838
4170.000000	5.022598
4168.000000	5.027526
4166.000000	5.033803
4164.000000	5.039230
4162.000000	5.042622
4160.000000	5.046307
4158.000000	5.051869
4156.000000	5.057760
4154.000000	5.062220
4152.000000	5.064180
4150.000000	5.066527
4148.000000	5.071862
4146.000000	5.078516
4144.000000	5.084724
4142.000000	5.090102
4140.000000	5.094915
4138.000000	5.099472
4136.000000	5.103458
4134.000000	5.108765
4132.000000	5.115293
4130.000000	5.120458
4128.000000	5.123170
4126.000000	5.125780
4124.000000	5.132320
4122.000000	5.141551
4120.000000	5.147804
4118.000000	5.149778
4116.000000	5.151315
4114.000000	5.155911
4112.000000	5.161305
4110.000000	5.165669
4108.000000	5.171693
4106.000000	5.178284
4104.000000	5.182155
4102.000000	5.186591
4100.000000	5.192438
4098.000000	5.197502
4096.000000	5.202896
4094.000000	5.208925
4092.000000	5.214070
4090.000000	5.218478
4088.000000	5.222359
4086.000000	5.226520
4084.000000	5.232130
4082.000000	5.239025
4080.000000	5.244642
4078.000000	5.247791
4076.000000	5.251294
4074.000000	5.256939
4072.000000	5.262054
4070.000000	5.265323
4068.000000	5.269125
4066.000000	5.274080
4064.000000	5.278134
4062.000000	5.281324
4060.000000	5.285218
4058.000000	5.290353
4056.000000	5.296812
4054.000000	5.302880
4052.000000	5.307548
4050.000000	5.312476
4048.000000	5.317663
4046.000000	5.322339
4044.000000	5.326735
4042.000000	5.331335
4040.000000	5.336996
4038.000000	5.342426
4036.000000	5.346950
4034.000000	5.351921
4032.000000	5.356537
4030.000000	5.359979
4028.000000	5.363965
4026.000000	5.369246
4024.000000	5.375433
4022.000000	5.381086
4020.000000	5.386557
4018.000000	5.393180
4016.000000	5.398498
4014.000000	5.401330
4012.000000	5.404938
4010.000000	5.410646
4008.000000	5.418120
4006.000000	5.425760
4004.000000	5.431455
4002.000000	5.436643
4000.000000	5.442061
3998.000000	5.446580
3996.000000	5.451697
3994.000000	5.457870
3992.000000	5.463294
3990.000000	5.467758
3988.000000	5.473951
3986.000000	5.481739
3984.000000	5.487333
3982.000000	5.490646
3980.000000	5.495232
3978.000000	5.502637
3976.000000	5.509937
3974.000000	5.514302
3972.000000	5.517864
3970.000000	5.523185
3968.000000	5.531136
3966.000000	5.538850
3964.000000	5.543938
3962.000000	5.550109
3960.000000	5.558997
3958.000000	5.567635
3956.000000	5.574453
3954.000000	5.579827
3952.000000	5.585234
3950.000000	5.591231
3948.000000	5.597583
3946.000000	5.603392
3944.000000	5.610139
3942.000000	5.621366
3940.000000	5.634349
3938.000000	5.643024
3936.000000	5.647648
3934.000000	5.652062
3932.000000	5.659358
3930.000000	5.669746
3928.000000	5.678899
3926.000000	5.685966
3924.000000	5.694049
3922.000000	5.700765
3920.000000	5.705489
3918.000000	5.714750
3916.000000	5.730403
3914.000000	5.744770
3912.000000	5.754130
3910.000000	5.760645
3908.000000	5.759783
3906.000000	5.749984
3904.000000	5.745495
3902.000000	5.755255
3900.000000	5.776157
3898.000000	5.801445
3896.000000	5.817524
3894.000000	5.817489
3892.000000	5.818092
3890.000000	5.826217
3888.000000	5.826187
3886.000000	5.829827
3884.000000	5.846558
3882.000000	5.859079
3880.000000	5.871607
3878.000000	5.885313
3876.000000	5.889448
3874.000000	5.884415
3872.000000	5.874899
3870.000000	5.881127
3868.000000	5.900748
3866.000000	5.911565
3864.000000	5.923308
3862.000000	5.942447
3860.000000	5.956954
3858.000000	5.937442
3856.000000	5.879161
3854.000000	5.857218
3852.000000	5.909724
3850.000000	5.974784
3848.000000	6.005762
3846.000000	6.011005
3844.000000	6.008126
3842.000000	5.996415
3840.000000	5.975223
3838.000000	5.975414
3836.000000	6.004669
3834.000000	6.032985
3832.000000	6.052471
3830.000000	6.066812
3828.000000	6.074764
3826.000000	6.076566
3824.000000	6.063197
3822.000000	6.053368
3820.000000	6.059807
3818.000000	6.057802
3816.000000	6.069150
3814.000000	6.107494
3812.000000	6.132122
3810.000000	6.124761
3808.000000	6.111574
3806.000000	6.113860
3804.000000	6.105192
3802.000000	6.098671
3800.000000	6.123706
3798.000000	6.151819
3796.000000	6.170403
3794.000000	6.185350
3792.000000	6.193364
3790.000000	6.197605
3788.000000	6.200890
3786.000000	6.203478
3784.000000	6.205797
3782.000000	6.205769
3780.000000	6.207688
3778.000000	6.217170
3776.000000	6.227311
3774.000000	6.228228
3772.000000	6.219641
3770.000000	6.218765
3768.000000	6.227436
3766.000000	6.235279
3764.000000	6.240764
3762.000000	6.240406
3760.000000	6.240675
3758.000000	6.247055
3756.000000	6.237609
3754.000000	6.199934
3752.000000	6.169112
3750.000000	6.178099
3748.000000	6.188135
3746.000000	6.172485
3744.000000	6.194592
3742.000000	6.249761
3740.000000	6.267211
3738.000000	6.249077
3736.000000	6.238379
3734.000000	6.248379
3732.000000	6.271741
3730.000000	6.293121
3728.000000	6.297128
3726.000000	6.296986
3724.000000	6.300866
3722.000000	6.307195
3720.000000	6.316862
3718.000000	6.322760
3716.000000	6.310562
3714.000000	6.282393
3712.000000	6.268917
3710.000000	6.282102
3708.000000	6.300898
3706.000000	6.306563
3704.000000	6.297996
3702.000000	6.290248
3700.000000	6.290136
3698.000000	6.288011
3696.000000	6.278136
3694.000000	6.256870
3692.000000	6.219737
3690.000000	6.184174
3688.000000	6.184309
3686.000000	6.205974
3684.000000	6.210174
3682.000000	6.193763
3680.000000	6.160055
3678.000000	6.105925
3676.000000	6.067370
3674.000000	6.058137
3672.000000	6.039206
3670.000000	6.027283
3668.000000	6.036451
3666.000000	6.037052
3664.000000	6.021208
3662.000000	5.998032
3660.000000	5.965657
3658.000000	5.927485
3656.000000	5.903434
3654.000000	5.878204
3652.000000	5.827761
3650.000000	5.787364
3648.000000	5.787159
3646.000000	5.800154
3644.000000	5.798338
3642.000000	5.782832
3640.000000	5.762949
3638.000000	5.743302
3636.000000	5.722878
3634.000000	5.697330
3632.000000	5.653369
3630.000000	5.613310
3628.000000	5.615247
3626.000000	5.629855
3624.000000	5.622817
3622.000000	5.599931
3620.000000	5.580270
3618.000000	5.572056
3616.000000	5.560702
3614.000000	5.545049
3612.000000	5.530501
3610.000000	5.517446
3608.000000	5.515290
3606.000000	5.517851
3604.000000	5.510726
3602.000000	5.497791
3600.000000	5.486014
3598.000000	5.475537
3596.000000	5.467499
3594.000000	5.460293
3592.000000	5.447727
3590.000000	5.429723
3588.000000	5.420373
3586.000000	5.423561
3584.000000	5.425584
3582.000000	5.421574
3580.000000	5.415870
3578.000000	5.411297
3576.000000	5.406985
3574.000000	5.401943
3572.000000	5.391338
3570.000000	5.375323
3568.000000	5.365898
3566.000000	5.367100
3564.000000	5.370292
3562.000000	5.370266
3560.000000	5.367216
3558.000000	5.362352
3556.000000	5.356876
3554.000000	5.353094
3552.000000	5.351579
3550.000000	5.348004
3548.000000	5.340220
3546.000000	5.334284
3544.000000	5.332898
3542.000000	5.331524
3540.000000	5.328628
3538.000000	5.324947
3536.000000	5.321292
3534.000000	5.315968
3532.000000	5.308903
3530.000000	5.303713
3528.000000	5.299315
3526.000000	5.293116
3524.000000	5.287211
3522.000000	5.283784
3520.000000	5.280310
3518.000000	5.275796
3516.000000	5.269654
3514.000000	5.263419
3512.000000	5.258684
3510.000000	5.254152
3508.000000	5.248423
3506.000000	5.239105
3504.000000	5.230211
3502.000000	5.224983
3500.000000	5.219528
3498.000000	5.214068
3496.000000	5.208893
3494.000000	5.203185
3492.000000	5.196113
3490.000000	5.188045
3488.000000	5.181770
3486.000000	5.176147
3484.000000	5.170936
3482.000000	5.166742
3480.000000	5.161638
3478.000000	5.157439
3476.000000	5.155139
3474.000000	5.152467
3472.000000	5.150185
3470.000000	5.148503
3468.000000	5.145968
3466.000000	5.144492
3464.000000	5.144155
3462.000000	5.143808
3460.000000	5.143549
3458.000000	5.143106
3456.000000	5.142928
3454.000000	5.141655
3452.000000	5.138473
3450.000000	5.135014
3448.000000	5.132974
3446.000000	5.133787
3444.000000	5.135949
3442.000000	5.136854
3440.000000	5.136919
3438.000000	5.138566
3436.000000	5.142369
3434.000000	5.148449
3432.000000	5.156265
3430.000000	5.164953
3428.000000	5.172487
3426.000000	5.177769
3424.000000	5.181663
3422.000000	5.185959
3420.000000	5.192550
3418.000000	5.199360
3416.000000	5.203881
3414.000000	5.206489
3412.000000	5.207898
3410.000000	5.208647
3408.000000	5.211069
3406.000000	5.214382
3404.000000	5.216399
3402.000000	5.218306
3400.000000	5.221499
3398.000000	5.225448
3396.000000	5.229811
3394.000000	5.232739
3392.000000	5.235060
3390.000000	5.237502
3388.000000	5.240693
3386.000000	5.244686
3384.000000	5.247048
3382.000000	5.249643
3380.000000	5.252676
3378.000000	5.254636
3376.000000	5.256397
3374.000000	5.259349
3372.000000	5.262093
3370.000000	5.262831
3368.000000	5.263935
3366.000000	5.266646
3364.000000	5.269647
3362.000000	5.272192
3360.000000	5.273045
3358.000000	5.273240
3356.000000	5.275600
3354.000000	5.279380
3352.000000	5.282339
3350.000000	5.283665
3348.000000	5.284585
3346.000000	5.286765
3344.000000	5.288364
3342.000000	5.290446
3340.000000	5.292443
3338.000000	5.293707
3336.000000	5.297459
3334.000000	5.300228
3332.000000	5.300721
3330.000000	5.301537
3328.000000	5.302201
3326.000000	5.302488
3324.000000	5.305576
3322.000000	5.310039
3320.000000	5.311283
3318.000000	5.310775
3316.000000	5.310966
3314.000000	5.313474
3312.000000	5.315762
3310.000000	5.315857
3308.000000	5.315827
3306.000000	5.315960
3304.000000	5.318372
3302.000000	5.321859
3300.000000	5.323175
3298.000000	5.322666
3296.000000	5.323896
3294.000000	5.325342
3292.000000	5.325583
3290.000000	5.327371
3288.000000	5.330393
3286.000000	5.332436
3284.000000	5.332916
3282.000000	5.332908
3280.000000	5.334721
3278.000000	5.336169
3276.000000	5.337011
3274.000000	5.339289
3272.000000	5.341442
3270.000000	5.343173
3268.000000	5.346006
3266.000000	5.349187
3264.000000	5.350573
3262.000000	5.350476
3260.000000	5.351749
3258.000000	5.353239
3256.000000	5.354530
3254.000000	5.357233
3252.000000	5.359571
3250.000000	5.361258
3248.000000	5.364135
3246.000000	5.369133
3244.000000	5.372404
3242.000000	5.373585
3240.000000	5.374474
3238.000000	5.376432
3236.000000	5.380196
3234.000000	5.383546
3232.000000	5.387018
3230.000000	5.390106
3228.000000	5.392048
3226.000000	5.394582
3224.000000	5.397838
3222.000000	5.399650
3220.000000	5.400309
3218.000000	5.403881
3216.000000	5.406692
3214.000000	5.407759
3212.000000	5.409645
3210.000000	5.412503
3208.000000	5.416216
3206.000000	5.420231
3204.000000	5.424086
3202.000000	5.428651
3200.000000	5.433491
3198.000000	5.437594
3196.000000	5.441120
3194.000000	5.443622
3192.000000	5.447110
3190.000000	5.451793
3188.000000	5.457108
3186.000000	5.462853
3184.000000	5.467773
3182.000000	5.471196
3180.000000	5.475834
3178.000000	5.480448
3176.000000	5.482818
3174.000000	5.485528
3172.000000	5.491078
3170.000000	5.496594
3168.000000	5.501384
3166.000000	5.506955
3164.000000	5.511742
3162.000000	5.516067
3160.000000	5.520789
3158.000000	5.525573
3156.000000	5.528911
3154.000000	5.531932
3152.000000	5.535308
3150.000000	5.539521
3148.000000	5.545366
3146.000000	5.551182
3144.000000	5.555288
3142.000000	5.559739
3140.000000	5.565048
3138.000000	5.569697
3136.000000	5.574009
3134.000000	5.578548
3132.000000	5.584222
3130.000000	5.589370
3128.000000	5.592069
3126.000000	5.594272
3124.000000	5.597556
3122.000000	5.600669
3120.000000	5.602657
3118.000000	5.604830
3116.000000	5.607915
3114.000000	5.610835
3112.000000	5.614184
3110.000000	5.618246
3108.000000	5.621889
3106.000000	5.623547
3104.000000	5.625569
3102.000000	5.629972
3100.000000	5.635568
3098.000000	5.639283
3096.000000	5.642470
3094.000000	5.646908
3092.000000	5.652033
3090.000000	5.657013
3088.000000	5.660615
3086.000000	5.662167
3084.000000	5.663685
3082.000000	5.666521
3080.000000	5.668836
3078.000000	5.672691
3076.000000	5.676782
3074.000000	5.678803
3072.000000	5.679334
3070.000000	5.680083
3068.000000	5.681555
3066.000000	5.682880
3064.000000	5.685770
3062.000000	5.690213
3060.000000	5.694591
3058.000000	5.700336
3056.000000	5.705428
3054.000000	5.708773
3052.000000	5.712983
3050.000000	5.716354
3048.000000	5.718994
3046.000000	5.722245
3044.000000	5.724779
3042.000000	5.726877
3040.000000	5.730346
3038.000000	5.735103
3036.000000	5.738820
3034.000000	5.738743
3032.000000	5.737046
3030.000000	5.736945
3028.000000	5.734583
3026.000000	5.728091
3024.000000	5.721532
3022.000000	5.717242
3020.000000	5.717064
3018.000000	5.723170
3016.000000	5.734323
3014.000000	5.752328
3012.000000	5.774279
3010.000000	5.793446
3008.000000	5.809347
3006.000000	5.820850
3004.000000	5.829193
3002.000000	5.837317
3000.000000	5.844729
2998.000000	5.850118
2996.000000	5.853906
2994.000000	5.857923
2992.000000	5.862288
2990.000000	5.865020
2988.000000	5.866932
2986.000000	5.868133
2984.000000	5.868124
2982.000000	5.867125
2980.000000	5.862673
2978.000000	5.854112
2976.000000	5.842011
2974.000000	5.824070
2972.000000	5.800269
2970.000000	5.771318
2968.000000	5.738971
2966.000000	5.711082
2964.000000	5.693776
2962.000000	5.689424
2960.000000	5.699142
2958.000000	5.716863
2956.000000	5.736093
2954.000000	5.752765
2952.000000	5.765367
2950.000000	5.773702
2948.000000	5.776505
2946.000000	5.771461
2944.000000	5.756581
2942.000000	5.733613
2940.000000	5.706399
2938.000000	5.677717
2936.000000	5.651609
2934.000000	5.628650
2932.000000	5.607221
2930.000000	5.587037
2928.000000	5.571903
2926.000000	5.569177
2924.000000	5.585051
2922.000000	5.621737
2920.000000	5.674608
2918.000000	5.733359
2916.000000	5.791263
2914.000000	5.845456
2912.000000	5.891312
2910.000000	5.928837
2908.000000	5.960375
2906.000000	5.988276
2904.000000	6.012464
2902.000000	6.033153
2900.000000	6.054529
2898.000000	6.076191
2896.000000	6.095051
2894.000000	6.111474
2892.000000	6.129625
2890.000000	6.146157
2888.000000	6.160843
2886.000000	6.174775
2884.000000	6.183997
2882.000000	6.189458
2880.000000	6.191765
2878.000000	6.191943
2876.000000	6.187378
2874.000000	6.177353
2872.000000	6.164615
2870.000000	6.145024
2868.000000	6.115611
2866.000000	6.081744
2864.000000	6.051697
2862.000000	6.034220
2860.000000	6.035143
2858.000000	6.051230
2856.000000	6.074973
2854.000000	6.102267
2852.000000	6.135094
2850.000000	6.173314
2848.000000	6.216849
2846.000000	6.261442
2844.000000	6.299869
2842.000000	6.329587
2840.000000	6.353664
2838.000000	6.374291
2836.000000	6.392819
2834.000000	6.408340
2832.000000	6.420544
2830.000000	6.430184
2828.000000	6.439247
2826.000000	6.449354
2824.000000	6.460326
2822.000000	6.470936
2820.000000	6.480160
2818.000000	6.487591
2816.000000	6.493582
2814.000000	6.499354
2812.000000	6.505313
2810.000000	6.512380
2808.000000	6.519264
2806.000000	6.524097
2804.000000	6.528278
2802.000000	6.532267
2800.000000	6.537167
2798.000000	6.542905
2796.000000	6.547197
2794.000000	6.550731
2792.000000	6.554647
2790.000000	6.560400
2788.000000	6.568937
2786.000000	6.577297
2784.000000	6.584045
2782.000000	6.589689
2780.000000	6.595154
2778.000000	6.601293
2776.000000	6.607274
2774.000000	6.613909
2772.000000	6.619304
2770.000000	6.622668
2768.000000	6.626034
2766.000000	6.630803
2764.000000	6.636906
2762.000000	6.641290
2760.000000	6.646157
2758.000000	6.652408
2756.000000	6.656067
2754.000000	6.657580
2752.000000	6.660242
2750.000000	6.663055
2748.000000	6.665886
2746.000000	6.670397
2744.000000	6.673347
2742.000000	6.675702
2740.000000	6.678758
2738.000000	6.681273
2736.000000	6.683851
2734.000000	6.687242
2732.000000	6.690377
2730.000000	6.692538
2728.000000	6.694715
2726.000000	6.697723
2724.000000	6.700572
2722.000000	6.703680
2720.000000	6.705051
2718.000000	6.704792
2716.000000	6.706530
2714.000000	6.709039
2712.000000	6.711271
2710.000000	6.712287
2708.000000	6.712631
2706.000000	6.714298
2704.000000	6.717321
2702.000000	6.720428
2700.000000	6.721798
2698.000000	6.723248
2696.000000	6.725955
2694.000000	6.728556
2692.000000	6.729987
2690.000000	6.732528
2688.000000	6.735508
2686.000000	6.735592
2684.000000	6.736033
2682.000000	6.738554
2680.000000	6.738553
2678.000000	6.738357
2676.000000	6.739846
2674.000000	6.739790
2672.000000	6.740992
2670.000000	6.742369
2668.000000	6.741875
2666.000000	6.741554
2664.000000	6.740698
2662.000000	6.739895
2660.000000	6.740590
2658.000000	6.740359
2656.000000	6.740937
2654.000000	6.742673
2652.000000	6.741520
2650.000000	6.740318
2648.000000	6.741967
2646.000000	6.744427
2644.000000	6.744524
2642.000000	6.743810
2640.000000	6.743910
2638.000000	6.742542
2636.000000	6.741610
2634.000000	6.741173
2632.000000	6.740219
2630.000000	6.738513
2628.000000	6.737062
2626.000000	6.736697
2624.000000	6.736588
2622.000000	6.736196
2620.000000	6.734965
2618.000000	6.733038
2616.000000	6.730134
2614.000000	6.728568
2612.000000	6.728350
2610.000000	6.727538
2608.000000	6.725935
2606.000000	6.724146
2604.000000	6.722203
2602.000000	6.718248
2600.000000	6.713782
2598.000000	6.709009
2596.000000	6.705893
2594.000000	6.704728
2592.000000	6.703278
2590.000000	6.703654
2588.000000	6.703514
2586.000000	6.701617
2584.000000	6.701699
2582.000000	6.701848
2580.000000	6.702183
2578.000000	6.702282
2576.000000	6.702859
2574.000000	6.703970
2572.000000	6.702725
2570.000000	6.699877
2568.000000	6.699370
2566.000000	6.698252
2564.000000	6.694810
2562.000000	6.692011
2560.000000	6.689516
2558.000000	6.688171
2556.000000	6.687270
2554.000000	6.683735
2552.000000	6.679754
2550.000000	6.676890
2548.000000	6.674825
2546.000000	6.671805
2544.000000	6.667639
2542.000000	6.662980
2540.000000	6.658419
2538.000000	6.656120
2536.000000	6.655624
2534.000000	6.653068
2532.000000	6.649686
2530.000000	6.645879
2528.000000	6.640958
2526.000000	6.636953
2524.000000	6.633066
2522.000000	6.630160
2520.000000	6.628388
2518.000000	6.625253
2516.000000	6.621300
2514.000000	6.617934
2512.000000	6.613758
2510.000000	6.608301
2508.000000	6.603713
2506.000000	6.600709
2504.000000	6.597953
2502.000000	6.594899
2500.000000	6.593009
2498.000000	6.590485
2496.000000	6.586441
2494.000000	6.583415
2492.000000	6.580748
2490.000000	6.578436
2488.000000	6.576295
2486.000000	6.574274
2484.000000	6.572066
2482.000000	6.569538
2480.000000	6.567204
2478.000000	6.565390
2476.000000	6.563596
2474.000000	6.562675
2472.000000	6.561683
2470.000000	6.559480
2468.000000	6.557408
2466.000000	6.556085
2464.000000	6.554249
2462.000000	6.552809
2460.000000	6.552619
2458.000000	6.550439
2456.000000	6.546931
2454.000000	6.545392
2452.000000	6.545388
2450.000000	6.544645
2448.000000	6.544558
2446.000000	6.545610
2444.000000	6.548385
2442.000000	6.549607
2440.000000	6.547266
2438.000000	6.545951
2436.000000	6.547608
2434.000000	6.548806
2432.000000	6.549083
2430.000000	6.550156
2428.000000	6.552601
2426.000000	6.554381
2424.000000	6.555967
2422.000000	6.559163
2420.000000	6.563122
2418.000000	6.565195
2416.000000	6.566065
2414.000000	6.569450
2412.000000	6.573580
2410.000000	6.575177
2408.000000	6.577135
2406.000000	6.581794
2404.000000	6.585177
2402.000000	6.587230
2400.000000	6.589970
2398.000000	6.591805
2396.000000	6.593527
2394.000000	6.594861
2392.000000	6.597344
2390.000000	6.599639
2388.000000	6.600358
2386.000000	6.600846
2384.000000	6.600308
2382.000000	6.597018
2380.000000	6.592904
2378.000000	6.586900
2376.000000	6.576402
2374.000000	6.561826
2372.000000	6.544126
2370.000000	6.527718
2368.000000	6.514629
2366.000000	6.502121
2364.000000	6.491776
2362.000000	6.486358
2360.000000	6.487860
2358.000000	6.497868
2356.000000	6.513828
2354.000000	6.533427
2352.000000	6.555412
2350.000000	6.567456
2348.000000	6.559151
2346.000000	6.537289
2344.000000	6.511979
2342.000000	6.485336
2340.000000	6.468196
2338.000000	6.471175
2336.000000	6.484405
2334.000000	6.492757
2332.000000	6.496834
2330.000000	6.501912
2328.000000	6.508182
2326.000000	6.514551
2324.000000	6.520026
2322.000000	6.524397
2320.000000	6.529804
2318.000000	6.534930
2316.000000	6.538485
2314.000000	6.542105
2312.000000	6.545125
2310.000000	6.546241
2308.000000	6.546997
2306.000000	6.547504
2304.000000	6.548044
2302.000000	6.548431
2300.000000	6.547910
2298.000000	6.546342
2296.000000	6.545236
2294.000000	6.543471
2292.000000	6.541491
2290.000000	6.541470
2288.000000	6.541448
2286.000000	6.540376
2284.000000	6.539350
2282.000000	6.537889
2280.000000	6.534889
2278.000000	6.530310
2276.000000	6.527429
2274.000000	6.525481
2272.000000	6.523088
2270.000000	6.519817
2268.000000	6.517019
2266.000000	6.515189
2264.000000	6.513899
2262.000000	6.513690
2260.000000	6.513361
2258.000000	6.511215
2256.000000	6.509056
2254.000000	6.507911
2252.000000	6.505934
2250.000000	6.502154
2248.000000	6.500133
2246.000000	6.501828
2244.000000	6.503372
2242.000000	6.501496
2240.000000	6.499116
2238.000000	6.499355
2236.000000	6.500998
2234.000000	6.500981
2232.000000	6.500734
2230.000000	6.501113
2228.000000	6.500726
2226.000000	6.498493
2224.000000	6.497585
2222.000000	6.498047
2220.000000	6.497908
2218.000000	6.496702
2216.000000	6.496908
2214.000000	6.497695
2212.000000	6.498468
2210.000000	6.499790
2208.000000	6.500437
2206.000000	6.499680
2204.000000	6.498973
2202.000000	6.498614
2200.000000	6.498468
2198.000000	6.498471
2196.000000	6.499151
2194.000000	6.500910
2192.000000	6.502719
2190.000000	6.501734
2188.000000	6.500448
2186.000000	6.499975
2184.000000	6.500801
2182.000000	6.503532
2180.000000	6.505192
2178.000000	6.505605
2176.000000	6.505198
2174.000000	6.502984
2172.000000	6.502482
2170.000000	6.504459
2168.000000	6.507193
2166.000000	6.508982
2164.000000	6.509304
2162.000000	6.510448
2160.000000	6.511490
2158.000000	6.512397
2156.000000	6.515583
2154.000000	6.518528
2152.000000	6.519651
2150.000000	6.521657
2148.000000	6.523750
2146.000000	6.525654
2144.000000	6.527814
2142.000000	6.530924
2140.000000	6.533697
2138.000000	6.535200
2136.000000	6.536702
2134.000000	6.538735
2132.000000	6.541888
2130.000000	6.543144
2128.000000	6.545513
2126.000000	6.549227
2124.000000	6.552537
2122.000000	6.555658
2120.000000	6.559090
2118.000000	6.562454
2116.000000	6.566188
2114.000000	6.569834
2112.000000	6.574798
2110.000000	6.578665
2108.000000	6.581434
2106.000000	6.585445
2104.000000	6.591119
2102.000000	6.597603
2100.000000	6.602933
2098.000000	6.607686
2096.000000	6.613986
2094.000000	6.618741
2092.000000	6.622486
2090.000000	6.627621
2088.000000	6.633989
2086.000000	6.637808
2084.000000	6.641837
2082.000000	6.647511
2080.000000	6.653810
2078.000000	6.660078
2076.000000	6.666241
2074.000000	6.671910
2072.000000	6.677024
2070.000000	6.681820
2068.000000	6.687348
2066.000000	6.693333
2064.000000	6.700610
2062.000000	6.707551
2060.000000	6.714153
2058.000000	6.720643
2056.000000	6.725903
2054.000000	6.730626
2052.000000	6.737495
2050.000000	6.744166
2048.000000	6.749749
2046.000000	6.755439
2044.000000	6.760541
2042.000000	6.766090
2040.000000	6.772261
2038.000000	6.775721
2036.000000	6.781019
2034.000000	6.787610
2032.000000	6.791021
2030.000000	6.792157
2028.000000	6.797953
2026.000000	6.806251
2024.000000	6.810877
2022.000000	6.814818
2020.000000	6.819781
2018.000000	6.824377
2016.000000	6.830432
2014.000000	6.836589
2012.000000	6.842787
2010.000000	6.847512
2008.000000	6.851211
2006.000000	6.855444
2004.000000	6.860497
2002.000000	6.865803
2000.000000	6.868426
1998.000000	6.870570
1996.000000	6.873336
1994.000000	6.873155
1992.000000	6.873308
1990.000000	6.876621
1988.000000	6.881010
1986.000000	6.884367
1984.000000	6.888389
1982.000000	6.890275
1980.000000	6.890261
1978.000000	6.891887
1976.000000	6.894261
1974.000000	6.894867
1972.000000	6.894547
1970.000000	6.892364
1968.000000	6.890033
1966.000000	6.890566
1964.000000	6.891953
1962.000000	6.889597
1960.000000	6.882422
1958.000000	6.882159
1956.000000	6.889005
1954.000000	6.892415
1952.000000	6.893298
1950.000000	6.891270
1948.000000	6.888424
1946.000000	6.884646
1944.000000	6.879792
1942.000000	6.879813
1940.000000	6.884854
1938.000000	6.885365
1936.000000	6.883944
1934.000000	6.881362
1932.000000	6.880036
1930.000000	6.878362
1928.000000	6.876715
1926.000000	6.872091
1924.000000	6.864937
1922.000000	6.862388
1920.000000	6.856101
1918.000000	6.848059
1916.000000	6.851736
1914.000000	6.852875
1912.000000	6.848278
1910.000000	6.842271
1908.000000	6.839443
1906.000000	6.835083
1904.000000	6.829873
1902.000000	6.826196
1900.000000	6.823577
1898.000000	6.818017
1896.000000	6.811877
1894.000000	6.807664
1892.000000	6.803329
1890.000000	6.797085
1888.000000	6.798373
1886.000000	6.799670
1884.000000	6.797831
1882.000000	6.794428
1880.000000	6.790634
1878.000000	6.787500
1876.000000	6.785413
1874.000000	6.780647
1872.000000	6.769114
1870.000000	6.751988
1868.000000	6.751099
1866.000000	6.758801
1864.000000	6.758916
1862.000000	6.753776
1860.000000	6.750612
1858.000000	6.749022
1856.000000	6.747711
1854.000000	6.742160
1852.000000	6.735655
1850.000000	6.726325
1848.000000	6.712182
1846.000000	6.685390
1844.000000	6.673430
1842.000000	6.691321
1840.000000	6.697804
1838.000000	6.690707
1836.000000	6.683580
1834.000000	6.674518
1832.000000	6.654813
1830.000000	6.639101
1828.000000	6.638357
1826.000000	6.631432
1824.000000	6.629610
1822.000000	6.629853
1820.000000	6.621408
1818.000000	6.609110
1816.000000	6.599489
1814.000000	6.587838
1812.000000	6.574003
1810.000000	6.564387
1808.000000	6.559401
1806.000000	6.549566
1804.000000	6.533258
1802.000000	6.513231
1800.000000	6.500898
1798.000000	6.494159
1796.000000	6.478683
1794.000000	6.443347
1792.000000	6.426556
1790.000000	6.440050
1788.000000	6.439014
1786.000000	6.419200
1784.000000	6.404903
1782.000000	6.391133
1780.000000	6.379092
1778.000000	6.369338
1776.000000	6.343377
1774.000000	6.294627
1772.000000	6.274295
1770.000000	6.286010
1768.000000	6.287601
1766.000000	6.288770
1764.000000	6.267683
1762.000000	6.243344
1760.000000	6.239250
1758.000000	6.225805
1756.000000	6.213355
1754.000000	6.191508
1752.000000	6.147905
1750.000000	6.131398
1748.000000	6.132569
1746.000000	6.126499
1744.000000	6.111329
1742.000000	6.085200
1740.000000	6.063187
1738.000000	6.054520
1736.000000	5.999452
1734.000000	5.958998
1732.000000	5.999159
1730.000000	6.027819
1728.000000	6.031144
1726.000000	6.023226
1724.000000	6.012332
1722.000000	5.999734
1720.000000	5.953293
1718.000000	5.898483
1716.000000	5.911969
1714.000000	5.947029
1712.000000	5.959908
1710.000000	5.950932
1708.000000	5.932303
1706.000000	5.912450
1704.000000	5.899268
1702.000000	5.838213
1700.000000	5.805274
1698.000000	5.814314
1696.000000	5.810188
1694.000000	5.865908
1692.000000	5.901634
1690.000000	5.893668
1688.000000	5.862304
1686.000000	5.787225
1684.000000	5.773922
1682.000000	5.837216
1680.000000	5.864337
1678.000000	5.850031
1676.000000	5.817841
1674.000000	5.821612
1672.000000	5.818956
1670.000000	5.797715
1668.000000	5.810062
1666.000000	5.821188
1664.000000	5.802450
1662.000000	5.796422
1660.000000	5.805157
1658.000000	5.794354
1656.000000	5.722735
1654.000000	5.615095
1652.000000	5.642155
1650.000000	5.720048
1648.000000	5.704282
1646.000000	5.694212
1644.000000	5.724884
1642.000000	5.735936
1640.000000	5.719934
1638.000000	5.675051
1636.000000	5.632498
1634.000000	5.657659
1632.000000	5.684090
1630.000000	5.669216
1628.000000	5.646330
1626.000000	5.622743
1624.000000	5.589025
1622.000000	5.569182
1620.000000	5.539968
1618.000000	5.475847
1616.000000	5.453005
1614.000000	5.462982
1612.000000	5.432603
1610.000000	5.394966
1608.000000	5.380789
1606.000000	5.387325
1604.000000	5.399293
1602.000000	5.412825
1600.000000	5.425556
1598.000000	5.437862
1596.000000	5.447645
1594.000000	5.454427
1592.000000	5.457549
1590.000000	5.458129
1588.000000	5.455317
1586.000000	5.451374
1584.000000	5.446374
1582.000000	5.442133
1580.000000	5.431311
1578.000000	5.385288
1576.000000	5.363612
1574.000000	5.405928
1572.000000	5.408401
1570.000000	5.383018
1568.000000	5.385671
1566.000000	5.385921
1564.000000	5.363445
1562.000000	5.292793
1560.000000	5.199598
1558.000000	5.214347
1556.000000	5.280842
1554.000000	5.318144
1552.000000	5.349092
1550.000000	5.366905
1548.000000	5.376418
1546.000000	5.367704
1544.000000	5.346995
1542.000000	5.309072
1540.000000	5.298284
1538.000000	5.370901
1536.000000	5.426390
1534.000000	5.426945
1532.000000	5.446192
1530.000000	5.458966
1528.000000	5.447005
1526.000000	5.431582
1524.000000	5.409013
1522.000000	5.374896
1520.000000	5.386278
1518.000000	5.399807
1516.000000	5.396345
1514.000000	5.392521
1512.000000	5.379698
1510.000000	5.345610
1508.000000	5.267038
1506.000000	5.233439
1504.000000	5.252484
1502.000000	5.192024
1500.000000	5.030899
1498.000000	4.826586
1496.000000	4.685365
1494.000000	4.677653
1492.000000	4.751165
1490.000000	4.859824
1488.000000	4.978217
1486.000000	5.073909
1484.000000	5.134542
1482.000000	5.163652
1480.000000	5.177169
1478.000000	5.170016
1476.000000	5.145545
1474.000000	5.113756
1472.000000	5.108301
1470.000000	5.123799
1468.000000	5.111141
1466.000000	5.073419
1464.000000	5.050057
1462.000000	5.032571
1460.000000	4.968338
1458.000000	4.864156
1456.000000	4.810637
1454.000000	4.796839
1452.000000	4.770249
1450.000000	4.778258
1448.000000	4.831910
1446.000000	4.890985
1444.000000	4.917097
1442.000000	4.922771
1440.000000	4.915091
1438.000000	4.890819
1436.000000	4.894833
1434.000000	4.924443
1432.000000	4.929839
1430.000000	4.927240
1428.000000	4.928190
1426.000000	4.927831
1424.000000	4.922317
1422.000000	4.905235
1420.000000	4.872242
1418.000000	4.873667
1416.000000	4.886738
1414.000000	4.878145
1412.000000	4.855334
1410.000000	4.824691
1408.000000	4.777020
1406.000000	4.725597
1404.000000	4.701135
1402.000000	4.706184
1400.000000	4.722579
1398.000000	4.751108
1396.000000	4.773935
1394.000000	4.795441
1392.000000	4.816284
1390.000000	4.815627
1388.000000	4.795847
1386.000000	4.780049
1384.000000	4.776541
1382.000000	4.785817
1380.000000	4.791088
1378.000000	4.787441
1376.000000	4.777863
1374.000000	4.769925
1372.000000	4.770800
1370.000000	4.766148
1368.000000	4.756674
1366.000000	4.748316
1364.000000	4.733511
1362.000000	4.722152
1360.000000	4.718724
1358.000000	4.712725
1356.000000	4.701667
1354.000000	4.690106
1352.000000	4.679368
1350.000000	4.666637
1348.000000	4.654099
1346.000000	4.641208
1344.000000	4.625987
1342.000000	4.608027
1340.000000	4.592376
1338.000000	4.585164
1336.000000	4.582101
1334.000000	4.577772
1332.000000	4.568815
1330.000000	4.556651
1328.000000	4.542884
1326.000000	4.528857
1324.000000	4.512227
1322.000000	4.495795
1320.000000	4.478048
1318.000000	4.460383
1316.000000	4.442514
1314.000000	4.423139
1312.000000	4.403994
1310.000000	4.385928
1308.000000	4.366386
1306.000000	4.347209
1304.000000	4.326299
1302.000000	4.305341
1300.000000	4.284197
1298.000000	4.262890
1296.000000	4.242406
1294.000000	4.219926
1292.000000	4.195472
1290.000000	4.170439
1288.000000	4.143999
1286.000000	4.119644
1284.000000	4.095159
1282.000000	4.067818
1280.000000	4.038648
1278.000000	4.010702
1276.000000	3.977834
1274.000000	3.938734
1272.000000	3.892556
1270.000000	3.834559
1268.000000	3.760500
1266.000000	3.670516
1264.000000	3.577470
1262.000000	3.505276
1260.000000	3.474424
1258.000000	3.481777
1256.000000	3.507426
1254.000000	3.528817
1252.000000	3.532352
1250.000000	3.518975
1248.000000	3.494537
1246.000000	3.466473
1244.000000	3.436599
1242.000000	3.404170
1240.000000	3.371716
1238.000000	3.341954
1236.000000	3.313650
1234.000000	3.286038
1232.000000	3.257149
1230.000000	3.230025
1228.000000	3.202491
1226.000000	3.173706
1224.000000	3.145151
1222.000000	3.115667
1220.000000	3.085988
1218.000000	3.055249
1216.000000	3.024502
1214.000000	2.993690
1212.000000	2.961227
1210.000000	2.933225
1208.000000	2.909016
1206.000000	2.885201
1204.000000	2.861472
1202.000000	2.836222
1200.000000	2.810919
1198.000000	2.786418
1196.000000	2.760790
1194.000000	2.734880
1192.000000	2.708126
1190.000000	2.681918
1188.000000	2.655701
1186.000000	2.625371
1184.000000	2.585837
1182.000000	2.539833
1180.000000	2.507532
1178.000000	2.492871
1176.000000	2.477538
1174.000000	2.453661
1172.000000	2.426496
1170.000000	2.398709
1168.000000	2.368899
1166.000000	2.339361
1164.000000	2.310304
1162.000000	2.281286
1160.000000	2.252331
1158.000000	2.224165
1156.000000	2.198783
1154.000000	2.173771
1152.000000	2.146032
1150.000000	2.119198
1148.000000	2.091346
1146.000000	2.063749
1144.000000	2.038414
1142.000000	2.017046
1140.000000	1.999725
1138.000000	1.980639
1136.000000	1.958483
1134.000000	1.935094
1132.000000	1.909655
1130.000000	1.882497
1128.000000	1.854762
1126.000000	1.828501
1124.000000	1.802922
1122.000000	1.776172
1120.000000	1.747665
1118.000000	1.718704
1116.000000	1.689671
1114.000000	1.659784
1112.000000	1.629704
1110.000000	1.601192
1108.000000	1.573106
1106.000000	1.544763
1104.000000	1.518273
1102.000000	1.492545
1100.000000	1.466866
1098.000000	1.441815
1096.000000	1.416649
1094.000000	1.392185
1092.000000	1.370177
1090.000000	1.349289
1088.000000	1.328412
1086.000000	1.309356
1084.000000	1.289180
1082.000000	1.268395
1080.000000	1.248850
1078.000000	1.230781
1076.000000	1.214712
1074.000000	1.202513
1072.000000	1.190605
1070.000000	1.176910
1068.000000	1.163319
1066.000000	1.148619
1064.000000	1.135647
1062.000000	1.124463
1060.000000	1.110700
1058.000000	1.093962
1056.000000	1.071350
1054.000000	1.041194
1052.000000	1.009967
1050.000000	0.991286
1048.000000	0.991206
1046.000000	0.997464
1044.000000	0.996443
1042.000000	0.989992
1040.000000	0.980871
1038.000000	0.969378
1036.000000	0.955668
1034.000000	0.942870
1032.000000	0.929211
1030.000000	0.912439
1028.000000	0.894322
1026.000000	0.876855
1024.000000	0.861118
1022.000000	0.846023
1020.000000	0.829006
1018.000000	0.812825
1016.000000	0.799789
1014.000000	0.787926
1012.000000	0.778479
1010.000000	0.769971
1008.000000	0.759771
1006.000000	0.747669
1004.000000	0.735439
1002.000000	0.723270
1000.000000	0.707559
