PE IR       SUBTECH     SPECTRUM    ASCII       PEDS        4.00        
   -1
TE109A_042_80K_after_110K_SB.ASC
20/04/21
15:34:35.00
20/04/21
15:34:35.00
Administrator
TE109A, Tuesday, April 21 2020, 042.
1000.000000
#HDR
-1
-1
#GR
cm-1
EGY
1.0
0.0
6000.000000
-2.000000
2501
8
7.796893
0.803786
#DATA
6000.000000	1.399153
5998.000000	1.403717
5996.000000	1.407937
5994.000000	1.411025
5992.000000	1.413326
5990.000000	1.414091
5988.000000	1.415731
5986.000000	1.418115
5984.000000	1.421603
5982.000000	1.425233
5980.000000	1.428746
5978.000000	1.431852
5976.000000	1.434713
5974.000000	1.437859
5972.000000	1.441125
5970.000000	1.444396
5968.000000	1.447273
5966.000000	1.450050
5964.000000	1.453386
5962.000000	1.455865
5960.000000	1.457378
5958.000000	1.460311
5956.000000	1.464261
5954.000000	1.468078
5952.000000	1.470273
5950.000000	1.471997
5948.000000	1.475029
5946.000000	1.478128
5944.000000	1.480023
5942.000000	1.482778
5940.000000	1.486657
5938.000000	1.489416
5936.000000	1.490773
5934.000000	1.492825
5932.000000	1.496819
5930.000000	1.500851
5928.000000	1.504704
5926.000000	1.508664
5924.000000	1.512865
5922.000000	1.516413
5920.000000	1.518063
5918.000000	1.520065
5916.000000	1.522886
5914.000000	1.526373
5912.000000	1.530543
5910.000000	1.534359
5908.000000	1.538057
5906.000000	1.540460
5904.000000	1.543814
5902.000000	1.548000
5900.000000	1.551762
5898.000000	1.553902
5896.000000	1.555159
5894.000000	1.557563
5892.000000	1.560463
5890.000000	1.562596
5888.000000	1.564620
5886.000000	1.569075
5884.000000	1.574074
5882.000000	1.578346
5880.000000	1.580858
5878.000000	1.582451
5876.000000	1.583335
5874.000000	1.584420
5872.000000	1.587308
5870.000000	1.591241
5868.000000	1.596068
5866.000000	1.599966
5864.000000	1.603214
5862.000000	1.606500
5860.000000	1.610639
5858.000000	1.614178
5856.000000	1.617147
5854.000000	1.619131
5852.000000	1.622058
5850.000000	1.626656
5848.000000	1.630256
5846.000000	1.633541
5844.000000	1.636369
5842.000000	1.638551
5840.000000	1.641725
5838.000000	1.646308
5836.000000	1.652062
5834.000000	1.656259
5832.000000	1.658575
5830.000000	1.661538
5828.000000	1.664166
5826.000000	1.667682
5824.000000	1.671045
5822.000000	1.673256
5820.000000	1.675857
5818.000000	1.679982
5816.000000	1.685199
5814.000000	1.689318
5812.000000	1.691847
5810.000000	1.695737
5808.000000	1.699477
5806.000000	1.701346
5804.000000	1.703406
5802.000000	1.706981
5800.000000	1.711544
5798.000000	1.714384
5796.000000	1.717800
5794.000000	1.722798
5792.000000	1.727619
5790.000000	1.730872
5788.000000	1.732828
5786.000000	1.735513
5784.000000	1.739119
5782.000000	1.744374
5780.000000	1.749639
5778.000000	1.753498
5776.000000	1.755491
5774.000000	1.758270
5772.000000	1.763119
5770.000000	1.767670
5768.000000	1.769836
5766.000000	1.770982
5764.000000	1.773119
5762.000000	1.777697
5760.000000	1.783586
5758.000000	1.787753
5756.000000	1.790042
5754.000000	1.792438
5752.000000	1.796313
5750.000000	1.800346
5748.000000	1.802782
5746.000000	1.805478
5744.000000	1.808989
5742.000000	1.813322
5740.000000	1.818461
5738.000000	1.822322
5736.000000	1.825299
5734.000000	1.828847
5732.000000	1.833714
5730.000000	1.837727
5728.000000	1.840410
5726.000000	1.842579
5724.000000	1.845948
5722.000000	1.849163
5720.000000	1.852133
5718.000000	1.855650
5716.000000	1.858573
5714.000000	1.863825
5712.000000	1.869055
5710.000000	1.873427
5708.000000	1.875771
5706.000000	1.877807
5704.000000	1.881888
5702.000000	1.886233
5700.000000	1.889727
5698.000000	1.892132
5696.000000	1.894464
5694.000000	1.898064
5692.000000	1.902247
5690.000000	1.905822
5688.000000	1.910151
5686.000000	1.915560
5684.000000	1.920462
5682.000000	1.923389
5680.000000	1.927133
5678.000000	1.932013
5676.000000	1.937867
5674.000000	1.942024
5672.000000	1.944405
5670.000000	1.945840
5668.000000	1.948776
5666.000000	1.954974
5664.000000	1.960302
5662.000000	1.962478
5660.000000	1.963757
5658.000000	1.966922
5656.000000	1.971428
5654.000000	1.975564
5652.000000	1.979120
5650.000000	1.983093
5648.000000	1.987672
5646.000000	1.992492
5644.000000	1.996635
5642.000000	1.999656
5640.000000	2.002857
5638.000000	2.007058
5636.000000	2.010705
5634.000000	2.014059
5632.000000	2.018089
5630.000000	2.023082
5628.000000	2.026764
5626.000000	2.029991
5624.000000	2.033258
5622.000000	2.037412
5620.000000	2.041603
5618.000000	2.045337
5616.000000	2.048815
5614.000000	2.051863
5612.000000	2.054438
5610.000000	2.057815
5608.000000	2.061907
5606.000000	2.065937
5604.000000	2.070951
5602.000000	2.076263
5600.000000	2.080839
5598.000000	2.084714
5596.000000	2.088153
5594.000000	2.091884
5592.000000	2.095484
5590.000000	2.099522
5588.000000	2.104183
5586.000000	2.108799
5584.000000	2.111959
5582.000000	2.114563
5580.000000	2.116752
5578.000000	2.118882
5576.000000	2.124031
5574.000000	2.130677
5572.000000	2.136691
5570.000000	2.140520
5568.000000	2.143255
5566.000000	2.147738
5564.000000	2.154090
5562.000000	2.159342
5560.000000	2.163542
5558.000000	2.166932
5556.000000	2.170696
5554.000000	2.174687
5552.000000	2.177366
5550.000000	2.180946
5548.000000	2.184883
5546.000000	2.189525
5544.000000	2.194397
5542.000000	2.198899
5540.000000	2.202687
5538.000000	2.205210
5536.000000	2.208075
5534.000000	2.213089
5532.000000	2.218338
5530.000000	2.222138
5528.000000	2.225139
5526.000000	2.230634
5524.000000	2.237036
5522.000000	2.239168
5520.000000	2.239420
5518.000000	2.242032
5516.000000	2.247501
5514.000000	2.252439
5512.000000	2.255432
5510.000000	2.259690
5508.000000	2.265072
5506.000000	2.270417
5504.000000	2.275339
5502.000000	2.278784
5500.000000	2.281625
5498.000000	2.284684
5496.000000	2.288341
5494.000000	2.292423
5492.000000	2.295787
5490.000000	2.299071
5488.000000	2.303194
5486.000000	2.308446
5484.000000	2.314735
5482.000000	2.321598
5480.000000	2.325283
5478.000000	2.327617
5476.000000	2.329605
5474.000000	2.333464
5472.000000	2.338697
5470.000000	2.343968
5468.000000	2.348383
5466.000000	2.351163
5464.000000	2.354322
5462.000000	2.359402
5460.000000	2.365265
5458.000000	2.369771
5456.000000	2.374081
5454.000000	2.378713
5452.000000	2.383570
5450.000000	2.387976
5448.000000	2.391267
5446.000000	2.393978
5444.000000	2.396422
5442.000000	2.401010
5440.000000	2.407049
5438.000000	2.413599
5436.000000	2.418511
5434.000000	2.421615
5432.000000	2.423914
5430.000000	2.426500
5428.000000	2.430843
5426.000000	2.436403
5424.000000	2.441843
5422.000000	2.446928
5420.000000	2.450812
5418.000000	2.454347
5416.000000	2.458321
5414.000000	2.463024
5412.000000	2.467403
5410.000000	2.471360
5408.000000	2.475620
5406.000000	2.481128
5404.000000	2.485633
5402.000000	2.488663
5400.000000	2.492055
5398.000000	2.495164
5396.000000	2.497683
5394.000000	2.500335
5392.000000	2.505855
5390.000000	2.512827
5388.000000	2.516425
5386.000000	2.519060
5384.000000	2.523437
5382.000000	2.529086
5380.000000	2.533855
5378.000000	2.537601
5376.000000	2.542744
5374.000000	2.547494
5372.000000	2.551188
5370.000000	2.554957
5368.000000	2.560228
5366.000000	2.565930
5364.000000	2.570441
5362.000000	2.574284
5360.000000	2.578387
5358.000000	2.581736
5356.000000	2.584333
5354.000000	2.586309
5352.000000	2.589388
5350.000000	2.594477
5348.000000	2.599020
5346.000000	2.602093
5344.000000	2.605634
5342.000000	2.610134
5340.000000	2.614436
5338.000000	2.618653
5336.000000	2.624571
5334.000000	2.629739
5332.000000	2.633541
5330.000000	2.637178
5328.000000	2.641115
5326.000000	2.644191
5324.000000	2.648125
5322.000000	2.653093
5320.000000	2.658595
5318.000000	2.662227
5316.000000	2.665579
5314.000000	2.668182
5312.000000	2.670999
5310.000000	2.674425
5308.000000	2.679243
5306.000000	2.684896
5304.000000	2.688764
5302.000000	2.692516
5300.000000	2.695527
5298.000000	2.698824
5296.000000	2.702487
5294.000000	2.706816
5292.000000	2.711412
5290.000000	2.715369
5288.000000	2.718013
5286.000000	2.720007
5284.000000	2.722370
5282.000000	2.726643
5280.000000	2.731209
5278.000000	2.735068
5276.000000	2.738457
5274.000000	2.741265
5272.000000	2.745011
5270.000000	2.748681
5268.000000	2.751738
5266.000000	2.754657
5264.000000	2.757684
5262.000000	2.762305
5260.000000	2.766631
5258.000000	2.770560
5256.000000	2.773494
5254.000000	2.776234
5252.000000	2.778840
5250.000000	2.781593
5248.000000	2.783619
5246.000000	2.785583
5244.000000	2.788191
5242.000000	2.793730
5240.000000	2.798160
5238.000000	2.800490
5236.000000	2.801875
5234.000000	2.805085
5232.000000	2.809249
5230.000000	2.811737
5228.000000	2.812612
5226.000000	2.812758
5224.000000	2.814500
5222.000000	2.817567
5220.000000	2.821227
5218.000000	2.825095
5216.000000	2.828424
5214.000000	2.831301
5212.000000	2.832313
5210.000000	2.831967
5208.000000	2.831574
5206.000000	2.833078
5204.000000	2.837024
5202.000000	2.841934
5200.000000	2.845607
5198.000000	2.848348
5196.000000	2.852047
5194.000000	2.855973
5192.000000	2.858067
5190.000000	2.858170
5188.000000	2.858878
5186.000000	2.861235
5184.000000	2.865436
5182.000000	2.869903
5180.000000	2.872785
5178.000000	2.874376
5176.000000	2.875186
5174.000000	2.875984
5172.000000	2.877819
5170.000000	2.880952
5168.000000	2.884043
5166.000000	2.886600
5164.000000	2.889708
5162.000000	2.892728
5160.000000	2.894749
5158.000000	2.896725
5156.000000	2.900405
5154.000000	2.904648
5152.000000	2.907709
5150.000000	2.910144
5148.000000	2.913672
5146.000000	2.917877
5144.000000	2.920424
5142.000000	2.921546
5140.000000	2.924393
5138.000000	2.927570
5136.000000	2.928877
5134.000000	2.930005
5132.000000	2.933652
5130.000000	2.937880
5128.000000	2.941542
5126.000000	2.944606
5124.000000	2.946647
5122.000000	2.948253
5120.000000	2.951514
5118.000000	2.958136
5116.000000	2.963005
5114.000000	2.966381
5112.000000	2.969493
5110.000000	2.974115
5108.000000	2.978009
5106.000000	2.981171
5104.000000	2.986225
5102.000000	2.991262
5100.000000	2.995339
5098.000000	2.997658
5096.000000	3.000038
5094.000000	3.003550
5092.000000	3.008221
5090.000000	3.012452
5088.000000	3.016411
5086.000000	3.021770
5084.000000	3.027315
5082.000000	3.030870
5080.000000	3.033727
5078.000000	3.036936
5076.000000	3.041057
5074.000000	3.045661
5072.000000	3.051809
5070.000000	3.058338
5068.000000	3.063559
5066.000000	3.066876
5064.000000	3.069766
5062.000000	3.073415
5060.000000	3.077648
5058.000000	3.082498
5056.000000	3.087357
5054.000000	3.091723
5052.000000	3.095836
5050.000000	3.100210
5048.000000	3.104886
5046.000000	3.108921
5044.000000	3.113096
5042.000000	3.116963
5040.000000	3.121878
5038.000000	3.127239
5036.000000	3.131701
5034.000000	3.135088
5032.000000	3.138528
5030.000000	3.142987
5028.000000	3.147556
5026.000000	3.152620
5024.000000	3.158121
5022.000000	3.164211
5020.000000	3.169213
5018.000000	3.172379
5016.000000	3.174630
5014.000000	3.178444
5012.000000	3.184806
5010.000000	3.191727
5008.000000	3.196581
5006.000000	3.199577
5004.000000	3.204658
5002.000000	3.211923
5000.000000	3.216707
4998.000000	3.219408
4996.000000	3.224891
4994.000000	3.231963
4992.000000	3.237005
4990.000000	3.240364
4988.000000	3.245552
4986.000000	3.252292
4984.000000	3.258853
4982.000000	3.263481
4980.000000	3.267741
4978.000000	3.272900
4976.000000	3.278440
4974.000000	3.283092
4972.000000	3.287706
4970.000000	3.293754
4968.000000	3.300432
4966.000000	3.306130
4964.000000	3.310140
4962.000000	3.314930
4960.000000	3.320635
4958.000000	3.326404
4956.000000	3.332394
4954.000000	3.338189
4952.000000	3.343776
4950.000000	3.349494
4948.000000	3.354090
4946.000000	3.356876
4944.000000	3.360498
4942.000000	3.366512
4940.000000	3.372100
4938.000000	3.377403
4936.000000	3.382710
4934.000000	3.387397
4932.000000	3.392534
4930.000000	3.399288
4928.000000	3.405684
4926.000000	3.410464
4924.000000	3.413869
4922.000000	3.418681
4920.000000	3.425261
4918.000000	3.432794
4916.000000	3.438991
4914.000000	3.444167
4912.000000	3.449388
4910.000000	3.454879
4908.000000	3.461540
4906.000000	3.467128
4904.000000	3.471008
4902.000000	3.474366
4900.000000	3.480703
4898.000000	3.489245
4896.000000	3.495864
4894.000000	3.500054
4892.000000	3.504438
4890.000000	3.510998
4888.000000	3.518192
4886.000000	3.524739
4884.000000	3.530103
4882.000000	3.534909
4880.000000	3.540082
4878.000000	3.546560
4876.000000	3.554045
4874.000000	3.560957
4872.000000	3.566372
4870.000000	3.572179
4868.000000	3.577658
4866.000000	3.582941
4864.000000	3.589173
4862.000000	3.596646
4860.000000	3.602688
4858.000000	3.608051
4856.000000	3.614544
4854.000000	3.621268
4852.000000	3.626138
4850.000000	3.630148
4848.000000	3.635074
4846.000000	3.641279
4844.000000	3.648311
4842.000000	3.654840
4840.000000	3.661258
4838.000000	3.667316
4836.000000	3.673385
4834.000000	3.679999
4832.000000	3.687407
4830.000000	3.694046
4828.000000	3.699382
4826.000000	3.703844
4824.000000	3.708189
4822.000000	3.714041
4820.000000	3.722631
4818.000000	3.731300
4816.000000	3.737392
4814.000000	3.741849
4812.000000	3.747348
4810.000000	3.753659
4808.000000	3.759890
4806.000000	3.766550
4804.000000	3.774354
4802.000000	3.781568
4800.000000	3.787881
4798.000000	3.793856
4796.000000	3.799773
4794.000000	3.805774
4792.000000	3.811914
4790.000000	3.818652
4788.000000	3.826482
4786.000000	3.835019
4784.000000	3.841953
4782.000000	3.847775
4780.000000	3.853554
4778.000000	3.859970
4776.000000	3.867710
4774.000000	3.876577
4772.000000	3.884645
4770.000000	3.890726
4768.000000	3.895954
4766.000000	3.900885
4764.000000	3.905974
4762.000000	3.912084
4760.000000	3.919833
4758.000000	3.928648
4756.000000	3.936906
4754.000000	3.942943
4752.000000	3.946733
4750.000000	3.951166
4748.000000	3.956866
4746.000000	3.963183
4744.000000	3.969428
4742.000000	3.975104
4740.000000	3.981208
4738.000000	3.988761
4736.000000	3.996351
4734.000000	4.004411
4732.000000	4.011732
4730.000000	4.015711
4728.000000	4.019186
4726.000000	4.026923
4724.000000	4.035914
4722.000000	4.042425
4720.000000	4.048538
4718.000000	4.056243
4716.000000	4.063600
4714.000000	4.068534
4712.000000	4.073660
4710.000000	4.080841
4708.000000	4.088229
4706.000000	4.094557
4704.000000	4.101025
4702.000000	4.108354
4700.000000	4.115926
4698.000000	4.122553
4696.000000	4.128462
4694.000000	4.134350
4692.000000	4.139319
4690.000000	4.145261
4688.000000	4.154819
4686.000000	4.165466
4684.000000	4.171407
4682.000000	4.174867
4680.000000	4.180287
4678.000000	4.187490
4676.000000	4.193417
4674.000000	4.198419
4672.000000	4.203719
4670.000000	4.209292
4668.000000	4.215621
4666.000000	4.223293
4664.000000	4.231030
4662.000000	4.237390
4660.000000	4.242358
4658.000000	4.246964
4656.000000	4.253019
4654.000000	4.261460
4652.000000	4.269659
4650.000000	4.275736
4648.000000	4.281401
4646.000000	4.286770
4644.000000	4.291902
4642.000000	4.297636
4640.000000	4.304151
4638.000000	4.310700
4636.000000	4.316915
4634.000000	4.322398
4632.000000	4.327867
4630.000000	4.333739
4628.000000	4.340354
4626.000000	4.348590
4624.000000	4.356608
4622.000000	4.362888
4620.000000	4.368343
4618.000000	4.373380
4616.000000	4.377745
4614.000000	4.382689
4612.000000	4.389321
4610.000000	4.396240
4608.000000	4.403420
4606.000000	4.411045
4604.000000	4.417553
4602.000000	4.422363
4600.000000	4.427594
4598.000000	4.433323
4596.000000	4.439627
4594.000000	4.447124
4592.000000	4.453654
4590.000000	4.458676
4588.000000	4.463827
4586.000000	4.469806
4584.000000	4.476742
4582.000000	4.484697
4580.000000	4.492379
4578.000000	4.499190
4576.000000	4.504960
4574.000000	4.509629
4572.000000	4.513791
4570.000000	4.518945
4568.000000	4.525546
4566.000000	4.532761
4564.000000	4.539649
4562.000000	4.545145
4560.000000	4.550829
4558.000000	4.557502
4556.000000	4.563982
4554.000000	4.568896
4552.000000	4.574216
4550.000000	4.579702
4548.000000	4.584958
4546.000000	4.591106
4544.000000	4.599288
4542.000000	4.606177
4540.000000	4.610222
4538.000000	4.614968
4536.000000	4.621401
4534.000000	4.627849
4532.000000	4.633501
4530.000000	4.638757
4528.000000	4.644056
4526.000000	4.650280
4524.000000	4.656296
4522.000000	4.662295
4520.000000	4.668795
4518.000000	4.675575
4516.000000	4.682440
4514.000000	4.688428
4512.000000	4.694397
4510.000000	4.700532
4508.000000	4.705721
4506.000000	4.710800
4504.000000	4.717553
4502.000000	4.724133
4500.000000	4.730189
4498.000000	4.736115
4496.000000	4.741757
4494.000000	4.747128
4492.000000	4.753074
4490.000000	4.760069
4488.000000	4.767777
4486.000000	4.774110
4484.000000	4.779950
4482.000000	4.786463
4480.000000	4.793516
4478.000000	4.799917
4476.000000	4.804459
4474.000000	4.808195
4472.000000	4.813005
4470.000000	4.818356
4468.000000	4.823893
4466.000000	4.829776
4464.000000	4.835339
4462.000000	4.841166
4460.000000	4.847291
4458.000000	4.853661
4456.000000	4.859506
4454.000000	4.864365
4452.000000	4.868686
4450.000000	4.873776
4448.000000	4.880031
4446.000000	4.888073
4444.000000	4.895791
4442.000000	4.900917
4440.000000	4.904653
4438.000000	4.909924
4436.000000	4.916055
4434.000000	4.921802
4432.000000	4.927848
4430.000000	4.934091
4428.000000	4.939766
4426.000000	4.944566
4424.000000	4.949430
4422.000000	4.954705
4420.000000	4.959860
4418.000000	4.964518
4416.000000	4.968922
4414.000000	4.974328
4412.000000	4.980930
4410.000000	4.986545
4408.000000	4.991773
4406.000000	4.998873
4404.000000	5.005482
4402.000000	5.010334
4400.000000	5.014420
4398.000000	5.019109
4396.000000	5.025269
4394.000000	5.032598
4392.000000	5.038464
4390.000000	5.043620
4388.000000	5.049288
4386.000000	5.054502
4384.000000	5.058575
4382.000000	5.062592
4380.000000	5.066473
4378.000000	5.071260
4376.000000	5.077170
4374.000000	5.083042
4372.000000	5.087800
4370.000000	5.091427
4368.000000	5.093767
4366.000000	5.096302
4364.000000	5.101150
4362.000000	5.107666
4360.000000	5.113169
4358.000000	5.117505
4356.000000	5.121891
4354.000000	5.127498
4352.000000	5.133063
4350.000000	5.137508
4348.000000	5.142186
4346.000000	5.147598
4344.000000	5.152741
4342.000000	5.157905
4340.000000	5.162103
4338.000000	5.166147
4336.000000	5.171656
4334.000000	5.176807
4332.000000	5.180284
4330.000000	5.183825
4328.000000	5.188461
4326.000000	5.193809
4324.000000	5.198381
4322.000000	5.201476
4320.000000	5.205592
4318.000000	5.212271
4316.000000	5.217952
4314.000000	5.221373
4312.000000	5.226489
4310.000000	5.233715
4308.000000	5.239724
4306.000000	5.244740
4304.000000	5.249708
4302.000000	5.254425
4300.000000	5.259141
4298.000000	5.263409
4296.000000	5.267521
4294.000000	5.272211
4292.000000	5.276888
4290.000000	5.282350
4288.000000	5.288067
4286.000000	5.291719
4284.000000	5.294061
4282.000000	5.297341
4280.000000	5.302067
4278.000000	5.307937
4276.000000	5.313643
4274.000000	5.317654
4272.000000	5.320825
4270.000000	5.325833
4268.000000	5.332564
4266.000000	5.337765
4264.000000	5.340486
4262.000000	5.343333
4260.000000	5.348024
4258.000000	5.352884
4256.000000	5.357253
4254.000000	5.361749
4252.000000	5.366411
4250.000000	5.371564
4248.000000	5.378062
4246.000000	5.383903
4244.000000	5.386968
4242.000000	5.389582
4240.000000	5.394356
4238.000000	5.400634
4236.000000	5.406461
4234.000000	5.410900
4232.000000	5.414505
4230.000000	5.418389
4228.000000	5.424041
4226.000000	5.430801
4224.000000	5.436066
4222.000000	5.439775
4220.000000	5.444022
4218.000000	5.450204
4216.000000	5.456514
4214.000000	5.459798
4212.000000	5.462394
4210.000000	5.467311
4208.000000	5.473306
4206.000000	5.480192
4204.000000	5.487413
4202.000000	5.493425
4200.000000	5.499116
4198.000000	5.504111
4196.000000	5.508453
4194.000000	5.514708
4192.000000	5.521547
4190.000000	5.527278
4188.000000	5.532655
4186.000000	5.537768
4184.000000	5.541731
4182.000000	5.545407
4180.000000	5.549415
4178.000000	5.554725
4176.000000	5.560970
4174.000000	5.567096
4172.000000	5.573782
4170.000000	5.580032
4168.000000	5.584466
4166.000000	5.589330
4164.000000	5.594271
4162.000000	5.598843
4160.000000	5.604610
4158.000000	5.611170
4156.000000	5.616817
4154.000000	5.621478
4152.000000	5.626611
4150.000000	5.632218
4148.000000	5.636531
4146.000000	5.640611
4144.000000	5.646860
4142.000000	5.654186
4140.000000	5.659072
4138.000000	5.663057
4136.000000	5.669109
4134.000000	5.676247
4132.000000	5.682891
4130.000000	5.688704
4128.000000	5.694405
4126.000000	5.701175
4124.000000	5.706835
4122.000000	5.709978
4120.000000	5.712967
4118.000000	5.718554
4116.000000	5.726749
4114.000000	5.734736
4112.000000	5.740214
4110.000000	5.744086
4108.000000	5.748392
4106.000000	5.753728
4104.000000	5.760041
4102.000000	5.765831
4100.000000	5.770486
4098.000000	5.775707
4096.000000	5.781039
4094.000000	5.786696
4092.000000	5.793845
4090.000000	5.799838
4088.000000	5.803177
4086.000000	5.807308
4084.000000	5.814137
4082.000000	5.819972
4080.000000	5.823805
4078.000000	5.829465
4076.000000	5.835473
4074.000000	5.839542
4072.000000	5.844276
4070.000000	5.850047
4068.000000	5.855385
4066.000000	5.860505
4064.000000	5.865769
4062.000000	5.871859
4060.000000	5.878201
4058.000000	5.883841
4056.000000	5.889097
4054.000000	5.894314
4052.000000	5.899531
4050.000000	5.903949
4048.000000	5.907710
4046.000000	5.913391
4044.000000	5.919770
4042.000000	5.923247
4040.000000	5.927029
4038.000000	5.934758
4036.000000	5.942845
4034.000000	5.949167
4032.000000	5.954962
4030.000000	5.960106
4028.000000	5.964784
4026.000000	5.970860
4024.000000	5.977627
4022.000000	5.982738
4020.000000	5.986914
4018.000000	5.992643
4016.000000	5.999574
4014.000000	6.005541
4012.000000	6.011540
4010.000000	6.018945
4008.000000	6.026358
4006.000000	6.033129
4004.000000	6.038734
4002.000000	6.043633
4000.000000	6.048077
3998.000000	6.053431
3996.000000	6.060441
3994.000000	6.067428
3992.000000	6.074319
3990.000000	6.080366
3988.000000	6.085037
3986.000000	6.090211
3984.000000	6.096115
3982.000000	6.102136
3980.000000	6.108298
3978.000000	6.115619
3976.000000	6.123188
3974.000000	6.129170
3972.000000	6.134955
3970.000000	6.141858
3968.000000	6.149018
3966.000000	6.156491
3964.000000	6.163427
3962.000000	6.168858
3960.000000	6.175058
3958.000000	6.182954
3956.000000	6.190023
3954.000000	6.197105
3952.000000	6.203727
3950.000000	6.208702
3948.000000	6.215638
3946.000000	6.224309
3944.000000	6.232326
3942.000000	6.241015
3940.000000	6.251771
3938.000000	6.262100
3936.000000	6.266954
3934.000000	6.269343
3932.000000	6.276950
3930.000000	6.289819
3928.000000	6.301356
3926.000000	6.309190
3924.000000	6.316066
3922.000000	6.322702
3920.000000	6.328823
3918.000000	6.337245
3916.000000	6.351136
3914.000000	6.367134
3912.000000	6.380256
3910.000000	6.389166
3908.000000	6.389323
3906.000000	6.379840
3904.000000	6.373263
3902.000000	6.379981
3900.000000	6.399010
3898.000000	6.422786
3896.000000	6.438660
3894.000000	6.440908
3892.000000	6.443403
3890.000000	6.453284
3888.000000	6.456167
3886.000000	6.458472
3884.000000	6.472015
3882.000000	6.485649
3880.000000	6.500141
3878.000000	6.514353
3876.000000	6.518590
3874.000000	6.514482
3872.000000	6.505461
3870.000000	6.508163
3868.000000	6.524794
3866.000000	6.538049
3864.000000	6.553224
3862.000000	6.573863
3860.000000	6.586694
3858.000000	6.566600
3856.000000	6.509731
3854.000000	6.483599
3852.000000	6.531794
3850.000000	6.600100
3848.000000	6.637126
3846.000000	6.645120
3844.000000	6.641114
3842.000000	6.630003
3840.000000	6.611291
3838.000000	6.609552
3836.000000	6.635720
3834.000000	6.663513
3832.000000	6.683516
3830.000000	6.700542
3828.000000	6.711119
3826.000000	6.713304
3824.000000	6.700692
3822.000000	6.689617
3820.000000	6.694277
3818.000000	6.694675
3816.000000	6.706358
3814.000000	6.744760
3812.000000	6.773860
3810.000000	6.769709
3808.000000	6.756924
3806.000000	6.759492
3804.000000	6.752982
3802.000000	6.746092
3800.000000	6.768949
3798.000000	6.798559
3796.000000	6.817761
3794.000000	6.831433
3792.000000	6.840487
3790.000000	6.846414
3788.000000	6.848905
3786.000000	6.851656
3784.000000	6.857049
3782.000000	6.859033
3780.000000	6.860990
3778.000000	6.871792
3776.000000	6.883899
3774.000000	6.885705
3772.000000	6.878498
3770.000000	6.875489
3768.000000	6.880529
3766.000000	6.890479
3764.000000	6.900815
3762.000000	6.902755
3760.000000	6.901146
3758.000000	6.904924
3756.000000	6.896997
3754.000000	6.861143
3752.000000	6.829172
3750.000000	6.837111
3748.000000	6.848820
3746.000000	6.834034
3744.000000	6.852430
3742.000000	6.908241
3740.000000	6.932342
3738.000000	6.917896
3736.000000	6.906287
3734.000000	6.914366
3732.000000	6.937662
3730.000000	6.962529
3728.000000	6.970927
3726.000000	6.970504
3724.000000	6.972788
3722.000000	6.979230
3720.000000	6.987404
3718.000000	6.992886
3716.000000	6.984612
3714.000000	6.960206
3712.000000	6.946938
3710.000000	6.959995
3708.000000	6.982669
3706.000000	6.993963
3704.000000	6.985369
3702.000000	6.974453
3700.000000	6.975342
3698.000000	6.976884
3696.000000	6.969445
3694.000000	6.948764
3692.000000	6.911500
3690.000000	6.875902
3688.000000	6.877785
3686.000000	6.903844
3684.000000	6.912185
3682.000000	6.898651
3680.000000	6.866532
3678.000000	6.813011
3676.000000	6.774881
3674.000000	6.767824
3672.000000	6.754522
3670.000000	6.746187
3668.000000	6.757933
3666.000000	6.762358
3664.000000	6.749800
3662.000000	6.729884
3660.000000	6.700359
3658.000000	6.662609
3656.000000	6.637407
3654.000000	6.615158
3652.000000	6.570701
3650.000000	6.530345
3648.000000	6.527391
3646.000000	6.544209
3644.000000	6.546845
3642.000000	6.533474
3640.000000	6.517117
3638.000000	6.500228
3636.000000	6.479633
3634.000000	6.452597
3632.000000	6.411045
3630.000000	6.374189
3628.000000	6.374491
3626.000000	6.389537
3624.000000	6.386189
3622.000000	6.360817
3620.000000	6.334685
3618.000000	6.327561
3616.000000	6.323989
3614.000000	6.310689
3612.000000	6.292492
3610.000000	6.278174
3608.000000	6.276262
3606.000000	6.278254
3604.000000	6.274242
3602.000000	6.265585
3600.000000	6.255705
3598.000000	6.245127
3596.000000	6.233493
3594.000000	6.224902
3592.000000	6.213821
3590.000000	6.194683
3588.000000	6.182691
3586.000000	6.186380
3584.000000	6.192443
3582.000000	6.190927
3580.000000	6.184446
3578.000000	6.177998
3576.000000	6.172173
3574.000000	6.166280
3572.000000	6.157559
3570.000000	6.141372
3568.000000	6.128572
3566.000000	6.129395
3564.000000	6.133184
3562.000000	6.132927
3560.000000	6.131847
3558.000000	6.129392
3556.000000	6.123982
3554.000000	6.117718
3552.000000	6.113183
3550.000000	6.109250
3548.000000	6.102990
3546.000000	6.098744
3544.000000	6.098271
3542.000000	6.095898
3540.000000	6.092308
3538.000000	6.089074
3536.000000	6.084821
3534.000000	6.080984
3532.000000	6.076295
3530.000000	6.069189
3528.000000	6.062776
3526.000000	6.057409
3524.000000	6.052970
3522.000000	6.048870
3520.000000	6.042778
3518.000000	6.036469
3516.000000	6.032523
3514.000000	6.027480
3512.000000	6.018709
3510.000000	6.011273
3508.000000	6.005737
3506.000000	5.998431
3504.000000	5.991315
3502.000000	5.986039
3500.000000	5.979097
3498.000000	5.970763
3496.000000	5.963085
3494.000000	5.956203
3492.000000	5.948702
3490.000000	5.939839
3488.000000	5.931347
3486.000000	5.924824
3484.000000	5.919305
3482.000000	5.914079
3480.000000	5.908782
3478.000000	5.903067
3476.000000	5.898194
3474.000000	5.895543
3472.000000	5.893757
3470.000000	5.891118
3468.000000	5.888363
3466.000000	5.885916
3464.000000	5.883292
3462.000000	5.882419
3460.000000	5.882965
3458.000000	5.881947
3456.000000	5.879686
3454.000000	5.876934
3452.000000	5.875322
3450.000000	5.873126
3448.000000	5.869651
3446.000000	5.868632
3444.000000	5.870864
3442.000000	5.873003
3440.000000	5.874286
3438.000000	5.877363
3436.000000	5.882042
3434.000000	5.887218
3432.000000	5.893189
3430.000000	5.900461
3428.000000	5.909162
3426.000000	5.917521
3424.000000	5.923409
3422.000000	5.928368
3420.000000	5.935739
3418.000000	5.944493
3416.000000	5.950146
3414.000000	5.951600
3412.000000	5.953345
3410.000000	5.956759
3408.000000	5.959677
3406.000000	5.962186
3404.000000	5.963543
3402.000000	5.965528
3400.000000	5.968232
3398.000000	5.970860
3396.000000	5.974592
3394.000000	5.978878
3392.000000	5.983905
3390.000000	5.988973
3388.000000	5.992070
3386.000000	5.995670
3384.000000	6.000846
3382.000000	6.003734
3380.000000	6.004710
3378.000000	6.006437
3376.000000	6.008293
3374.000000	6.011197
3372.000000	6.013906
3370.000000	6.015707
3368.000000	6.018905
3366.000000	6.021089
3364.000000	6.023408
3362.000000	6.026460
3360.000000	6.026862
3358.000000	6.027974
3356.000000	6.031045
3354.000000	6.032696
3352.000000	6.034426
3350.000000	6.037866
3348.000000	6.040958
3346.000000	6.043602
3344.000000	6.046443
3342.000000	6.048220
3340.000000	6.049699
3338.000000	6.053154
3336.000000	6.056424
3334.000000	6.056765
3332.000000	6.057817
3330.000000	6.060461
3328.000000	6.063469
3326.000000	6.065729
3324.000000	6.065637
3322.000000	6.065962
3320.000000	6.068807
3318.000000	6.073007
3316.000000	6.075201
3314.000000	6.075835
3312.000000	6.077018
3310.000000	6.077157
3308.000000	6.077225
3306.000000	6.079138
3304.000000	6.082363
3302.000000	6.084515
3300.000000	6.085518
3298.000000	6.087689
3296.000000	6.088652
3294.000000	6.088359
3292.000000	6.089153
3290.000000	6.090228
3288.000000	6.091582
3286.000000	6.093996
3284.000000	6.097305
3282.000000	6.101185
3280.000000	6.103521
3278.000000	6.103091
3276.000000	6.102732
3274.000000	6.103920
3272.000000	6.106247
3270.000000	6.108596
3268.000000	6.111897
3266.000000	6.114745
3264.000000	6.116552
3262.000000	6.119530
3260.000000	6.121472
3258.000000	6.122038
3256.000000	6.124868
3254.000000	6.128586
3252.000000	6.130242
3250.000000	6.131978
3248.000000	6.134220
3246.000000	6.137122
3244.000000	6.141167
3242.000000	6.144393
3240.000000	6.147322
3238.000000	6.149885
3236.000000	6.151594
3234.000000	6.153073
3232.000000	6.156648
3230.000000	6.161148
3228.000000	6.163477
3226.000000	6.166104
3224.000000	6.170318
3222.000000	6.173570
3220.000000	6.175945
3218.000000	6.179007
3216.000000	6.181025
3214.000000	6.182924
3212.000000	6.187331
3210.000000	6.192248
3208.000000	6.195045
3206.000000	6.197391
3204.000000	6.201263
3202.000000	6.206930
3200.000000	6.212767
3198.000000	6.217509
3196.000000	6.222256
3194.000000	6.226847
3192.000000	6.230015
3190.000000	6.233252
3188.000000	6.238343
3186.000000	6.244167
3184.000000	6.248774
3182.000000	6.254027
3180.000000	6.259049
3178.000000	6.263858
3176.000000	6.268962
3174.000000	6.273096
3172.000000	6.279447
3170.000000	6.286625
3168.000000	6.291221
3166.000000	6.294651
3164.000000	6.297975
3162.000000	6.303185
3160.000000	6.309140
3158.000000	6.313011
3156.000000	6.317965
3154.000000	6.324751
3152.000000	6.331759
3150.000000	6.337458
3148.000000	6.341269
3146.000000	6.345158
3144.000000	6.349439
3142.000000	6.355134
3140.000000	6.360279
3138.000000	6.364617
3136.000000	6.370950
3134.000000	6.376883
3132.000000	6.380394
3130.000000	6.383157
3128.000000	6.387470
3126.000000	6.392245
3124.000000	6.395879
3122.000000	6.400186
3120.000000	6.404020
3118.000000	6.405960
3116.000000	6.407821
3114.000000	6.410825
3112.000000	6.414581
3110.000000	6.418596
3108.000000	6.422417
3106.000000	6.427137
3104.000000	6.431546
3102.000000	6.434305
3100.000000	6.437513
3098.000000	6.442899
3096.000000	6.448563
3094.000000	6.451991
3092.000000	6.456176
3090.000000	6.461229
3088.000000	6.466021
3086.000000	6.469910
3084.000000	6.472451
3082.000000	6.475450
3080.000000	6.478708
3078.000000	6.481895
3076.000000	6.484522
3074.000000	6.485944
3072.000000	6.487070
3070.000000	6.488398
3068.000000	6.488310
3066.000000	6.489868
3064.000000	6.493367
3062.000000	6.497441
3060.000000	6.503109
3058.000000	6.508763
3056.000000	6.513929
3054.000000	6.518390
3052.000000	6.523011
3050.000000	6.528185
3048.000000	6.532594
3046.000000	6.536989
3044.000000	6.541556
3042.000000	6.544371
3040.000000	6.546807
3038.000000	6.549007
3036.000000	6.551368
3034.000000	6.553233
3032.000000	6.553512
3030.000000	6.552475
3028.000000	6.549653
3026.000000	6.543698
3024.000000	6.535948
3022.000000	6.529735
3020.000000	6.527863
3018.000000	6.533199
3016.000000	6.546230
3014.000000	6.565513
3012.000000	6.589035
3010.000000	6.611012
3008.000000	6.628357
3006.000000	6.640076
3004.000000	6.649812
3002.000000	6.659355
3000.000000	6.667776
2998.000000	6.674905
2996.000000	6.680060
2994.000000	6.684077
2992.000000	6.687428
2990.000000	6.689997
2988.000000	6.693115
2986.000000	6.695448
2984.000000	6.693770
2982.000000	6.688016
2980.000000	6.682583
2978.000000	6.675359
2976.000000	6.660612
2974.000000	6.638999
2972.000000	6.611070
2970.000000	6.577024
2968.000000	6.541465
2966.000000	6.510023
2964.000000	6.487864
2962.000000	6.479936
2960.000000	6.487255
2958.000000	6.505405
2956.000000	6.527306
2954.000000	6.546952
2952.000000	6.562160
2950.000000	6.571508
2948.000000	6.573430
2946.000000	6.566589
2944.000000	6.549709
2942.000000	6.525051
2940.000000	6.493257
2938.000000	6.458601
2936.000000	6.427144
2934.000000	6.400762
2932.000000	6.376363
2930.000000	6.351575
2928.000000	6.331625
2926.000000	6.325527
2924.000000	6.341064
2922.000000	6.379317
2920.000000	6.435132
2918.000000	6.502010
2916.000000	6.569613
2914.000000	6.630262
2912.000000	6.682524
2910.000000	6.727119
2908.000000	6.762698
2906.000000	6.790964
2904.000000	6.816584
2902.000000	6.840909
2900.000000	6.863080
2898.000000	6.883978
2896.000000	6.905087
2894.000000	6.925723
2892.000000	6.944274
2890.000000	6.962811
2888.000000	6.980405
2886.000000	6.992585
2884.000000	7.001735
2882.000000	7.008523
2880.000000	7.012192
2878.000000	7.011944
2876.000000	7.006852
2874.000000	6.996265
2872.000000	6.980646
2870.000000	6.957042
2868.000000	6.923504
2866.000000	6.885028
2864.000000	6.848823
2862.000000	6.825356
2860.000000	6.824951
2858.000000	6.842630
2856.000000	6.868459
2854.000000	6.899079
2852.000000	6.935140
2850.000000	6.978376
2848.000000	7.026485
2846.000000	7.072921
2844.000000	7.114506
2842.000000	7.150293
2840.000000	7.178783
2838.000000	7.201419
2836.000000	7.219585
2834.000000	7.235843
2832.000000	7.249985
2830.000000	7.262323
2828.000000	7.273396
2826.000000	7.283517
2824.000000	7.294281
2822.000000	7.303756
2820.000000	7.313330
2818.000000	7.323119
2816.000000	7.329278
2814.000000	7.334028
2812.000000	7.340799
2810.000000	7.348818
2808.000000	7.355395
2806.000000	7.360328
2804.000000	7.363720
2802.000000	7.368672
2800.000000	7.375985
2798.000000	7.381204
2796.000000	7.384308
2794.000000	7.389121
2792.000000	7.395940
2790.000000	7.402249
2788.000000	7.408476
2786.000000	7.415817
2784.000000	7.423862
2782.000000	7.432212
2780.000000	7.439474
2778.000000	7.445207
2776.000000	7.450049
2774.000000	7.455408
2772.000000	7.461797
2770.000000	7.466536
2768.000000	7.471030
2766.000000	7.475712
2764.000000	7.480481
2762.000000	7.486112
2760.000000	7.490290
2758.000000	7.494144
2756.000000	7.498848
2754.000000	7.503921
2752.000000	7.506979
2750.000000	7.510476
2748.000000	7.515622
2746.000000	7.519000
2744.000000	7.521869
2742.000000	7.525598
2740.000000	7.528620
2738.000000	7.531630
2736.000000	7.532660
2734.000000	7.534930
2732.000000	7.540214
2730.000000	7.544237
2728.000000	7.546836
2726.000000	7.548268
2724.000000	7.549173
2722.000000	7.552415
2720.000000	7.556122
2718.000000	7.558477
2716.000000	7.560187
2714.000000	7.559985
2712.000000	7.560437
2710.000000	7.562299
2708.000000	7.564984
2706.000000	7.568401
2704.000000	7.571303
2702.000000	7.573071
2700.000000	7.574745
2698.000000	7.577978
2696.000000	7.580448
2694.000000	7.581603
2692.000000	7.583588
2690.000000	7.585579
2688.000000	7.587352
2686.000000	7.589566
2684.000000	7.592559
2682.000000	7.594367
2680.000000	7.594235
2678.000000	7.594606
2676.000000	7.594576
2674.000000	7.594551
2672.000000	7.595923
2670.000000	7.597558
2668.000000	7.597062
2666.000000	7.597136
2664.000000	7.600212
2662.000000	7.601595
2660.000000	7.602562
2658.000000	7.603452
2656.000000	7.603279
2654.000000	7.604001
2652.000000	7.604099
2650.000000	7.603157
2648.000000	7.602796
2646.000000	7.603164
2644.000000	7.603132
2642.000000	7.604219
2640.000000	7.606060
2638.000000	7.606492
2636.000000	7.606334
2634.000000	7.606732
2632.000000	7.608135
2630.000000	7.607031
2628.000000	7.604955
2626.000000	7.604396
2624.000000	7.603277
2622.000000	7.603020
2620.000000	7.603616
2618.000000	7.602005
2616.000000	7.600560
2614.000000	7.599387
2612.000000	7.597309
2610.000000	7.595495
2608.000000	7.595692
2606.000000	7.596505
2604.000000	7.594226
2602.000000	7.589662
2600.000000	7.585708
2598.000000	7.583488
2596.000000	7.582328
2594.000000	7.579588
2592.000000	7.577211
2590.000000	7.577923
2588.000000	7.577871
2586.000000	7.577441
2584.000000	7.578666
2582.000000	7.580876
2580.000000	7.581800
2578.000000	7.582272
2576.000000	7.582130
2574.000000	7.580457
2572.000000	7.578939
2570.000000	7.579268
2568.000000	7.579450
2566.000000	7.579335
2564.000000	7.578807
2562.000000	7.577515
2560.000000	7.575218
2558.000000	7.573248
2556.000000	7.572053
2554.000000	7.569381
2552.000000	7.566988
2550.000000	7.564712
2548.000000	7.562206
2546.000000	7.558821
2544.000000	7.555202
2542.000000	7.552789
2540.000000	7.550740
2538.000000	7.549053
2536.000000	7.546971
2534.000000	7.542959
2532.000000	7.539397
2530.000000	7.537379
2528.000000	7.535322
2526.000000	7.532484
2524.000000	7.528690
2522.000000	7.524199
2520.000000	7.521201
2518.000000	7.519416
2516.000000	7.518715
2514.000000	7.517605
2512.000000	7.513336
2510.000000	7.506819
2508.000000	7.502887
2506.000000	7.501338
2504.000000	7.499968
2502.000000	7.497010
2500.000000	7.493201
2498.000000	7.489870
2496.000000	7.488543
2494.000000	7.488190
2492.000000	7.485253
2490.000000	7.481746
2488.000000	7.479399
2486.000000	7.477239
2484.000000	7.476150
2482.000000	7.474904
2480.000000	7.473755
2478.000000	7.472506
2476.000000	7.471483
2474.000000	7.471054
2472.000000	7.470095
2470.000000	7.467741
2468.000000	7.466388
2466.000000	7.464331
2464.000000	7.461910
2462.000000	7.459384
2460.000000	7.456379
2458.000000	7.455696
2456.000000	7.456768
2454.000000	7.457363
2452.000000	7.457915
2450.000000	7.457744
2448.000000	7.457038
2446.000000	7.455410
2444.000000	7.454688
2442.000000	7.455868
2440.000000	7.458337
2438.000000	7.458578
2436.000000	7.457731
2434.000000	7.459145
2432.000000	7.460777
2430.000000	7.460735
2428.000000	7.460237
2426.000000	7.460594
2424.000000	7.464147
2422.000000	7.468143
2420.000000	7.469154
2418.000000	7.470197
2416.000000	7.472754
2414.000000	7.476221
2412.000000	7.480543
2410.000000	7.484242
2408.000000	7.486946
2406.000000	7.489006
2404.000000	7.491921
2402.000000	7.494490
2400.000000	7.496006
2398.000000	7.497690
2396.000000	7.500974
2394.000000	7.504492
2392.000000	7.506329
2390.000000	7.507938
2388.000000	7.509033
2386.000000	7.508610
2384.000000	7.506627
2382.000000	7.505252
2380.000000	7.502684
2378.000000	7.495451
2376.000000	7.484942
2374.000000	7.471759
2372.000000	7.454535
2370.000000	7.435838
2368.000000	7.417636
2366.000000	7.402068
2364.000000	7.392536
2362.000000	7.391085
2360.000000	7.395869
2358.000000	7.405294
2356.000000	7.420891
2354.000000	7.440705
2352.000000	7.462424
2350.000000	7.476243
2348.000000	7.470145
2346.000000	7.446939
2344.000000	7.417742
2342.000000	7.389902
2340.000000	7.373008
2338.000000	7.375810
2336.000000	7.387505
2334.000000	7.396042
2332.000000	7.403045
2330.000000	7.409049
2328.000000	7.415764
2326.000000	7.423083
2324.000000	7.429946
2322.000000	7.437272
2320.000000	7.443225
2318.000000	7.446857
2316.000000	7.450424
2314.000000	7.452964
2312.000000	7.456262
2310.000000	7.460230
2308.000000	7.462433
2306.000000	7.462831
2304.000000	7.462771
2302.000000	7.461487
2300.000000	7.459276
2298.000000	7.459133
2296.000000	7.460693
2294.000000	7.460023
2292.000000	7.456571
2290.000000	7.453414
2288.000000	7.453045
2286.000000	7.452795
2284.000000	7.450736
2282.000000	7.448563
2280.000000	7.446832
2278.000000	7.444042
2276.000000	7.441611
2274.000000	7.440278
2272.000000	7.438614
2270.000000	7.436486
2268.000000	7.434443
2266.000000	7.431381
2264.000000	7.429276
2262.000000	7.427413
2260.000000	7.425097
2258.000000	7.422610
2256.000000	7.422315
2254.000000	7.423044
2252.000000	7.421279
2250.000000	7.418383
2248.000000	7.416659
2246.000000	7.417502
2244.000000	7.417201
2242.000000	7.414939
2240.000000	7.415465
2238.000000	7.417057
2236.000000	7.415787
2234.000000	7.413913
2232.000000	7.414150
2230.000000	7.414338
2228.000000	7.413737
2226.000000	7.415402
2224.000000	7.415177
2222.000000	7.413450
2220.000000	7.413713
2218.000000	7.414238
2216.000000	7.414747
2214.000000	7.414470
2212.000000	7.413575
2210.000000	7.412615
2208.000000	7.412015
2206.000000	7.413589
2204.000000	7.415890
2202.000000	7.416666
2200.000000	7.415928
2198.000000	7.416462
2196.000000	7.417809
2194.000000	7.419031
2192.000000	7.419446
2190.000000	7.419254
2188.000000	7.418829
2186.000000	7.418688
2184.000000	7.419785
2182.000000	7.419103
2180.000000	7.418037
2178.000000	7.418699
2176.000000	7.420356
2174.000000	7.420174
2172.000000	7.420185
2170.000000	7.420217
2168.000000	7.421300
2166.000000	7.423029
2164.000000	7.425985
2162.000000	7.428225
2160.000000	7.428562
2158.000000	7.429501
2156.000000	7.430924
2154.000000	7.433591
2152.000000	7.436506
2150.000000	7.437498
2148.000000	7.438260
2146.000000	7.438868
2144.000000	7.440731
2142.000000	7.443975
2140.000000	7.446844
2138.000000	7.447899
2136.000000	7.450071
2134.000000	7.454375
2132.000000	7.458623
2130.000000	7.459797
2128.000000	7.459790
2126.000000	7.462719
2124.000000	7.466997
2122.000000	7.470296
2120.000000	7.474099
2118.000000	7.477814
2116.000000	7.481848
2114.000000	7.485959
2112.000000	7.489984
2110.000000	7.493198
2108.000000	7.495742
2106.000000	7.499047
2104.000000	7.504724
2102.000000	7.510649
2100.000000	7.517232
2098.000000	7.522625
2096.000000	7.526059
2094.000000	7.530138
2092.000000	7.535249
2090.000000	7.541030
2088.000000	7.545399
2086.000000	7.549404
2084.000000	7.555018
2082.000000	7.559541
2080.000000	7.564048
2078.000000	7.570420
2076.000000	7.577753
2074.000000	7.583874
2072.000000	7.589638
2070.000000	7.595747
2068.000000	7.599675
2066.000000	7.603258
2064.000000	7.609996
2062.000000	7.617659
2060.000000	7.625069
2058.000000	7.631124
2056.000000	7.635984
2054.000000	7.641389
2052.000000	7.647599
2050.000000	7.653242
2048.000000	7.659624
2046.000000	7.666658
2044.000000	7.672408
2042.000000	7.676621
2040.000000	7.681212
2038.000000	7.685732
2036.000000	7.689973
2034.000000	7.694769
2032.000000	7.699539
2030.000000	7.701950
2028.000000	7.707101
2026.000000	7.715130
2024.000000	7.720770
2022.000000	7.724335
2020.000000	7.728457
2018.000000	7.733738
2016.000000	7.739697
2014.000000	7.744458
2012.000000	7.749694
2010.000000	7.753529
2008.000000	7.756650
2006.000000	7.760972
2004.000000	7.765018
2002.000000	7.768050
2000.000000	7.769584
1998.000000	7.771532
1996.000000	7.775176
1994.000000	7.776248
1992.000000	7.778782
1990.000000	7.785089
1988.000000	7.788934
1986.000000	7.791247
1984.000000	7.792335
1982.000000	7.792632
1980.000000	7.794327
1978.000000	7.796114
1976.000000	7.796893
1974.000000	7.796810
1972.000000	7.796724
1970.000000	7.794803
1968.000000	7.791535
1966.000000	7.790978
1964.000000	7.792537
1962.000000	7.790483
1960.000000	7.782819
1958.000000	7.783759
1956.000000	7.791856
1954.000000	7.793781
1952.000000	7.793012
1950.000000	7.791198
1948.000000	7.789413
1946.000000	7.787451
1944.000000	7.781236
1942.000000	7.778236
1940.000000	7.781914
1938.000000	7.781803
1936.000000	7.780248
1934.000000	7.776653
1932.000000	7.773381
1930.000000	7.772529
1928.000000	7.772479
1926.000000	7.767495
1924.000000	7.759116
1922.000000	7.754725
1920.000000	7.748562
1918.000000	7.743095
1916.000000	7.747719
1914.000000	7.747598
1912.000000	7.740252
1910.000000	7.733868
1908.000000	7.731379
1906.000000	7.726222
1904.000000	7.720301
1902.000000	7.715219
1900.000000	7.710177
1898.000000	7.704394
1896.000000	7.700000
1894.000000	7.696787
1892.000000	7.691438
1890.000000	7.684376
1888.000000	7.686026
1886.000000	7.688531
1884.000000	7.686517
1882.000000	7.682606
1880.000000	7.679825
1878.000000	7.676264
1876.000000	7.673199
1874.000000	7.668753
1872.000000	7.657610
1870.000000	7.639041
1868.000000	7.635690
1866.000000	7.644352
1864.000000	7.647000
1862.000000	7.642642
1860.000000	7.638584
1858.000000	7.634385
1856.000000	7.630618
1854.000000	7.626099
1852.000000	7.621697
1850.000000	7.613506
1848.000000	7.599939
1846.000000	7.571323
1844.000000	7.556307
1842.000000	7.574903
1840.000000	7.581932
1838.000000	7.573776
1836.000000	7.568121
1834.000000	7.561062
1832.000000	7.541029
1830.000000	7.522364
1828.000000	7.521963
1826.000000	7.514620
1824.000000	7.509807
1822.000000	7.510281
1820.000000	7.503555
1818.000000	7.492369
1816.000000	7.483761
1814.000000	7.473404
1812.000000	7.457142
1810.000000	7.445558
1808.000000	7.439830
1806.000000	7.429122
1804.000000	7.412513
1802.000000	7.392752
1800.000000	7.379864
1798.000000	7.372739
1796.000000	7.356027
1794.000000	7.318797
1792.000000	7.300641
1790.000000	7.313240
1788.000000	7.312511
1786.000000	7.291987
1784.000000	7.277126
1782.000000	7.264850
1780.000000	7.252770
1778.000000	7.240824
1776.000000	7.214314
1774.000000	7.164166
1772.000000	7.140711
1770.000000	7.153497
1768.000000	7.156218
1766.000000	7.158491
1764.000000	7.139649
1762.000000	7.113421
1760.000000	7.106805
1758.000000	7.092405
1756.000000	7.078431
1754.000000	7.057308
1752.000000	7.013033
1750.000000	6.993949
1748.000000	6.995182
1746.000000	6.988283
1744.000000	6.970640
1742.000000	6.943770
1740.000000	6.918212
1738.000000	6.908288
1736.000000	6.853910
1734.000000	6.808103
1732.000000	6.849374
1730.000000	6.882243
1728.000000	6.885633
1726.000000	6.879334
1724.000000	6.868450
1722.000000	6.852314
1720.000000	6.801700
1718.000000	6.741368
1716.000000	6.754577
1714.000000	6.791665
1712.000000	6.804820
1710.000000	6.796522
1708.000000	6.776657
1706.000000	6.752783
1704.000000	6.736483
1702.000000	6.673605
1700.000000	6.636115
1698.000000	6.647691
1696.000000	6.642739
1694.000000	6.695932
1692.000000	6.735710
1690.000000	6.730310
1688.000000	6.700083
1686.000000	6.618873
1684.000000	6.597855
1682.000000	6.665545
1680.000000	6.698028
1678.000000	6.684264
1676.000000	6.651369
1674.000000	6.652725
1672.000000	6.648568
1670.000000	6.625686
1668.000000	6.638457
1666.000000	6.651222
1664.000000	6.629817
1662.000000	6.621476
1660.000000	6.632299
1658.000000	6.622552
1656.000000	6.548712
1654.000000	6.430889
1652.000000	6.450483
1650.000000	6.536190
1648.000000	6.520590
1646.000000	6.505902
1644.000000	6.540239
1642.000000	6.554888
1640.000000	6.538489
1638.000000	6.488735
1636.000000	6.438734
1634.000000	6.462984
1632.000000	6.491772
1630.000000	6.476201
1628.000000	6.452030
1626.000000	6.425559
1624.000000	6.386444
1622.000000	6.363303
1620.000000	6.333400
1618.000000	6.264733
1616.000000	6.235658
1614.000000	6.242493
1612.000000	6.209714
1610.000000	6.167747
1608.000000	6.147075
1606.000000	6.149605
1604.000000	6.164030
1602.000000	6.182048
1600.000000	6.197762
1598.000000	6.211459
1596.000000	6.222029
1594.000000	6.231033
1592.000000	6.235548
1590.000000	6.234788
1588.000000	6.230915
1586.000000	6.226614
1584.000000	6.222358
1582.000000	6.219160
1580.000000	6.208597
1578.000000	6.158163
1576.000000	6.128356
1574.000000	6.171718
1572.000000	6.179146
1570.000000	6.154088
1568.000000	6.154749
1566.000000	6.152018
1564.000000	6.129949
1562.000000	6.057367
1560.000000	5.950957
1558.000000	5.959658
1556.000000	6.034683
1554.000000	6.076657
1552.000000	6.109057
1550.000000	6.128356
1548.000000	6.140890
1546.000000	6.134503
1544.000000	6.112770
1542.000000	6.072872
1540.000000	6.058241
1538.000000	6.133105
1536.000000	6.196958
1534.000000	6.199589
1532.000000	6.219391
1530.000000	6.235141
1528.000000	6.223901
1526.000000	6.207016
1524.000000	6.182629
1522.000000	6.143921
1520.000000	6.152811
1518.000000	6.167513
1516.000000	6.160819
1514.000000	6.156015
1512.000000	6.143089
1510.000000	6.107816
1508.000000	6.026333
1506.000000	5.985581
1504.000000	5.998448
1502.000000	5.930326
1500.000000	5.753768
1498.000000	5.524050
1496.000000	5.355336
1494.000000	5.337942
1492.000000	5.420700
1490.000000	5.546440
1488.000000	5.681844
1486.000000	5.790171
1484.000000	5.860871
1482.000000	5.894811
1480.000000	5.909567
1478.000000	5.904655
1476.000000	5.881958
1474.000000	5.844581
1472.000000	5.833387
1470.000000	5.850804
1468.000000	5.837461
1466.000000	5.794232
1464.000000	5.767959
1462.000000	5.749870
1460.000000	5.680432
1458.000000	5.564162
1456.000000	5.497749
1454.000000	5.475917
1452.000000	5.444797
1450.000000	5.454876
1448.000000	5.516128
1446.000000	5.584142
1444.000000	5.616308
1442.000000	5.623394
1440.000000	5.616018
1438.000000	5.589534
1436.000000	5.589628
1434.000000	5.620751
1432.000000	5.626263
1430.000000	5.621395
1428.000000	5.624712
1426.000000	5.626175
1424.000000	5.619373
1422.000000	5.601719
1420.000000	5.566053
1418.000000	5.564800
1416.000000	5.577969
1414.000000	5.569734
1412.000000	5.543905
1410.000000	5.505881
1408.000000	5.452945
1406.000000	5.397837
1404.000000	5.368631
1402.000000	5.370853
1400.000000	5.387827
1398.000000	5.421075
1396.000000	5.447957
1394.000000	5.471245
1392.000000	5.495496
1390.000000	5.494895
1388.000000	5.471319
1386.000000	5.453121
1384.000000	5.448505
1382.000000	5.457403
1380.000000	5.464679
1378.000000	5.461450
1376.000000	5.451334
1374.000000	5.443067
1372.000000	5.442285
1370.000000	5.437048
1368.000000	5.426567
1366.000000	5.416098
1364.000000	5.401276
1362.000000	5.389822
1360.000000	5.384082
1358.000000	5.376856
1356.000000	5.364160
1354.000000	5.349145
1352.000000	5.334547
1350.000000	5.320013
1348.000000	5.306874
1346.000000	5.292343
1344.000000	5.275690
1342.000000	5.256858
1340.000000	5.239175
1338.000000	5.230369
1336.000000	5.225780
1334.000000	5.219733
1332.000000	5.210428
1330.000000	5.197520
1328.000000	5.181410
1326.000000	5.164717
1324.000000	5.147959
1322.000000	5.129114
1320.000000	5.107757
1318.000000	5.087336
1316.000000	5.067496
1314.000000	5.047068
1312.000000	5.025728
1310.000000	5.003977
1308.000000	4.980137
1306.000000	4.957247
1304.000000	4.934692
1302.000000	4.909676
1300.000000	4.884451
1298.000000	4.860100
1296.000000	4.836248
1294.000000	4.810944
1292.000000	4.784615
1290.000000	4.758334
1288.000000	4.730303
1286.000000	4.701757
1284.000000	4.671155
1282.000000	4.640149
1280.000000	4.609353
1278.000000	4.576247
1276.000000	4.536232
1274.000000	4.490640
1272.000000	4.437769
1270.000000	4.373067
1268.000000	4.291109
1266.000000	4.189287
1264.000000	4.082841
1262.000000	4.000129
1260.000000	3.962851
1258.000000	3.969623
1256.000000	3.998054
1254.000000	4.021008
1252.000000	4.024124
1250.000000	4.010074
1248.000000	3.982417
1246.000000	3.949085
1244.000000	3.914507
1242.000000	3.879550
1240.000000	3.844617
1238.000000	3.808344
1236.000000	3.774037
1234.000000	3.743469
1232.000000	3.712313
1230.000000	3.680408
1228.000000	3.648556
1226.000000	3.615925
1224.000000	3.583361
1222.000000	3.550934
1220.000000	3.516313
1218.000000	3.479455
1216.000000	3.442098
1214.000000	3.405491
1212.000000	3.370984
1210.000000	3.340472
1208.000000	3.310853
1206.000000	3.281657
1204.000000	3.253257
1202.000000	3.225549
1200.000000	3.198229
1198.000000	3.169737
1196.000000	3.141572
1194.000000	3.113233
1192.000000	3.081629
1190.000000	3.050926
1188.000000	3.020235
1186.000000	2.985041
1184.000000	2.943228
1182.000000	2.893826
1180.000000	2.854404
1178.000000	2.834717
1176.000000	2.815778
1174.000000	2.790515
1172.000000	2.759916
1170.000000	2.727281
1168.000000	2.692341
1166.000000	2.658285
1164.000000	2.626285
1162.000000	2.594274
1160.000000	2.561167
1158.000000	2.530111
1156.000000	2.500940
1154.000000	2.470276
1152.000000	2.438453
1150.000000	2.409257
1148.000000	2.379952
1146.000000	2.349274
1144.000000	2.318924
1142.000000	2.292441
1140.000000	2.270816
1138.000000	2.249028
1136.000000	2.223789
1134.000000	2.196799
1132.000000	2.168471
1130.000000	2.139980
1128.000000	2.110898
1126.000000	2.080415
1124.000000	2.048592
1122.000000	2.016481
1120.000000	1.983770
1118.000000	1.951623
1116.000000	1.918816
1114.000000	1.885489
1112.000000	1.851654
1110.000000	1.817865
1108.000000	1.785731
1106.000000	1.755233
1104.000000	1.724261
1102.000000	1.694158
1100.000000	1.665012
1098.000000	1.636321
1096.000000	1.608177
1094.000000	1.582566
1092.000000	1.557276
1090.000000	1.532465
1088.000000	1.508708
1086.000000	1.485731
1084.000000	1.464199
1082.000000	1.441833
1080.000000	1.418869
1078.000000	1.398436
1076.000000	1.380635
1074.000000	1.365383
1072.000000	1.351097
1070.000000	1.336676
1068.000000	1.321559
1066.000000	1.305019
1064.000000	1.290131
1062.000000	1.275939
1060.000000	1.260659
1058.000000	1.241799
1056.000000	1.214854
1054.000000	1.179547
1052.000000	1.145153
1050.000000	1.126242
1048.000000	1.125972
1046.000000	1.131732
1044.000000	1.131036
1042.000000	1.124121
1040.000000	1.111363
1038.000000	1.096605
1036.000000	1.083453
1034.000000	1.069567
1032.000000	1.051410
1030.000000	1.031454
1028.000000	1.012441
1026.000000	0.994167
1024.000000	0.976125
1022.000000	0.957326
1020.000000	0.938604
1018.000000	0.921558
1016.000000	0.906617
1014.000000	0.894687
1012.000000	0.883889
1010.000000	0.872488
1008.000000	0.859370
1006.000000	0.847022
1004.000000	0.835482
1002.000000	0.821129
1000.000000	0.803786
