PE IR       SUBTECH     SPECTRUM    ASCII       PEDS        4.00        
   -1
TE109A_030_80K_after_100K_SB.ASC
20/04/21
13:54:08.00
20/04/21
13:54:08.00
Administrator
TE109A, Tuesday, April 21 2020, 030.
1000.000000
#HDR
-1
-1
#GR
cm-1
EGY
1.0
0.0
6000.000000
-2.000000
2501
8
6.719833
0.693184
#DATA
6000.000000	1.234387
5998.000000	1.235896
5996.000000	1.239369
5994.000000	1.245870
5992.000000	1.250481
5990.000000	1.251722
5988.000000	1.252200
5986.000000	1.252772
5984.000000	1.253657
5982.000000	1.256437
5980.000000	1.260879
5978.000000	1.265367
5976.000000	1.265934
5974.000000	1.264823
5972.000000	1.266114
5970.000000	1.270229
5968.000000	1.275240
5966.000000	1.279193
5964.000000	1.281830
5962.000000	1.283842
5960.000000	1.287598
5958.000000	1.292078
5956.000000	1.294540
5954.000000	1.294891
5952.000000	1.295101
5950.000000	1.296901
5948.000000	1.300281
5946.000000	1.303300
5944.000000	1.304913
5942.000000	1.307243
5940.000000	1.311437
5938.000000	1.316416
5936.000000	1.320708
5934.000000	1.323389
5932.000000	1.325362
5930.000000	1.326773
5928.000000	1.327261
5926.000000	1.328738
5924.000000	1.331219
5922.000000	1.334577
5920.000000	1.337468
5918.000000	1.339584
5916.000000	1.343305
5914.000000	1.346335
5912.000000	1.350177
5910.000000	1.353324
5908.000000	1.355877
5906.000000	1.358154
5904.000000	1.359805
5902.000000	1.362733
5900.000000	1.367476
5898.000000	1.371482
5896.000000	1.373430
5894.000000	1.374560
5892.000000	1.377187
5890.000000	1.379990
5888.000000	1.381270
5886.000000	1.380891
5884.000000	1.382292
5882.000000	1.386110
5880.000000	1.390711
5878.000000	1.395710
5876.000000	1.399860
5874.000000	1.402680
5872.000000	1.402873
5870.000000	1.403091
5868.000000	1.404007
5866.000000	1.406759
5864.000000	1.412077
5862.000000	1.419182
5860.000000	1.425465
5858.000000	1.428878
5856.000000	1.431061
5854.000000	1.433451
5852.000000	1.435744
5850.000000	1.437520
5848.000000	1.438868
5846.000000	1.439290
5844.000000	1.439629
5842.000000	1.442032
5840.000000	1.447140
5838.000000	1.453941
5836.000000	1.459989
5834.000000	1.463001
5832.000000	1.465417
5830.000000	1.465574
5828.000000	1.465947
5826.000000	1.467041
5824.000000	1.470090
5822.000000	1.474326
5820.000000	1.479173
5818.000000	1.484538
5816.000000	1.488457
5814.000000	1.490231
5812.000000	1.491333
5810.000000	1.493493
5808.000000	1.496300
5806.000000	1.498737
5804.000000	1.501446
5802.000000	1.504962
5800.000000	1.508957
5798.000000	1.512709
5796.000000	1.519241
5794.000000	1.524821
5792.000000	1.526638
5790.000000	1.525530
5788.000000	1.525163
5786.000000	1.528236
5784.000000	1.531656
5782.000000	1.534138
5780.000000	1.539613
5778.000000	1.547400
5776.000000	1.553299
5774.000000	1.555033
5772.000000	1.554949
5770.000000	1.556111
5768.000000	1.557238
5766.000000	1.557165
5764.000000	1.557477
5762.000000	1.559328
5760.000000	1.564032
5758.000000	1.570588
5756.000000	1.577956
5754.000000	1.584264
5752.000000	1.587165
5750.000000	1.587958
5748.000000	1.589570
5746.000000	1.593170
5744.000000	1.596259
5742.000000	1.599120
5740.000000	1.602497
5738.000000	1.606932
5736.000000	1.612440
5734.000000	1.616555
5732.000000	1.620046
5730.000000	1.620366
5728.000000	1.620603
5726.000000	1.622682
5724.000000	1.626063
5722.000000	1.630757
5720.000000	1.635323
5718.000000	1.640568
5716.000000	1.644082
5714.000000	1.647779
5712.000000	1.650907
5710.000000	1.652974
5708.000000	1.655168
5706.000000	1.657580
5704.000000	1.661121
5702.000000	1.663693
5700.000000	1.665733
5698.000000	1.667183
5696.000000	1.669706
5694.000000	1.674974
5692.000000	1.679552
5690.000000	1.681901
5688.000000	1.681822
5686.000000	1.683546
5684.000000	1.687556
5682.000000	1.690752
5680.000000	1.693279
5678.000000	1.697838
5676.000000	1.703714
5674.000000	1.711223
5672.000000	1.716357
5670.000000	1.717157
5668.000000	1.715868
5666.000000	1.716095
5664.000000	1.720559
5662.000000	1.727136
5660.000000	1.732214
5658.000000	1.735348
5656.000000	1.737458
5654.000000	1.740763
5652.000000	1.743703
5650.000000	1.744798
5648.000000	1.745600
5646.000000	1.749512
5644.000000	1.754994
5642.000000	1.759087
5640.000000	1.761948
5638.000000	1.767219
5636.000000	1.772392
5634.000000	1.776406
5632.000000	1.780356
5630.000000	1.784182
5628.000000	1.786474
5626.000000	1.787863
5624.000000	1.791913
5622.000000	1.796728
5620.000000	1.799933
5618.000000	1.801828
5616.000000	1.805368
5614.000000	1.809954
5612.000000	1.812970
5610.000000	1.815289
5608.000000	1.816717
5606.000000	1.818532
5604.000000	1.821927
5602.000000	1.826399
5600.000000	1.830370
5598.000000	1.833134
5596.000000	1.836150
5594.000000	1.842993
5592.000000	1.850466
5590.000000	1.855407
5588.000000	1.857480
5586.000000	1.858025
5584.000000	1.860469
5582.000000	1.864474
5580.000000	1.867762
5578.000000	1.870920
5576.000000	1.875316
5574.000000	1.880705
5572.000000	1.884893
5570.000000	1.886887
5568.000000	1.889246
5566.000000	1.891752
5564.000000	1.894312
5562.000000	1.897101
5560.000000	1.900014
5558.000000	1.902311
5556.000000	1.906438
5554.000000	1.912382
5552.000000	1.918733
5550.000000	1.924202
5548.000000	1.927119
5546.000000	1.929672
5544.000000	1.932657
5542.000000	1.936503
5540.000000	1.938587
5538.000000	1.940237
5536.000000	1.943593
5534.000000	1.948051
5532.000000	1.951730
5530.000000	1.955194
5528.000000	1.958456
5526.000000	1.961113
5524.000000	1.964569
5522.000000	1.970021
5520.000000	1.974977
5518.000000	1.978362
5516.000000	1.983086
5514.000000	1.989302
5512.000000	1.993610
5510.000000	1.996743
5508.000000	1.999667
5506.000000	2.002686
5504.000000	2.003332
5502.000000	2.003995
5500.000000	2.006559
5498.000000	2.010363
5496.000000	2.014550
5494.000000	2.017857
5492.000000	2.021490
5490.000000	2.027172
5488.000000	2.032520
5486.000000	2.034343
5484.000000	2.035000
5482.000000	2.038655
5480.000000	2.044437
5478.000000	2.048637
5476.000000	2.051336
5474.000000	2.054711
5472.000000	2.060626
5470.000000	2.068754
5468.000000	2.074262
5466.000000	2.075812
5464.000000	2.076022
5462.000000	2.076937
5460.000000	2.080459
5458.000000	2.084865
5456.000000	2.089417
5454.000000	2.093786
5452.000000	2.097960
5450.000000	2.102190
5448.000000	2.105861
5446.000000	2.109764
5444.000000	2.113498
5442.000000	2.117236
5440.000000	2.121436
5438.000000	2.125918
5436.000000	2.129663
5434.000000	2.131215
5432.000000	2.131874
5430.000000	2.133045
5428.000000	2.136773
5426.000000	2.142178
5424.000000	2.146766
5422.000000	2.150624
5420.000000	2.154491
5418.000000	2.156484
5416.000000	2.157946
5414.000000	2.160959
5412.000000	2.165688
5410.000000	2.170907
5408.000000	2.176322
5406.000000	2.182656
5404.000000	2.187979
5402.000000	2.192351
5400.000000	2.196519
5398.000000	2.200167
5396.000000	2.203784
5394.000000	2.207801
5392.000000	2.211799
5390.000000	2.214416
5388.000000	2.217369
5386.000000	2.220513
5384.000000	2.222957
5382.000000	2.226410
5380.000000	2.230395
5378.000000	2.235852
5376.000000	2.241760
5374.000000	2.246743
5372.000000	2.249671
5370.000000	2.252588
5368.000000	2.256617
5366.000000	2.259970
5364.000000	2.262123
5362.000000	2.265585
5360.000000	2.269052
5358.000000	2.271945
5356.000000	2.274482
5354.000000	2.277218
5352.000000	2.281211
5350.000000	2.285147
5348.000000	2.289028
5346.000000	2.291739
5344.000000	2.293763
5342.000000	2.294680
5340.000000	2.296841
5338.000000	2.301916
5336.000000	2.307029
5334.000000	2.309591
5332.000000	2.312838
5330.000000	2.318714
5328.000000	2.324524
5326.000000	2.326871
5324.000000	2.329720
5322.000000	2.333810
5320.000000	2.337104
5318.000000	2.340298
5316.000000	2.346012
5314.000000	2.352261
5312.000000	2.354949
5310.000000	2.355107
5308.000000	2.358252
5306.000000	2.362441
5304.000000	2.366066
5302.000000	2.369027
5300.000000	2.372549
5298.000000	2.375496
5296.000000	2.378207
5294.000000	2.380050
5292.000000	2.381432
5290.000000	2.382921
5288.000000	2.386127
5286.000000	2.391188
5284.000000	2.395958
5282.000000	2.399555
5280.000000	2.400711
5278.000000	2.400522
5276.000000	2.401409
5274.000000	2.404253
5272.000000	2.408217
5270.000000	2.413263
5268.000000	2.417319
5266.000000	2.419963
5264.000000	2.422290
5262.000000	2.424894
5260.000000	2.425739
5258.000000	2.426653
5256.000000	2.428940
5254.000000	2.431441
5252.000000	2.431809
5250.000000	2.432804
5248.000000	2.436979
5246.000000	2.441926
5244.000000	2.445735
5242.000000	2.448942
5240.000000	2.452088
5238.000000	2.454918
5236.000000	2.457270
5234.000000	2.459032
5232.000000	2.460915
5230.000000	2.461450
5228.000000	2.460206
5226.000000	2.461567
5224.000000	2.465687
5222.000000	2.469130
5220.000000	2.470073
5218.000000	2.471365
5216.000000	2.472912
5214.000000	2.474085
5212.000000	2.474915
5210.000000	2.475313
5208.000000	2.475248
5206.000000	2.477639
5204.000000	2.481743
5202.000000	2.483163
5200.000000	2.481636
5198.000000	2.481205
5196.000000	2.482365
5194.000000	2.484734
5192.000000	2.486541
5190.000000	2.487948
5188.000000	2.488179
5186.000000	2.488788
5184.000000	2.491556
5182.000000	2.494909
5180.000000	2.497846
5178.000000	2.499154
5176.000000	2.500206
5174.000000	2.501102
5172.000000	2.503244
5170.000000	2.505734
5168.000000	2.506716
5166.000000	2.508104
5164.000000	2.510698
5162.000000	2.514710
5160.000000	2.518103
5158.000000	2.520792
5156.000000	2.522635
5154.000000	2.524082
5152.000000	2.525123
5150.000000	2.525722
5148.000000	2.527052
5146.000000	2.530033
5144.000000	2.533793
5142.000000	2.536512
5140.000000	2.538858
5138.000000	2.540075
5136.000000	2.540978
5134.000000	2.541943
5132.000000	2.542786
5130.000000	2.543659
5128.000000	2.545667
5126.000000	2.549690
5124.000000	2.553688
5122.000000	2.556170
5120.000000	2.557031
5118.000000	2.558115
5116.000000	2.561502
5114.000000	2.567379
5112.000000	2.574116
5110.000000	2.578801
5108.000000	2.580015
5106.000000	2.580900
5104.000000	2.584442
5102.000000	2.589578
5100.000000	2.593248
5098.000000	2.595726
5096.000000	2.598393
5094.000000	2.600767
5092.000000	2.602492
5090.000000	2.605709
5088.000000	2.610417
5086.000000	2.615166
5084.000000	2.618988
5082.000000	2.623751
5080.000000	2.629271
5078.000000	2.632854
5076.000000	2.635559
5074.000000	2.637784
5072.000000	2.639717
5070.000000	2.643140
5068.000000	2.648161
5066.000000	2.652921
5064.000000	2.657396
5062.000000	2.661844
5060.000000	2.665625
5058.000000	2.669468
5056.000000	2.673585
5054.000000	2.676408
5052.000000	2.679800
5050.000000	2.683942
5048.000000	2.687187
5046.000000	2.688831
5044.000000	2.691721
5042.000000	2.696351
5040.000000	2.702202
5038.000000	2.707551
5036.000000	2.711421
5034.000000	2.714410
5032.000000	2.717480
5030.000000	2.721322
5028.000000	2.726436
5026.000000	2.732029
5024.000000	2.738151
5022.000000	2.743569
5020.000000	2.746625
5018.000000	2.749207
5016.000000	2.751367
5014.000000	2.753928
5012.000000	2.756110
5010.000000	2.760017
5008.000000	2.763665
5006.000000	2.768074
5004.000000	2.773483
5002.000000	2.779476
5000.000000	2.785829
4998.000000	2.792593
4996.000000	2.798357
4994.000000	2.802316
4992.000000	2.806022
4990.000000	2.810339
4988.000000	2.813652
4986.000000	2.815706
4984.000000	2.819587
4982.000000	2.828301
4980.000000	2.838617
4978.000000	2.846094
4976.000000	2.849676
4974.000000	2.851227
4972.000000	2.853531
4970.000000	2.858285
4968.000000	2.864763
4966.000000	2.868432
4964.000000	2.869395
4962.000000	2.871859
4960.000000	2.877436
4958.000000	2.884683
4956.000000	2.889853
4954.000000	2.894730
4952.000000	2.901281
4950.000000	2.907724
4948.000000	2.911628
4946.000000	2.914430
4944.000000	2.917970
4942.000000	2.921678
4940.000000	2.926252
4938.000000	2.932060
4936.000000	2.936190
4934.000000	2.938283
4932.000000	2.940981
4930.000000	2.947246
4928.000000	2.955182
4926.000000	2.961717
4924.000000	2.967882
4922.000000	2.973792
4920.000000	2.979081
4918.000000	2.984075
4916.000000	2.989239
4914.000000	2.992841
4912.000000	2.996305
4910.000000	3.000401
4908.000000	3.005405
4906.000000	3.009995
4904.000000	3.014608
4902.000000	3.020938
4900.000000	3.029135
4898.000000	3.035614
4896.000000	3.039816
4894.000000	3.044091
4892.000000	3.049184
4890.000000	3.054337
4888.000000	3.059182
4886.000000	3.064626
4884.000000	3.071326
4882.000000	3.077467
4880.000000	3.082989
4878.000000	3.088879
4876.000000	3.093731
4874.000000	3.098341
4872.000000	3.104259
4870.000000	3.109494
4868.000000	3.115226
4866.000000	3.122981
4864.000000	3.130085
4862.000000	3.134538
4860.000000	3.138862
4858.000000	3.143561
4856.000000	3.148708
4854.000000	3.154435
4852.000000	3.158337
4850.000000	3.161982
4848.000000	3.170170
4846.000000	3.180541
4844.000000	3.187356
4842.000000	3.192496
4840.000000	3.198379
4838.000000	3.203790
4836.000000	3.208533
4834.000000	3.213224
4832.000000	3.217315
4830.000000	3.221627
4828.000000	3.227004
4826.000000	3.233807
4824.000000	3.242398
4822.000000	3.249564
4820.000000	3.255313
4818.000000	3.261667
4816.000000	3.267184
4814.000000	3.271511
4812.000000	3.276517
4810.000000	3.282744
4808.000000	3.289018
4806.000000	3.295655
4804.000000	3.301684
4802.000000	3.306385
4800.000000	3.311302
4798.000000	3.316970
4796.000000	3.322961
4794.000000	3.327590
4792.000000	3.332931
4790.000000	3.341301
4788.000000	3.349881
4786.000000	3.354869
4784.000000	3.358129
4782.000000	3.363483
4780.000000	3.371397
4778.000000	3.380296
4776.000000	3.387882
4774.000000	3.392965
4772.000000	3.398422
4770.000000	3.405384
4768.000000	3.411365
4766.000000	3.416755
4764.000000	3.423297
4762.000000	3.430613
4760.000000	3.438042
4758.000000	3.444459
4756.000000	3.449991
4754.000000	3.455350
4752.000000	3.459587
4750.000000	3.462555
4748.000000	3.468307
4746.000000	3.477532
4744.000000	3.487099
4742.000000	3.494533
4740.000000	3.498906
4738.000000	3.503040
4736.000000	3.510026
4734.000000	3.516920
4732.000000	3.520722
4730.000000	3.524253
4728.000000	3.531220
4726.000000	3.539435
4724.000000	3.545423
4722.000000	3.550091
4720.000000	3.555714
4718.000000	3.561645
4716.000000	3.567838
4714.000000	3.575464
4712.000000	3.583360
4710.000000	3.589253
4708.000000	3.593264
4706.000000	3.597212
4704.000000	3.603329
4702.000000	3.609633
4700.000000	3.614163
4698.000000	3.619434
4696.000000	3.627718
4694.000000	3.636200
4692.000000	3.643854
4690.000000	3.649614
4688.000000	3.652294
4686.000000	3.655758
4684.000000	3.663771
4682.000000	3.671499
4680.000000	3.676041
4678.000000	3.679983
4676.000000	3.686501
4674.000000	3.693320
4672.000000	3.697967
4670.000000	3.700997
4668.000000	3.705573
4666.000000	3.712780
4664.000000	3.721930
4662.000000	3.729898
4660.000000	3.734670
4658.000000	3.738090
4656.000000	3.742618
4654.000000	3.749140
4652.000000	3.757109
4650.000000	3.763327
4648.000000	3.767568
4646.000000	3.772312
4644.000000	3.778298
4642.000000	3.784460
4640.000000	3.790629
4638.000000	3.795938
4636.000000	3.800279
4634.000000	3.804861
4632.000000	3.811518
4630.000000	3.818375
4628.000000	3.822818
4626.000000	3.825838
4624.000000	3.830950
4622.000000	3.838415
4620.000000	3.846293
4618.000000	3.852840
4616.000000	3.859146
4614.000000	3.865016
4612.000000	3.870578
4610.000000	3.876634
4608.000000	3.883439
4606.000000	3.890128
4604.000000	3.896658
4602.000000	3.901889
4600.000000	3.905749
4598.000000	3.910014
4596.000000	3.915607
4594.000000	3.921076
4592.000000	3.925845
4590.000000	3.931091
4588.000000	3.937898
4586.000000	3.944954
4584.000000	3.951409
4582.000000	3.956805
4580.000000	3.961833
4578.000000	3.967504
4576.000000	3.973417
4574.000000	3.979868
4572.000000	3.986173
4570.000000	3.990516
4568.000000	3.993479
4566.000000	3.997825
4564.000000	4.003262
4562.000000	4.008659
4560.000000	4.014256
4558.000000	4.019862
4556.000000	4.025300
4554.000000	4.030576
4552.000000	4.035393
4550.000000	4.040212
4548.000000	4.045502
4546.000000	4.050784
4544.000000	4.056454
4542.000000	4.063351
4540.000000	4.069640
4538.000000	4.075024
4536.000000	4.081200
4534.000000	4.087716
4532.000000	4.092351
4530.000000	4.095769
4528.000000	4.100705
4526.000000	4.106704
4524.000000	4.112334
4522.000000	4.117824
4520.000000	4.123962
4518.000000	4.130717
4516.000000	4.136211
4514.000000	4.139968
4512.000000	4.144063
4510.000000	4.150316
4508.000000	4.157583
4506.000000	4.163740
4504.000000	4.168480
4502.000000	4.173940
4500.000000	4.178379
4498.000000	4.181061
4496.000000	4.186425
4494.000000	4.194050
4492.000000	4.200868
4490.000000	4.207158
4488.000000	4.213120
4486.000000	4.218289
4484.000000	4.222675
4482.000000	4.225984
4480.000000	4.230454
4478.000000	4.237165
4476.000000	4.242949
4474.000000	4.247128
4472.000000	4.252288
4470.000000	4.258457
4468.000000	4.264696
4466.000000	4.270580
4464.000000	4.275977
4462.000000	4.281637
4460.000000	4.287919
4458.000000	4.292652
4456.000000	4.295242
4454.000000	4.297581
4452.000000	4.301297
4450.000000	4.306017
4448.000000	4.312222
4446.000000	4.319435
4444.000000	4.325775
4442.000000	4.331195
4440.000000	4.336539
4438.000000	4.341826
4436.000000	4.346854
4434.000000	4.350970
4432.000000	4.354551
4430.000000	4.358693
4428.000000	4.362215
4426.000000	4.366036
4424.000000	4.372115
4422.000000	4.379130
4420.000000	4.384712
4418.000000	4.389019
4416.000000	4.393221
4414.000000	4.397871
4412.000000	4.401906
4410.000000	4.404605
4408.000000	4.408776
4406.000000	4.415987
4404.000000	4.422726
4402.000000	4.428091
4400.000000	4.434425
4398.000000	4.439880
4396.000000	4.441932
4394.000000	4.444544
4392.000000	4.448740
4390.000000	4.451950
4388.000000	4.456437
4386.000000	4.464885
4384.000000	4.472344
4382.000000	4.475697
4380.000000	4.478427
4378.000000	4.482965
4376.000000	4.487190
4374.000000	4.489037
4372.000000	4.491045
4370.000000	4.495235
4368.000000	4.500076
4366.000000	4.504528
4364.000000	4.509552
4362.000000	4.514726
4360.000000	4.520711
4358.000000	4.527341
4356.000000	4.532414
4354.000000	4.535063
4352.000000	4.536452
4350.000000	4.538375
4348.000000	4.541872
4346.000000	4.545742
4344.000000	4.549623
4342.000000	4.554714
4340.000000	4.560854
4338.000000	4.566845
4336.000000	4.571180
4334.000000	4.573568
4332.000000	4.575333
4330.000000	4.577737
4328.000000	4.582458
4326.000000	4.589356
4324.000000	4.595180
4322.000000	4.597656
4320.000000	4.599247
4318.000000	4.602319
4316.000000	4.606336
4314.000000	4.610774
4312.000000	4.614806
4310.000000	4.618681
4308.000000	4.623916
4306.000000	4.629572
4304.000000	4.634169
4302.000000	4.639542
4300.000000	4.643525
4298.000000	4.644949
4296.000000	4.648233
4294.000000	4.653638
4292.000000	4.658223
4290.000000	4.662429
4288.000000	4.665905
4286.000000	4.669629
4284.000000	4.674358
4282.000000	4.677405
4280.000000	4.679959
4278.000000	4.684921
4276.000000	4.690595
4274.000000	4.692903
4272.000000	4.693036
4270.000000	4.696041
4268.000000	4.700279
4266.000000	4.703120
4264.000000	4.707535
4262.000000	4.712547
4260.000000	4.715949
4258.000000	4.719637
4256.000000	4.723809
4254.000000	4.727276
4252.000000	4.730444
4250.000000	4.734811
4248.000000	4.740708
4246.000000	4.746188
4244.000000	4.750491
4242.000000	4.754611
4240.000000	4.758141
4238.000000	4.761364
4236.000000	4.765775
4234.000000	4.770136
4232.000000	4.772623
4230.000000	4.777098
4228.000000	4.783766
4226.000000	4.788313
4224.000000	4.791478
4222.000000	4.796056
4220.000000	4.801252
4218.000000	4.806081
4216.000000	4.810479
4214.000000	4.814543
4212.000000	4.818627
4210.000000	4.823028
4208.000000	4.827473
4206.000000	4.832856
4204.000000	4.839769
4202.000000	4.844624
4200.000000	4.846782
4198.000000	4.851355
4196.000000	4.858243
4194.000000	4.863201
4192.000000	4.866847
4190.000000	4.870105
4188.000000	4.872742
4186.000000	4.876018
4184.000000	4.880375
4182.000000	4.886374
4180.000000	4.893209
4178.000000	4.898827
4176.000000	4.904644
4174.000000	4.912388
4172.000000	4.918223
4170.000000	4.920244
4168.000000	4.921780
4166.000000	4.925667
4164.000000	4.931243
4162.000000	4.935009
4160.000000	4.937056
4158.000000	4.941774
4156.000000	4.948950
4154.000000	4.954189
4152.000000	4.957666
4150.000000	4.962058
4148.000000	4.966270
4146.000000	4.970908
4144.000000	4.977392
4142.000000	4.982708
4140.000000	4.987099
4138.000000	4.991337
4136.000000	4.995262
4134.000000	4.999886
4132.000000	5.004031
4130.000000	5.007857
4128.000000	5.013189
4126.000000	5.018276
4124.000000	5.024682
4122.000000	5.032615
4120.000000	5.037132
4118.000000	5.039082
4116.000000	5.042277
4114.000000	5.046762
4112.000000	5.051963
4110.000000	5.056304
4108.000000	5.060598
4106.000000	5.066821
4104.000000	5.072656
4102.000000	5.077057
4100.000000	5.081503
4098.000000	5.085545
4096.000000	5.090564
4094.000000	5.097636
4092.000000	5.103097
4090.000000	5.106783
4088.000000	5.111720
4086.000000	5.117256
4084.000000	5.120594
4082.000000	5.122686
4080.000000	5.127591
4078.000000	5.134644
4076.000000	5.140175
4074.000000	5.145578
4072.000000	5.152019
4070.000000	5.156315
4068.000000	5.159024
4066.000000	5.162210
4064.000000	5.165478
4062.000000	5.170444
4060.000000	5.175848
4058.000000	5.179878
4056.000000	5.185701
4054.000000	5.191792
4052.000000	5.195190
4050.000000	5.198446
4048.000000	5.202342
4046.000000	5.205409
4044.000000	5.208926
4042.000000	5.215216
4040.000000	5.221884
4038.000000	5.226061
4036.000000	5.229793
4034.000000	5.233379
4032.000000	5.236560
4030.000000	5.240536
4028.000000	5.244750
4026.000000	5.249895
4024.000000	5.257001
4022.000000	5.264628
4020.000000	5.271833
4018.000000	5.279056
4016.000000	5.285097
4014.000000	5.288806
4012.000000	5.291782
4010.000000	5.295721
4008.000000	5.300173
4006.000000	5.304072
4004.000000	5.308436
4002.000000	5.314218
4000.000000	5.320724
3998.000000	5.326700
3996.000000	5.331347
3994.000000	5.335215
3992.000000	5.339972
3990.000000	5.346144
3988.000000	5.352547
3986.000000	5.358560
3984.000000	5.364912
3982.000000	5.371920
3980.000000	5.377900
3978.000000	5.382899
3976.000000	5.389057
3974.000000	5.395016
3972.000000	5.400361
3970.000000	5.407840
3968.000000	5.415731
3966.000000	5.421854
3964.000000	5.427684
3962.000000	5.434083
3960.000000	5.441105
3958.000000	5.447444
3956.000000	5.452277
3954.000000	5.457736
3952.000000	5.463883
3950.000000	5.470428
3948.000000	5.477721
3946.000000	5.484160
3944.000000	5.491212
3942.000000	5.501712
3940.000000	5.513121
3938.000000	5.522875
3936.000000	5.529366
3934.000000	5.532892
3932.000000	5.539553
3930.000000	5.550353
3928.000000	5.557251
3926.000000	5.561740
3924.000000	5.570602
3922.000000	5.579577
3920.000000	5.584932
3918.000000	5.592443
3916.000000	5.606199
3914.000000	5.621317
3912.000000	5.632078
3910.000000	5.638818
3908.000000	5.638375
3906.000000	5.628532
3904.000000	5.621794
3902.000000	5.630006
3900.000000	5.651273
3898.000000	5.676715
3896.000000	5.692502
3894.000000	5.693189
3892.000000	5.696511
3890.000000	5.707080
3888.000000	5.707949
3886.000000	5.709977
3884.000000	5.723118
3882.000000	5.735275
3880.000000	5.749854
3878.000000	5.764863
3876.000000	5.770660
3874.000000	5.766081
3872.000000	5.754629
3870.000000	5.759835
3868.000000	5.781036
3866.000000	5.793475
3864.000000	5.803974
3862.000000	5.820543
3860.000000	5.832092
3858.000000	5.810258
3856.000000	5.751015
3854.000000	5.729557
3852.000000	5.784165
3850.000000	5.850816
3848.000000	5.882107
3846.000000	5.885788
3844.000000	5.881279
3842.000000	5.870873
3840.000000	5.850452
3838.000000	5.849695
3836.000000	5.879773
3834.000000	5.909165
3832.000000	5.928340
3830.000000	5.942668
3828.000000	5.951025
3826.000000	5.952816
3824.000000	5.938901
3822.000000	5.927491
3820.000000	5.932421
3818.000000	5.932035
3816.000000	5.946107
3814.000000	5.984367
3812.000000	6.006178
3810.000000	5.998011
3808.000000	5.987570
3806.000000	5.990648
3804.000000	5.980872
3802.000000	5.974840
3800.000000	5.999919
3798.000000	6.026449
3796.000000	6.044432
3794.000000	6.060380
3792.000000	6.070188
3790.000000	6.074524
3788.000000	6.074559
3786.000000	6.076515
3784.000000	6.079909
3782.000000	6.078044
3780.000000	6.079115
3778.000000	6.088870
3776.000000	6.098758
3774.000000	6.101277
3772.000000	6.093922
3770.000000	6.090759
3768.000000	6.098456
3766.000000	6.109449
3764.000000	6.117639
3762.000000	6.116085
3760.000000	6.113127
3758.000000	6.117435
3756.000000	6.106178
3754.000000	6.064271
3752.000000	6.031488
3750.000000	6.043390
3748.000000	6.054203
3746.000000	6.037973
3744.000000	6.060440
3742.000000	6.115514
3740.000000	6.134110
3738.000000	6.117411
3736.000000	6.106445
3734.000000	6.114950
3732.000000	6.137387
3730.000000	6.159488
3728.000000	6.165376
3726.000000	6.165358
3724.000000	6.167168
3722.000000	6.170941
3720.000000	6.177432
3718.000000	6.182058
3716.000000	6.171815
3714.000000	6.145901
3712.000000	6.133780
3710.000000	6.148113
3708.000000	6.167175
3706.000000	6.170531
3704.000000	6.157781
3702.000000	6.148827
3700.000000	6.150231
3698.000000	6.146472
3696.000000	6.133728
3694.000000	6.111870
3692.000000	6.073260
3690.000000	6.038100
3688.000000	6.042668
3686.000000	6.066873
3684.000000	6.069253
3682.000000	6.048285
3680.000000	6.009534
3678.000000	5.951501
3676.000000	5.912586
3674.000000	5.902764
3672.000000	5.880611
3670.000000	5.868085
3668.000000	5.878739
3666.000000	5.880702
3664.000000	5.864814
3662.000000	5.840041
3660.000000	5.806524
3658.000000	5.767418
3656.000000	5.742745
3654.000000	5.717370
3652.000000	5.667635
3650.000000	5.626687
3648.000000	5.623831
3646.000000	5.634725
3644.000000	5.631343
3642.000000	5.617615
3640.000000	5.599205
3638.000000	5.577684
3636.000000	5.555865
3634.000000	5.528885
3632.000000	5.484477
3630.000000	5.445486
3628.000000	5.446455
3626.000000	5.460242
3624.000000	5.452659
3622.000000	5.425729
3620.000000	5.403353
3618.000000	5.397332
3616.000000	5.389767
3614.000000	5.375846
3612.000000	5.360781
3610.000000	5.346269
3608.000000	5.341438
3606.000000	5.342809
3604.000000	5.337958
3602.000000	5.328020
3600.000000	5.317643
3598.000000	5.305696
3596.000000	5.293939
3594.000000	5.286654
3592.000000	5.277085
3590.000000	5.259011
3588.000000	5.248888
3586.000000	5.253891
3584.000000	5.258276
3582.000000	5.254649
3580.000000	5.248208
3578.000000	5.241677
3576.000000	5.235091
3574.000000	5.230364
3572.000000	5.222636
3570.000000	5.206466
3568.000000	5.193851
3566.000000	5.196251
3564.000000	5.202518
3562.000000	5.202567
3560.000000	5.201924
3558.000000	5.201099
3556.000000	5.195878
3554.000000	5.188935
3552.000000	5.184591
3550.000000	5.180234
3548.000000	5.172364
3546.000000	5.167593
3544.000000	5.166818
3542.000000	5.165433
3540.000000	5.164572
3538.000000	5.161576
3536.000000	5.156276
3534.000000	5.152556
3532.000000	5.148244
3530.000000	5.141283
3528.000000	5.135430
3526.000000	5.130887
3524.000000	5.126193
3522.000000	5.122619
3520.000000	5.118249
3518.000000	5.113838
3516.000000	5.108935
3514.000000	5.103638
3512.000000	5.098881
3510.000000	5.093812
3508.000000	5.088043
3506.000000	5.080869
3504.000000	5.074903
3502.000000	5.070746
3500.000000	5.065191
3498.000000	5.059385
3496.000000	5.052609
3494.000000	5.045019
3492.000000	5.039872
3490.000000	5.035438
3488.000000	5.029417
3486.000000	5.022864
3484.000000	5.017325
3482.000000	5.014034
3480.000000	5.011735
3478.000000	5.008940
3476.000000	5.005915
3474.000000	5.002961
3472.000000	4.998667
3470.000000	4.996054
3468.000000	4.995627
3466.000000	4.993413
3464.000000	4.992031
3462.000000	4.992997
3460.000000	4.994310
3458.000000	4.994768
3456.000000	4.994489
3454.000000	4.993853
3452.000000	4.991931
3450.000000	4.988890
3448.000000	4.988009
3446.000000	4.988272
3444.000000	4.987853
3442.000000	4.989110
3440.000000	4.989575
3438.000000	4.990845
3436.000000	4.995257
3434.000000	5.000988
3432.000000	5.008621
3430.000000	5.016992
3428.000000	5.024482
3426.000000	5.031284
3424.000000	5.036266
3422.000000	5.040521
3420.000000	5.046067
3418.000000	5.050506
3416.000000	5.053043
3414.000000	5.054808
3412.000000	5.056769
3410.000000	5.061214
3408.000000	5.066077
3406.000000	5.066405
3404.000000	5.066857
3402.000000	5.070534
3400.000000	5.072835
3398.000000	5.075096
3396.000000	5.079398
3394.000000	5.082450
3392.000000	5.085426
3390.000000	5.089532
3388.000000	5.093131
3386.000000	5.095314
3384.000000	5.098433
3382.000000	5.102939
3380.000000	5.105661
3378.000000	5.108232
3376.000000	5.110684
3374.000000	5.112095
3372.000000	5.113672
3370.000000	5.115297
3368.000000	5.115363
3366.000000	5.116044
3364.000000	5.118684
3362.000000	5.120387
3360.000000	5.121889
3358.000000	5.123999
3356.000000	5.124805
3354.000000	5.125862
3352.000000	5.129054
3350.000000	5.132462
3348.000000	5.136244
3346.000000	5.140291
3344.000000	5.141384
3342.000000	5.141894
3340.000000	5.142706
3338.000000	5.142734
3336.000000	5.144472
3334.000000	5.146805
3332.000000	5.148849
3330.000000	5.151166
3328.000000	5.153300
3326.000000	5.154982
3324.000000	5.157509
3322.000000	5.159742
3320.000000	5.159558
3318.000000	5.159980
3316.000000	5.161577
3314.000000	5.163201
3312.000000	5.163899
3310.000000	5.163454
3308.000000	5.163166
3306.000000	5.163350
3304.000000	5.164123
3302.000000	5.166092
3300.000000	5.170026
3298.000000	5.173044
3296.000000	5.173504
3294.000000	5.174283
3292.000000	5.173971
3290.000000	5.173988
3288.000000	5.177368
3286.000000	5.180836
3284.000000	5.181048
3282.000000	5.180585
3280.000000	5.182728
3278.000000	5.185177
3276.000000	5.186052
3274.000000	5.188488
3272.000000	5.191055
3270.000000	5.192407
3268.000000	5.196289
3266.000000	5.198517
3264.000000	5.197811
3262.000000	5.197782
3260.000000	5.198837
3258.000000	5.200394
3256.000000	5.202516
3254.000000	5.204525
3252.000000	5.206608
3250.000000	5.209848
3248.000000	5.212738
3246.000000	5.215302
3244.000000	5.218482
3242.000000	5.222516
3240.000000	5.225600
3238.000000	5.227148
3236.000000	5.228862
3234.000000	5.231429
3232.000000	5.232472
3230.000000	5.233135
3228.000000	5.236736
3226.000000	5.241243
3224.000000	5.242895
3222.000000	5.244132
3220.000000	5.246377
3218.000000	5.248092
3216.000000	5.251366
3214.000000	5.256117
3212.000000	5.258856
3210.000000	5.262296
3208.000000	5.264969
3206.000000	5.266322
3204.000000	5.270164
3202.000000	5.274415
3200.000000	5.277409
3198.000000	5.282046
3196.000000	5.287412
3194.000000	5.291285
3192.000000	5.295609
3190.000000	5.299701
3188.000000	5.303306
3186.000000	5.307401
3184.000000	5.313254
3182.000000	5.318949
3180.000000	5.320223
3178.000000	5.321385
3176.000000	5.326464
3174.000000	5.331866
3172.000000	5.336493
3170.000000	5.341187
3168.000000	5.346267
3166.000000	5.351281
3164.000000	5.357842
3162.000000	5.364368
3160.000000	5.368078
3158.000000	5.371019
3156.000000	5.375920
3154.000000	5.380608
3152.000000	5.384460
3150.000000	5.388859
3148.000000	5.393701
3146.000000	5.397880
3144.000000	5.402690
3142.000000	5.406892
3140.000000	5.410286
3138.000000	5.414485
3136.000000	5.419097
3134.000000	5.423186
3132.000000	5.427655
3130.000000	5.432622
3128.000000	5.435105
3126.000000	5.437253
3124.000000	5.440528
3122.000000	5.443353
3120.000000	5.447221
3118.000000	5.451454
3116.000000	5.454772
3114.000000	5.458838
3112.000000	5.463338
3110.000000	5.465251
3108.000000	5.465963
3106.000000	5.469272
3104.000000	5.473193
3102.000000	5.475438
3100.000000	5.477148
3098.000000	5.480420
3096.000000	5.487229
3094.000000	5.493796
3092.000000	5.496420
3090.000000	5.498008
3088.000000	5.500902
3086.000000	5.504732
3084.000000	5.508563
3082.000000	5.512835
3080.000000	5.516827
3078.000000	5.520246
3076.000000	5.521938
3074.000000	5.521555
3072.000000	5.521797
3070.000000	5.522470
3068.000000	5.522671
3066.000000	5.524465
3064.000000	5.528259
3062.000000	5.532607
3060.000000	5.536668
3058.000000	5.541464
3056.000000	5.546373
3054.000000	5.550512
3052.000000	5.556539
3050.000000	5.560943
3048.000000	5.563289
3046.000000	5.566686
3044.000000	5.569541
3042.000000	5.572434
3040.000000	5.575388
3038.000000	5.575526
3036.000000	5.576372
3034.000000	5.579941
3032.000000	5.581983
3030.000000	5.580601
3028.000000	5.576358
3026.000000	5.570331
3024.000000	5.563676
3022.000000	5.558782
3020.000000	5.558169
3018.000000	5.563841
3016.000000	5.576883
3014.000000	5.596428
3012.000000	5.617510
3010.000000	5.636718
3008.000000	5.652872
3006.000000	5.665318
3004.000000	5.673961
3002.000000	5.680233
3000.000000	5.685634
2998.000000	5.692121
2996.000000	5.698618
2994.000000	5.702843
2992.000000	5.705184
2990.000000	5.708298
2988.000000	5.710655
2986.000000	5.710027
2984.000000	5.707916
2982.000000	5.705601
2980.000000	5.700329
2978.000000	5.692578
2976.000000	5.683267
2974.000000	5.668201
2972.000000	5.645517
2970.000000	5.617174
2968.000000	5.585946
2966.000000	5.557569
2964.000000	5.540354
2962.000000	5.536640
2960.000000	5.545714
2958.000000	5.563003
2956.000000	5.580758
2954.000000	5.598201
2952.000000	5.614707
2950.000000	5.624459
2948.000000	5.627484
2946.000000	5.622786
2944.000000	5.606916
2942.000000	5.583712
2940.000000	5.558202
2938.000000	5.531425
2936.000000	5.504888
2934.000000	5.482696
2932.000000	5.461754
2930.000000	5.442158
2928.000000	5.428710
2926.000000	5.425080
2924.000000	5.437829
2922.000000	5.471732
2920.000000	5.522870
2918.000000	5.582908
2916.000000	5.641379
2914.000000	5.693202
2912.000000	5.738309
2910.000000	5.776185
2908.000000	5.807372
2906.000000	5.832818
2904.000000	5.855727
2902.000000	5.878873
2900.000000	5.900701
2898.000000	5.920005
2896.000000	5.938396
2894.000000	5.956787
2892.000000	5.973510
2890.000000	5.989784
2888.000000	6.005913
2886.000000	6.018831
2884.000000	6.027606
2882.000000	6.033961
2880.000000	6.037080
2878.000000	6.035183
2876.000000	6.030028
2874.000000	6.021652
2872.000000	6.008723
2870.000000	5.987583
2868.000000	5.958863
2866.000000	5.926529
2864.000000	5.897087
2862.000000	5.882436
2860.000000	5.886992
2858.000000	5.905131
2856.000000	5.928681
2854.000000	5.953389
2852.000000	5.982828
2850.000000	6.020941
2848.000000	6.065244
2846.000000	6.106651
2844.000000	6.141342
2842.000000	6.171765
2840.000000	6.197205
2838.000000	6.217251
2836.000000	6.233717
2834.000000	6.246914
2832.000000	6.259099
2830.000000	6.272258
2828.000000	6.283252
2826.000000	6.291361
2824.000000	6.300191
2822.000000	6.309552
2820.000000	6.317048
2818.000000	6.324520
2816.000000	6.332841
2814.000000	6.339375
2812.000000	6.345514
2810.000000	6.352570
2808.000000	6.357722
2806.000000	6.361134
2804.000000	6.364152
2802.000000	6.369133
2800.000000	6.376072
2798.000000	6.380954
2796.000000	6.385353
2794.000000	6.390869
2792.000000	6.398028
2790.000000	6.405234
2788.000000	6.410301
2786.000000	6.415450
2784.000000	6.423537
2782.000000	6.431998
2780.000000	6.438085
2778.000000	6.443735
2776.000000	6.449290
2774.000000	6.452619
2772.000000	6.455785
2770.000000	6.458994
2768.000000	6.462977
2766.000000	6.470507
2764.000000	6.475691
2762.000000	6.476672
2760.000000	6.480990
2758.000000	6.487039
2756.000000	6.490500
2754.000000	6.493778
2752.000000	6.498278
2750.000000	6.502162
2748.000000	6.506517
2746.000000	6.509830
2744.000000	6.510877
2742.000000	6.512492
2740.000000	6.514785
2738.000000	6.518601
2736.000000	6.522329
2734.000000	6.524816
2732.000000	6.527127
2730.000000	6.528856
2728.000000	6.531906
2726.000000	6.537663
2724.000000	6.540438
2722.000000	6.539184
2720.000000	6.539746
2718.000000	6.542669
2716.000000	6.544426
2714.000000	6.545314
2712.000000	6.545682
2710.000000	6.545706
2708.000000	6.548939
2706.000000	6.552100
2704.000000	6.553162
2702.000000	6.554602
2700.000000	6.556640
2698.000000	6.558976
2696.000000	6.559961
2694.000000	6.561004
2692.000000	6.562847
2690.000000	6.563655
2688.000000	6.566089
2686.000000	6.569670
2684.000000	6.570676
2682.000000	6.570498
2680.000000	6.571594
2678.000000	6.571494
2676.000000	6.572041
2674.000000	6.572757
2672.000000	6.572793
2670.000000	6.572527
2668.000000	6.573112
2666.000000	6.573343
2664.000000	6.572551
2662.000000	6.571729
2660.000000	6.572189
2658.000000	6.574520
2656.000000	6.575475
2654.000000	6.575448
2652.000000	6.574823
2650.000000	6.573596
2648.000000	6.573882
2646.000000	6.574244
2644.000000	6.573676
2642.000000	6.574024
2640.000000	6.575153
2638.000000	6.574531
2636.000000	6.572414
2634.000000	6.571846
2632.000000	6.571024
2630.000000	6.570086
2628.000000	6.570777
2626.000000	6.570323
2624.000000	6.568938
2622.000000	6.568625
2620.000000	6.567287
2618.000000	6.563713
2616.000000	6.560799
2614.000000	6.559152
2612.000000	6.558119
2610.000000	6.557498
2608.000000	6.555288
2606.000000	6.551590
2604.000000	6.548814
2602.000000	6.545815
2600.000000	6.542501
2598.000000	6.539566
2596.000000	6.537950
2594.000000	6.537193
2592.000000	6.536266
2590.000000	6.534316
2588.000000	6.530955
2586.000000	6.528086
2584.000000	6.527916
2582.000000	6.529815
2580.000000	6.530874
2578.000000	6.530609
2576.000000	6.530479
2574.000000	6.530616
2572.000000	6.530244
2570.000000	6.528696
2568.000000	6.524905
2566.000000	6.521109
2564.000000	6.519761
2562.000000	6.518464
2560.000000	6.515516
2558.000000	6.511653
2556.000000	6.508254
2554.000000	6.504752
2552.000000	6.501664
2550.000000	6.497484
2548.000000	6.494151
2546.000000	6.494130
2544.000000	6.494182
2542.000000	6.490014
2540.000000	6.483993
2538.000000	6.480007
2536.000000	6.476627
2534.000000	6.473372
2532.000000	6.471390
2530.000000	6.468806
2528.000000	6.464318
2526.000000	6.460202
2524.000000	6.456398
2522.000000	6.452084
2520.000000	6.449096
2518.000000	6.446529
2516.000000	6.443526
2514.000000	6.438964
2512.000000	6.433642
2510.000000	6.429779
2508.000000	6.424113
2506.000000	6.418536
2504.000000	6.416346
2502.000000	6.414679
2500.000000	6.411141
2498.000000	6.406497
2496.000000	6.402223
2494.000000	6.399946
2492.000000	6.398150
2490.000000	6.395894
2488.000000	6.393493
2486.000000	6.390791
2484.000000	6.390549
2482.000000	6.389467
2480.000000	6.386091
2478.000000	6.384627
2476.000000	6.383491
2474.000000	6.381654
2472.000000	6.380904
2470.000000	6.378080
2468.000000	6.374587
2466.000000	6.372239
2464.000000	6.370075
2462.000000	6.368440
2460.000000	6.369534
2458.000000	6.368550
2456.000000	6.364309
2454.000000	6.361604
2452.000000	6.361651
2450.000000	6.360868
2448.000000	6.358632
2446.000000	6.358252
2444.000000	6.359803
2442.000000	6.363106
2440.000000	6.367195
2438.000000	6.367128
2436.000000	6.366533
2434.000000	6.367229
2432.000000	6.365855
2430.000000	6.365184
2428.000000	6.367135
2426.000000	6.369538
2424.000000	6.373125
2422.000000	6.378050
2420.000000	6.382206
2418.000000	6.385807
2416.000000	6.387526
2414.000000	6.388841
2412.000000	6.392124
2410.000000	6.395018
2408.000000	6.397475
2406.000000	6.399676
2404.000000	6.402917
2402.000000	6.407266
2400.000000	6.412380
2398.000000	6.413868
2396.000000	6.414951
2394.000000	6.417540
2392.000000	6.419030
2390.000000	6.420695
2388.000000	6.421663
2386.000000	6.419276
2384.000000	6.416742
2382.000000	6.416697
2380.000000	6.413552
2378.000000	6.406165
2376.000000	6.395586
2374.000000	6.380309
2372.000000	6.362781
2370.000000	6.344444
2368.000000	6.327407
2366.000000	6.314105
2364.000000	6.306140
2362.000000	6.302670
2360.000000	6.306050
2358.000000	6.316778
2356.000000	6.331079
2354.000000	6.348489
2352.000000	6.369316
2350.000000	6.383082
2348.000000	6.375924
2346.000000	6.351777
2344.000000	6.323523
2342.000000	6.298165
2340.000000	6.282787
2338.000000	6.285128
2336.000000	6.298793
2334.000000	6.309018
2332.000000	6.313834
2330.000000	6.317294
2328.000000	6.323746
2326.000000	6.330433
2324.000000	6.335470
2322.000000	6.340377
2320.000000	6.346490
2318.000000	6.352486
2316.000000	6.357288
2314.000000	6.360719
2312.000000	6.361818
2310.000000	6.362461
2308.000000	6.363840
2306.000000	6.365498
2304.000000	6.365824
2302.000000	6.365343
2300.000000	6.365469
2298.000000	6.365341
2296.000000	6.364022
2294.000000	6.361087
2292.000000	6.358705
2290.000000	6.357381
2288.000000	6.356669
2286.000000	6.355805
2284.000000	6.353249
2282.000000	6.350443
2280.000000	6.349296
2278.000000	6.348051
2276.000000	6.346623
2274.000000	6.345399
2272.000000	6.341585
2270.000000	6.338705
2268.000000	6.338492
2266.000000	6.337086
2264.000000	6.334446
2262.000000	6.331474
2260.000000	6.331235
2258.000000	6.331934
2256.000000	6.329231
2254.000000	6.327180
2252.000000	6.326461
2250.000000	6.322950
2248.000000	6.321003
2246.000000	6.319928
2244.000000	6.318675
2242.000000	6.318553
2240.000000	6.317437
2238.000000	6.316955
2236.000000	6.317661
2234.000000	6.316912
2232.000000	6.315312
2230.000000	6.315196
2228.000000	6.315242
2226.000000	6.315359
2224.000000	6.316138
2222.000000	6.314967
2220.000000	6.314988
2218.000000	6.313509
2216.000000	6.311521
2214.000000	6.313210
2212.000000	6.315156
2210.000000	6.315423
2208.000000	6.315463
2206.000000	6.314463
2204.000000	6.314583
2202.000000	6.315725
2200.000000	6.315671
2198.000000	6.315460
2196.000000	6.315724
2194.000000	6.317277
2192.000000	6.319503
2190.000000	6.318947
2188.000000	6.317860
2186.000000	6.316556
2184.000000	6.317170
2182.000000	6.320128
2180.000000	6.321443
2178.000000	6.321269
2176.000000	6.321781
2174.000000	6.322281
2172.000000	6.321264
2170.000000	6.321102
2168.000000	6.322733
2166.000000	6.323625
2164.000000	6.325734
2162.000000	6.327653
2160.000000	6.329418
2158.000000	6.333382
2156.000000	6.335766
2154.000000	6.334068
2152.000000	6.335385
2150.000000	6.338039
2148.000000	6.340548
2146.000000	6.343341
2144.000000	6.346185
2142.000000	6.348163
2140.000000	6.350133
2138.000000	6.352163
2136.000000	6.354009
2134.000000	6.356776
2132.000000	6.359750
2130.000000	6.361523
2128.000000	6.363354
2126.000000	6.367933
2124.000000	6.371914
2122.000000	6.373999
2120.000000	6.376847
2118.000000	6.379072
2116.000000	6.383269
2114.000000	6.388330
2112.000000	6.392397
2110.000000	6.396376
2108.000000	6.401501
2106.000000	6.406569
2104.000000	6.411322
2102.000000	6.414763
2100.000000	6.418910
2098.000000	6.424056
2096.000000	6.429073
2094.000000	6.433518
2092.000000	6.436412
2090.000000	6.440829
2088.000000	6.449097
2086.000000	6.456157
2084.000000	6.460943
2082.000000	6.467313
2080.000000	6.474459
2078.000000	6.479761
2076.000000	6.484639
2074.000000	6.488324
2072.000000	6.495665
2070.000000	6.503967
2068.000000	6.509711
2066.000000	6.516116
2064.000000	6.523261
2062.000000	6.528937
2060.000000	6.535365
2058.000000	6.539885
2056.000000	6.544290
2054.000000	6.551368
2052.000000	6.558107
2050.000000	6.564164
2048.000000	6.569765
2046.000000	6.574022
2044.000000	6.578527
2042.000000	6.585568
2040.000000	6.592169
2038.000000	6.598168
2036.000000	6.604402
2034.000000	6.609965
2032.000000	6.612424
2030.000000	6.613261
2028.000000	6.617814
2026.000000	6.625743
2024.000000	6.633720
2022.000000	6.638363
2020.000000	6.640642
2018.000000	6.644976
2016.000000	6.652304
2014.000000	6.657914
2012.000000	6.663986
2010.000000	6.669343
2008.000000	6.673566
2006.000000	6.677771
2004.000000	6.681452
2002.000000	6.685932
2000.000000	6.690166
1998.000000	6.692053
1996.000000	6.694971
1994.000000	6.698375
1992.000000	6.699983
1990.000000	6.703629
1988.000000	6.706115
1986.000000	6.706625
1984.000000	6.709204
1982.000000	6.712406
1980.000000	6.713892
1978.000000	6.715979
1976.000000	6.719359
1974.000000	6.719833
1972.000000	6.719227
1970.000000	6.715925
1968.000000	6.710544
1966.000000	6.710547
1964.000000	6.713290
1962.000000	6.711431
1960.000000	6.706154
1958.000000	6.708633
1956.000000	6.714914
1954.000000	6.715802
1952.000000	6.714088
1950.000000	6.711547
1948.000000	6.709785
1946.000000	6.706731
1944.000000	6.701846
1942.000000	6.702337
1940.000000	6.707889
1938.000000	6.708592
1936.000000	6.708287
1934.000000	6.707512
1932.000000	6.705145
1930.000000	6.702227
1928.000000	6.700096
1926.000000	6.695699
1924.000000	6.688753
1922.000000	6.684831
1920.000000	6.677637
1918.000000	6.670755
1916.000000	6.675387
1914.000000	6.677157
1912.000000	6.674019
1910.000000	6.667651
1908.000000	6.663411
1906.000000	6.658912
1904.000000	6.654904
1902.000000	6.652283
1900.000000	6.649291
1898.000000	6.644249
1896.000000	6.638923
1894.000000	6.635351
1892.000000	6.628293
1890.000000	6.619410
1888.000000	6.620587
1886.000000	6.622693
1884.000000	6.621804
1882.000000	6.619372
1880.000000	6.616441
1878.000000	6.611822
1876.000000	6.606398
1874.000000	6.601320
1872.000000	6.591617
1870.000000	6.573966
1868.000000	6.572645
1866.000000	6.581376
1864.000000	6.583714
1862.000000	6.581194
1860.000000	6.577930
1858.000000	6.571670
1856.000000	6.569047
1854.000000	6.567935
1852.000000	6.562909
1850.000000	6.553705
1848.000000	6.542125
1846.000000	6.513097
1844.000000	6.500377
1842.000000	6.519911
1840.000000	6.525177
1838.000000	6.516709
1836.000000	6.510069
1834.000000	6.499005
1832.000000	6.475977
1830.000000	6.459057
1828.000000	6.459435
1826.000000	6.454778
1824.000000	6.454842
1822.000000	6.454641
1820.000000	6.446379
1818.000000	6.435833
1816.000000	6.426032
1814.000000	6.412326
1812.000000	6.396470
1810.000000	6.387002
1808.000000	6.382490
1806.000000	6.372902
1804.000000	6.357743
1802.000000	6.337253
1800.000000	6.323595
1798.000000	6.317824
1796.000000	6.301467
1794.000000	6.264619
1792.000000	6.249055
1790.000000	6.263390
1788.000000	6.263348
1786.000000	6.243351
1784.000000	6.228958
1782.000000	6.216471
1780.000000	6.203976
1778.000000	6.192809
1776.000000	6.167488
1774.000000	6.118727
1772.000000	6.098472
1770.000000	6.111982
1768.000000	6.114775
1766.000000	6.113851
1764.000000	6.093205
1762.000000	6.070565
1760.000000	6.066349
1758.000000	6.053534
1756.000000	6.039689
1754.000000	6.015799
1752.000000	5.971843
1750.000000	5.957015
1748.000000	5.960325
1746.000000	5.954282
1744.000000	5.936619
1742.000000	5.911418
1740.000000	5.891566
1738.000000	5.882375
1736.000000	5.824121
1734.000000	5.783511
1732.000000	5.825680
1730.000000	5.854508
1728.000000	5.858320
1726.000000	5.854189
1724.000000	5.846079
1722.000000	5.830971
1720.000000	5.779946
1718.000000	5.723825
1716.000000	5.740021
1714.000000	5.777182
1712.000000	5.792676
1710.000000	5.783627
1708.000000	5.761462
1706.000000	5.739143
1704.000000	5.725439
1702.000000	5.662393
1700.000000	5.630422
1698.000000	5.643793
1696.000000	5.642036
1694.000000	5.696644
1692.000000	5.731617
1690.000000	5.722844
1688.000000	5.691223
1686.000000	5.613229
1684.000000	5.598009
1682.000000	5.663330
1680.000000	5.692153
1678.000000	5.678505
1676.000000	5.647706
1674.000000	5.651631
1672.000000	5.646579
1670.000000	5.624967
1668.000000	5.640588
1666.000000	5.654378
1664.000000	5.634958
1662.000000	5.628900
1660.000000	5.638265
1658.000000	5.628006
1656.000000	5.556625
1654.000000	5.448614
1652.000000	5.476310
1650.000000	5.555017
1648.000000	5.536803
1646.000000	5.525521
1644.000000	5.558936
1642.000000	5.572908
1640.000000	5.559023
1638.000000	5.512555
1636.000000	5.467820
1634.000000	5.494344
1632.000000	5.523033
1630.000000	5.509166
1628.000000	5.486178
1626.000000	5.462589
1624.000000	5.427583
1622.000000	5.408291
1620.000000	5.381721
1618.000000	5.321476
1616.000000	5.301967
1614.000000	5.312493
1612.000000	5.282436
1610.000000	5.244986
1608.000000	5.228787
1606.000000	5.234422
1604.000000	5.244900
1602.000000	5.258458
1600.000000	5.272795
1598.000000	5.284822
1596.000000	5.293919
1594.000000	5.302340
1592.000000	5.304760
1590.000000	5.303421
1588.000000	5.300008
1586.000000	5.293057
1584.000000	5.288392
1582.000000	5.287791
1580.000000	5.277425
1578.000000	5.229575
1576.000000	5.207094
1574.000000	5.250084
1572.000000	5.254095
1570.000000	5.230933
1568.000000	5.232588
1566.000000	5.231359
1564.000000	5.211415
1562.000000	5.139732
1560.000000	5.042313
1558.000000	5.059981
1556.000000	5.130753
1554.000000	5.168239
1552.000000	5.196533
1550.000000	5.211323
1548.000000	5.221159
1546.000000	5.212294
1544.000000	5.188601
1542.000000	5.148245
1540.000000	5.136016
1538.000000	5.209963
1536.000000	5.268179
1534.000000	5.269226
1532.000000	5.288735
1530.000000	5.303108
1528.000000	5.291274
1526.000000	5.276870
1524.000000	5.256526
1522.000000	5.220644
1520.000000	5.228469
1518.000000	5.244953
1516.000000	5.244180
1514.000000	5.240653
1512.000000	5.230334
1510.000000	5.195463
1508.000000	5.113919
1506.000000	5.082380
1504.000000	5.103907
1502.000000	5.045471
1500.000000	4.887606
1498.000000	4.687853
1496.000000	4.551237
1494.000000	4.544003
1492.000000	4.614294
1490.000000	4.721248
1488.000000	4.837490
1486.000000	4.931407
1484.000000	4.991905
1482.000000	5.019254
1480.000000	5.030012
1478.000000	5.021150
1476.000000	4.998710
1474.000000	4.965805
1472.000000	4.959344
1470.000000	4.975306
1468.000000	4.962682
1466.000000	4.926902
1464.000000	4.907334
1462.000000	4.890908
1460.000000	4.826441
1458.000000	4.722930
1456.000000	4.670194
1454.000000	4.655292
1452.000000	4.629296
1450.000000	4.639968
1448.000000	4.692431
1446.000000	4.750073
1444.000000	4.778921
1442.000000	4.786821
1440.000000	4.777932
1438.000000	4.751707
1436.000000	4.756714
1434.000000	4.787489
1432.000000	4.791355
1430.000000	4.786171
1428.000000	4.788149
1426.000000	4.789665
1424.000000	4.784880
1422.000000	4.769654
1420.000000	4.738342
1418.000000	4.737753
1416.000000	4.747832
1414.000000	4.741386
1412.000000	4.719556
1410.000000	4.686220
1408.000000	4.640978
1406.000000	4.593829
1404.000000	4.571098
1402.000000	4.577216
1400.000000	4.591722
1398.000000	4.617729
1396.000000	4.638424
1394.000000	4.657628
1392.000000	4.677963
1390.000000	4.675834
1388.000000	4.654616
1386.000000	4.642969
1384.000000	4.642335
1382.000000	4.650065
1380.000000	4.656599
1378.000000	4.653078
1376.000000	4.642522
1374.000000	4.636628
1372.000000	4.636974
1370.000000	4.631823
1368.000000	4.622328
1366.000000	4.612693
1364.000000	4.600158
1362.000000	4.590919
1360.000000	4.586985
1358.000000	4.581156
1356.000000	4.570130
1354.000000	4.557653
1352.000000	4.546106
1350.000000	4.533658
1348.000000	4.519266
1346.000000	4.504322
1344.000000	4.489843
1342.000000	4.474507
1340.000000	4.459454
1338.000000	4.452518
1336.000000	4.448787
1334.000000	4.442087
1332.000000	4.431958
1330.000000	4.420621
1328.000000	4.408622
1326.000000	4.395617
1324.000000	4.380536
1322.000000	4.362093
1320.000000	4.343218
1318.000000	4.326683
1316.000000	4.308047
1314.000000	4.290012
1312.000000	4.272520
1310.000000	4.254089
1308.000000	4.234254
1306.000000	4.214431
1304.000000	4.194804
1302.000000	4.175484
1300.000000	4.153604
1298.000000	4.133957
1296.000000	4.114586
1294.000000	4.093076
1292.000000	4.070048
1290.000000	4.046349
1288.000000	4.022152
1286.000000	3.997077
1284.000000	3.970384
1282.000000	3.945388
1280.000000	3.919395
1278.000000	3.889080
1276.000000	3.856094
1274.000000	3.818248
1272.000000	3.772939
1270.000000	3.717427
1268.000000	3.646034
1266.000000	3.559545
1264.000000	3.470595
1262.000000	3.403075
1260.000000	3.372822
1258.000000	3.378295
1256.000000	3.401590
1254.000000	3.422051
1252.000000	3.425374
1250.000000	3.411343
1248.000000	3.387598
1246.000000	3.360411
1244.000000	3.331765
1242.000000	3.302690
1240.000000	3.273059
1238.000000	3.243499
1236.000000	3.214583
1234.000000	3.187513
1232.000000	3.161021
1230.000000	3.132774
1228.000000	3.105565
1226.000000	3.080587
1224.000000	3.053882
1222.000000	3.024477
1220.000000	2.993050
1218.000000	2.962493
1216.000000	2.933015
1214.000000	2.903711
1212.000000	2.875066
1210.000000	2.849187
1208.000000	2.825400
1206.000000	2.802365
1204.000000	2.778035
1202.000000	2.753887
1200.000000	2.730888
1198.000000	2.708608
1196.000000	2.684670
1194.000000	2.659181
1192.000000	2.632951
1190.000000	2.606275
1188.000000	2.578474
1186.000000	2.549760
1184.000000	2.513437
1182.000000	2.469339
1180.000000	2.435549
1178.000000	2.421436
1176.000000	2.408354
1174.000000	2.385702
1172.000000	2.359775
1170.000000	2.333258
1168.000000	2.304646
1166.000000	2.276305
1164.000000	2.247380
1162.000000	2.217586
1160.000000	2.189585
1158.000000	2.164462
1156.000000	2.139214
1154.000000	2.114075
1152.000000	2.089157
1150.000000	2.064886
1148.000000	2.038695
1146.000000	2.008930
1144.000000	1.981837
1142.000000	1.960335
1140.000000	1.942467
1138.000000	1.924368
1136.000000	1.902416
1134.000000	1.878772
1132.000000	1.854459
1130.000000	1.829694
1128.000000	1.805497
1126.000000	1.782437
1124.000000	1.757511
1122.000000	1.728947
1120.000000	1.697924
1118.000000	1.669792
1116.000000	1.642796
1114.000000	1.615597
1112.000000	1.588626
1110.000000	1.559214
1108.000000	1.530473
1106.000000	1.505333
1104.000000	1.480869
1102.000000	1.456288
1100.000000	1.429953
1098.000000	1.404026
1096.000000	1.380025
1094.000000	1.358335
1092.000000	1.337320
1090.000000	1.317293
1088.000000	1.297013
1086.000000	1.277581
1084.000000	1.257255
1082.000000	1.234752
1080.000000	1.216024
1078.000000	1.198681
1076.000000	1.181289
1074.000000	1.168587
1072.000000	1.157066
1070.000000	1.145424
1068.000000	1.132370
1066.000000	1.117870
1064.000000	1.105532
1062.000000	1.093212
1060.000000	1.078203
1058.000000	1.061240
1056.000000	1.040432
1054.000000	1.010732
1052.000000	0.979324
1050.000000	0.962855
1048.000000	0.963956
1046.000000	0.969450
1044.000000	0.971981
1042.000000	0.968388
1040.000000	0.957719
1038.000000	0.944105
1036.000000	0.929276
1034.000000	0.915443
1032.000000	0.901753
1030.000000	0.885188
1028.000000	0.869207
1026.000000	0.854813
1024.000000	0.838788
1022.000000	0.821670
1020.000000	0.807377
1018.000000	0.795066
1016.000000	0.782472
1014.000000	0.771206
1012.000000	0.760872
1010.000000	0.750803
1008.000000	0.740608
1006.000000	0.728158
1004.000000	0.717234
1002.000000	0.708570
1000.000000	0.693184
