PE IR       SUBTECH     SPECTRUM    ASCII       PEDS        4.00        
   -1
TE110A_040_80K_AFTER_110K.ASC
20/05/14
13:07:18.00
20/05/14
13:07:18.00
Administrator
TE110A.Thursday, May 14 2020, 009.
1000.000000
#HDR
-1
-1
#GR
cm-1
A
1.0
0.0
6000.000000
-2.000000
2501
8
1.235142
1.182597
#DATA
6000.000000	1.215281
5998.000000	1.215106
5996.000000	1.215141
5994.000000	1.215026
5992.000000	1.214734
5990.000000	1.214883
5988.000000	1.215364
5986.000000	1.215418
5984.000000	1.215244
5982.000000	1.214986
5980.000000	1.215021
5978.000000	1.214870
5976.000000	1.214849
5974.000000	1.215166
5972.000000	1.215488
5970.000000	1.215572
5968.000000	1.214695
5966.000000	1.213954
5964.000000	1.213855
5962.000000	1.214137
5960.000000	1.214165
5958.000000	1.213981
5956.000000	1.213945
5954.000000	1.214020
5952.000000	1.214025
5950.000000	1.214175
5948.000000	1.214599
5946.000000	1.214346
5944.000000	1.213684
5942.000000	1.213580
5940.000000	1.213874
5938.000000	1.214238
5936.000000	1.213843
5934.000000	1.213182
5932.000000	1.213013
5930.000000	1.213150
5928.000000	1.213323
5926.000000	1.213387
5924.000000	1.213205
5922.000000	1.213001
5920.000000	1.212997
5918.000000	1.213002
5916.000000	1.212831
5914.000000	1.212765
5912.000000	1.212980
5910.000000	1.213419
5908.000000	1.213713
5906.000000	1.213614
5904.000000	1.213592
5902.000000	1.213545
5900.000000	1.213500
5898.000000	1.213551
5896.000000	1.213887
5894.000000	1.213899
5892.000000	1.213400
5890.000000	1.212790
5888.000000	1.212643
5886.000000	1.212998
5884.000000	1.213285
5882.000000	1.213226
5880.000000	1.213063
5878.000000	1.212804
5876.000000	1.212870
5874.000000	1.212902
5872.000000	1.212957
5870.000000	1.213041
5868.000000	1.212799
5866.000000	1.212654
5864.000000	1.212379
5862.000000	1.212282
5860.000000	1.212281
5858.000000	1.212301
5856.000000	1.212534
5854.000000	1.212359
5852.000000	1.212009
5850.000000	1.211824
5848.000000	1.211829
5846.000000	1.212104
5844.000000	1.212162
5842.000000	1.212131
5840.000000	1.212179
5838.000000	1.212163
5836.000000	1.212219
5834.000000	1.212194
5832.000000	1.211996
5830.000000	1.211936
5828.000000	1.212120
5826.000000	1.212398
5824.000000	1.212553
5822.000000	1.212506
5820.000000	1.212554
5818.000000	1.212419
5816.000000	1.212057
5814.000000	1.211753
5812.000000	1.211672
5810.000000	1.211807
5808.000000	1.211958
5806.000000	1.212081
5804.000000	1.212203
5802.000000	1.212135
5800.000000	1.212019
5798.000000	1.212114
5796.000000	1.212128
5794.000000	1.211918
5792.000000	1.211668
5790.000000	1.211625
5788.000000	1.211595
5786.000000	1.211346
5784.000000	1.211085
5782.000000	1.211313
5780.000000	1.211767
5778.000000	1.212098
5776.000000	1.211969
5774.000000	1.211529
5772.000000	1.211241
5770.000000	1.211347
5768.000000	1.211623
5766.000000	1.211692
5764.000000	1.211440
5762.000000	1.211109
5760.000000	1.210950
5758.000000	1.210708
5756.000000	1.210726
5754.000000	1.210986
5752.000000	1.211264
5750.000000	1.211437
5748.000000	1.211401
5746.000000	1.211337
5744.000000	1.211197
5742.000000	1.210960
5740.000000	1.210830
5738.000000	1.210749
5736.000000	1.210584
5734.000000	1.210674
5732.000000	1.210643
5730.000000	1.210718
5728.000000	1.210704
5726.000000	1.210440
5724.000000	1.210584
5722.000000	1.210904
5720.000000	1.211236
5718.000000	1.211070
5716.000000	1.210586
5714.000000	1.210588
5712.000000	1.210825
5710.000000	1.210662
5708.000000	1.210356
5706.000000	1.210230
5704.000000	1.210391
5702.000000	1.210508
5700.000000	1.210454
5698.000000	1.210356
5696.000000	1.210185
5694.000000	1.209899
5692.000000	1.209649
5690.000000	1.209644
5688.000000	1.209868
5686.000000	1.210054
5684.000000	1.210042
5682.000000	1.209900
5680.000000	1.210064
5678.000000	1.210448
5676.000000	1.210760
5674.000000	1.210556
5672.000000	1.210030
5670.000000	1.209541
5668.000000	1.209310
5666.000000	1.209296
5664.000000	1.209279
5662.000000	1.209414
5660.000000	1.209618
5658.000000	1.209990
5656.000000	1.210152
5654.000000	1.210235
5652.000000	1.210309
5650.000000	1.210173
5648.000000	1.209846
5646.000000	1.209573
5644.000000	1.209548
5642.000000	1.209516
5640.000000	1.209508
5638.000000	1.209418
5636.000000	1.209530
5634.000000	1.209421
5632.000000	1.209180
5630.000000	1.209058
5628.000000	1.208999
5626.000000	1.209166
5624.000000	1.209166
5622.000000	1.209140
5620.000000	1.209228
5618.000000	1.209365
5616.000000	1.209280
5614.000000	1.209191
5612.000000	1.209119
5610.000000	1.209177
5608.000000	1.209142
5606.000000	1.209302
5604.000000	1.209582
5602.000000	1.209618
5600.000000	1.209333
5598.000000	1.208958
5596.000000	1.208854
5594.000000	1.208865
5592.000000	1.208888
5590.000000	1.208749
5588.000000	1.208682
5586.000000	1.208751
5584.000000	1.209034
5582.000000	1.209031
5580.000000	1.208712
5578.000000	1.208278
5576.000000	1.208224
5574.000000	1.208718
5572.000000	1.209102
5570.000000	1.209164
5568.000000	1.209053
5566.000000	1.208927
5564.000000	1.208894
5562.000000	1.208624
5560.000000	1.208522
5558.000000	1.208398
5556.000000	1.208087
5554.000000	1.207850
5552.000000	1.207688
5550.000000	1.207934
5548.000000	1.208267
5546.000000	1.208336
5544.000000	1.208251
5542.000000	1.208339
5540.000000	1.208562
5538.000000	1.208533
5536.000000	1.208205
5534.000000	1.208144
5532.000000	1.208267
5530.000000	1.208315
5528.000000	1.208112
5526.000000	1.207822
5524.000000	1.207726
5522.000000	1.207782
5520.000000	1.207849
5518.000000	1.207821
5516.000000	1.207804
5514.000000	1.207878
5512.000000	1.207605
5510.000000	1.207196
5508.000000	1.207032
5506.000000	1.207066
5504.000000	1.207325
5502.000000	1.207544
5500.000000	1.207720
5498.000000	1.207683
5496.000000	1.207538
5494.000000	1.207439
5492.000000	1.207378
5490.000000	1.207450
5488.000000	1.207602
5486.000000	1.207808
5484.000000	1.207808
5482.000000	1.207509
5480.000000	1.207150
5478.000000	1.206830
5476.000000	1.207011
5474.000000	1.207398
5472.000000	1.207751
5470.000000	1.207482
5468.000000	1.206907
5466.000000	1.206630
5464.000000	1.206779
5462.000000	1.207064
5460.000000	1.207260
5458.000000	1.207240
5456.000000	1.206940
5454.000000	1.206543
5452.000000	1.206419
5450.000000	1.206453
5448.000000	1.206347
5446.000000	1.206309
5444.000000	1.206343
5442.000000	1.206489
5440.000000	1.206623
5438.000000	1.206614
5436.000000	1.206597
5434.000000	1.206677
5432.000000	1.206625
5430.000000	1.206556
5428.000000	1.206770
5426.000000	1.207207
5424.000000	1.207462
5422.000000	1.207239
5420.000000	1.206923
5418.000000	1.206350
5416.000000	1.205660
5414.000000	1.205564
5412.000000	1.206215
5410.000000	1.206857
5408.000000	1.206841
5406.000000	1.206505
5404.000000	1.206350
5402.000000	1.206415
5400.000000	1.206410
5398.000000	1.206250
5396.000000	1.206002
5394.000000	1.206005
5392.000000	1.206298
5390.000000	1.206422
5388.000000	1.206196
5386.000000	1.206099
5384.000000	1.206172
5382.000000	1.206000
5380.000000	1.205522
5378.000000	1.205314
5376.000000	1.205713
5374.000000	1.206280
5372.000000	1.206367
5370.000000	1.205935
5368.000000	1.205377
5366.000000	1.205266
5364.000000	1.205545
5362.000000	1.205759
5360.000000	1.205775
5358.000000	1.205588
5356.000000	1.205505
5354.000000	1.205519
5352.000000	1.205695
5350.000000	1.205772
5348.000000	1.205430
5346.000000	1.205011
5344.000000	1.204992
5342.000000	1.205124
5340.000000	1.205041
5338.000000	1.205016
5336.000000	1.205344
5334.000000	1.205666
5332.000000	1.205513
5330.000000	1.205105
5328.000000	1.204998
5326.000000	1.205358
5324.000000	1.205745
5322.000000	1.205675
5320.000000	1.205490
5318.000000	1.205464
5316.000000	1.205555
5314.000000	1.205297
5312.000000	1.205082
5310.000000	1.204970
5308.000000	1.205005
5306.000000	1.205106
5304.000000	1.205138
5302.000000	1.205126
5300.000000	1.205214
5298.000000	1.205386
5296.000000	1.205387
5294.000000	1.205198
5292.000000	1.205194
5290.000000	1.205416
5288.000000	1.205377
5286.000000	1.205279
5284.000000	1.205227
5282.000000	1.205236
5280.000000	1.205175
5278.000000	1.205142
5276.000000	1.205198
5274.000000	1.205030
5272.000000	1.204679
5270.000000	1.204400
5268.000000	1.204300
5266.000000	1.204199
5264.000000	1.204188
5262.000000	1.204527
5260.000000	1.204849
5258.000000	1.204701
5256.000000	1.204437
5254.000000	1.204547
5252.000000	1.204634
5250.000000	1.204332
5248.000000	1.204168
5246.000000	1.204585
5244.000000	1.205280
5242.000000	1.205464
5240.000000	1.205285
5238.000000	1.204981
5236.000000	1.204866
5234.000000	1.204614
5232.000000	1.204364
5230.000000	1.204341
5228.000000	1.204351
5226.000000	1.204411
5224.000000	1.204619
5222.000000	1.204915
5220.000000	1.204959
5218.000000	1.204707
5216.000000	1.204498
5214.000000	1.204376
5212.000000	1.204147
5210.000000	1.203845
5208.000000	1.203870
5206.000000	1.204322
5204.000000	1.204726
5202.000000	1.204627
5200.000000	1.204286
5198.000000	1.204190
5196.000000	1.204281
5194.000000	1.204322
5192.000000	1.204246
5190.000000	1.204205
5188.000000	1.204062
5186.000000	1.203901
5184.000000	1.203924
5182.000000	1.204076
5180.000000	1.204182
5178.000000	1.204300
5176.000000	1.204373
5174.000000	1.204379
5172.000000	1.204301
5170.000000	1.204196
5168.000000	1.203986
5166.000000	1.203893
5164.000000	1.203976
5162.000000	1.204085
5160.000000	1.204115
5158.000000	1.204061
5156.000000	1.204078
5154.000000	1.204090
5152.000000	1.204269
5150.000000	1.204477
5148.000000	1.204544
5146.000000	1.204368
5144.000000	1.204169
5142.000000	1.204176
5140.000000	1.204185
5138.000000	1.204077
5136.000000	1.203990
5134.000000	1.204011
5132.000000	1.204122
5130.000000	1.204118
5128.000000	1.204154
5126.000000	1.204336
5124.000000	1.204517
5122.000000	1.204548
5120.000000	1.204419
5118.000000	1.204261
5116.000000	1.204163
5114.000000	1.204110
5112.000000	1.204014
5110.000000	1.203845
5108.000000	1.203851
5106.000000	1.204078
5104.000000	1.204105
5102.000000	1.203896
5100.000000	1.203756
5098.000000	1.203889
5096.000000	1.204041
5094.000000	1.203899
5092.000000	1.203618
5090.000000	1.203554
5088.000000	1.203746
5086.000000	1.203915
5084.000000	1.203947
5082.000000	1.203932
5080.000000	1.203841
5078.000000	1.203715
5076.000000	1.203734
5074.000000	1.203920
5072.000000	1.204018
5070.000000	1.204070
5068.000000	1.204112
5066.000000	1.204035
5064.000000	1.203886
5062.000000	1.203868
5060.000000	1.203961
5058.000000	1.203983
5056.000000	1.203947
5054.000000	1.203945
5052.000000	1.204001
5050.000000	1.203924
5048.000000	1.203767
5046.000000	1.203746
5044.000000	1.203878
5042.000000	1.203817
5040.000000	1.203771
5038.000000	1.203968
5036.000000	1.204238
5034.000000	1.204336
5032.000000	1.204096
5030.000000	1.203687
5028.000000	1.203528
5026.000000	1.203776
5024.000000	1.204017
5022.000000	1.204007
5020.000000	1.203978
5018.000000	1.204054
5016.000000	1.204147
5014.000000	1.204166
5012.000000	1.204096
5010.000000	1.203887
5008.000000	1.203696
5006.000000	1.203592
5004.000000	1.203612
5002.000000	1.203703
5000.000000	1.203776
4998.000000	1.203728
4996.000000	1.203627
4994.000000	1.203739
4992.000000	1.203929
4990.000000	1.204037
4988.000000	1.204025
4986.000000	1.203905
4984.000000	1.203810
4982.000000	1.203764
4980.000000	1.203775
4978.000000	1.203742
4976.000000	1.203601
4974.000000	1.203493
4972.000000	1.203531
4970.000000	1.203739
4968.000000	1.203907
4966.000000	1.203951
4964.000000	1.203900
4962.000000	1.203881
4960.000000	1.203941
4958.000000	1.203957
4956.000000	1.203920
4954.000000	1.203942
4952.000000	1.203968
4950.000000	1.203953
4948.000000	1.203868
4946.000000	1.203826
4944.000000	1.203858
4942.000000	1.203961
4940.000000	1.204050
4938.000000	1.204101
4936.000000	1.204081
4934.000000	1.203970
4932.000000	1.203892
4930.000000	1.203824
4928.000000	1.203752
4926.000000	1.203793
4924.000000	1.203861
4922.000000	1.203838
4920.000000	1.203782
4918.000000	1.203809
4916.000000	1.203765
4914.000000	1.203741
4912.000000	1.203841
4910.000000	1.203987
4908.000000	1.204064
4906.000000	1.203870
4904.000000	1.203570
4902.000000	1.203531
4900.000000	1.203674
4898.000000	1.203650
4896.000000	1.203569
4894.000000	1.203653
4892.000000	1.203725
4890.000000	1.203726
4888.000000	1.203702
4886.000000	1.203644
4884.000000	1.203609
4882.000000	1.203601
4880.000000	1.203640
4878.000000	1.203724
4876.000000	1.203780
4874.000000	1.203751
4872.000000	1.203741
4870.000000	1.203784
4868.000000	1.203815
4866.000000	1.203818
4864.000000	1.203795
4862.000000	1.203662
4860.000000	1.203517
4858.000000	1.203533
4856.000000	1.203719
4854.000000	1.203938
4852.000000	1.204066
4850.000000	1.204118
4848.000000	1.204034
4846.000000	1.203911
4844.000000	1.203785
4842.000000	1.203753
4840.000000	1.203843
4838.000000	1.203949
4836.000000	1.203980
4834.000000	1.203827
4832.000000	1.203653
4830.000000	1.203617
4828.000000	1.203688
4826.000000	1.203697
4824.000000	1.203697
4822.000000	1.203798
4820.000000	1.203859
4818.000000	1.203858
4816.000000	1.203864
4814.000000	1.203813
4812.000000	1.203687
4810.000000	1.203575
4808.000000	1.203652
4806.000000	1.203852
4804.000000	1.203952
4802.000000	1.203920
4800.000000	1.203801
4798.000000	1.203556
4796.000000	1.203293
4794.000000	1.203282
4792.000000	1.203539
4790.000000	1.203699
4788.000000	1.203677
4786.000000	1.203525
4784.000000	1.203406
4782.000000	1.203412
4780.000000	1.203610
4778.000000	1.203749
4776.000000	1.203727
4774.000000	1.203723
4772.000000	1.203843
4770.000000	1.203929
4768.000000	1.203977
4766.000000	1.203932
4764.000000	1.203832
4762.000000	1.203768
4760.000000	1.203663
4758.000000	1.203468
4756.000000	1.203418
4754.000000	1.203550
4752.000000	1.203602
4750.000000	1.203648
4748.000000	1.203722
4746.000000	1.203580
4744.000000	1.203318
4742.000000	1.203344
4740.000000	1.203575
4738.000000	1.203630
4736.000000	1.203577
4734.000000	1.203595
4732.000000	1.203655
4730.000000	1.203698
4728.000000	1.203665
4726.000000	1.203551
4724.000000	1.203450
4722.000000	1.203441
4720.000000	1.203418
4718.000000	1.203428
4716.000000	1.203422
4714.000000	1.203362
4712.000000	1.203296
4710.000000	1.203303
4708.000000	1.203349
4706.000000	1.203435
4704.000000	1.203410
4702.000000	1.203277
4700.000000	1.203186
4698.000000	1.203226
4696.000000	1.203299
4694.000000	1.203439
4692.000000	1.203538
4690.000000	1.203431
4688.000000	1.203275
4686.000000	1.203334
4684.000000	1.203408
4682.000000	1.203352
4680.000000	1.203361
4678.000000	1.203476
4676.000000	1.203510
4674.000000	1.203585
4672.000000	1.203683
4670.000000	1.203586
4668.000000	1.203391
4666.000000	1.203348
4664.000000	1.203477
4662.000000	1.203612
4660.000000	1.203642
4658.000000	1.203574
4656.000000	1.203469
4654.000000	1.203346
4652.000000	1.203286
4650.000000	1.203340
4648.000000	1.203390
4646.000000	1.203459
4644.000000	1.203550
4642.000000	1.203591
4640.000000	1.203544
4638.000000	1.203507
4636.000000	1.203434
4634.000000	1.203301
4632.000000	1.203217
4630.000000	1.203285
4628.000000	1.203425
4626.000000	1.203462
4624.000000	1.203340
4622.000000	1.203232
4620.000000	1.203208
4618.000000	1.203234
4616.000000	1.203237
4614.000000	1.203255
4612.000000	1.203354
4610.000000	1.203537
4608.000000	1.203602
4606.000000	1.203550
4604.000000	1.203523
4602.000000	1.203479
4600.000000	1.203434
4598.000000	1.203413
4596.000000	1.203350
4594.000000	1.203324
4592.000000	1.203460
4590.000000	1.203590
4588.000000	1.203515
4586.000000	1.203311
4584.000000	1.203207
4582.000000	1.203220
4580.000000	1.203145
4578.000000	1.203149
4576.000000	1.203394
4574.000000	1.203545
4572.000000	1.203483
4570.000000	1.203502
4568.000000	1.203533
4566.000000	1.203402
4564.000000	1.203283
4562.000000	1.203373
4560.000000	1.203541
4558.000000	1.203570
4556.000000	1.203441
4554.000000	1.203375
4552.000000	1.203484
4550.000000	1.203585
4548.000000	1.203541
4546.000000	1.203477
4544.000000	1.203454
4542.000000	1.203413
4540.000000	1.203318
4538.000000	1.203170
4536.000000	1.203069
4534.000000	1.203134
4532.000000	1.203328
4530.000000	1.203425
4528.000000	1.203343
4526.000000	1.203244
4524.000000	1.203236
4522.000000	1.203176
4520.000000	1.203051
4518.000000	1.202980
4516.000000	1.202950
4514.000000	1.202948
4512.000000	1.203085
4510.000000	1.203296
4508.000000	1.203402
4506.000000	1.203363
4504.000000	1.203298
4502.000000	1.203291
4500.000000	1.203297
4498.000000	1.203245
4496.000000	1.203211
4494.000000	1.203220
4492.000000	1.203167
4490.000000	1.203120
4488.000000	1.203127
4486.000000	1.203083
4484.000000	1.203051
4482.000000	1.203209
4480.000000	1.203393
4478.000000	1.203360
4476.000000	1.203149
4474.000000	1.203016
4472.000000	1.202981
4470.000000	1.202962
4468.000000	1.203010
4466.000000	1.203133
4464.000000	1.203230
4462.000000	1.203297
4460.000000	1.203248
4458.000000	1.203226
4456.000000	1.203405
4454.000000	1.203526
4452.000000	1.203398
4450.000000	1.203316
4448.000000	1.203314
4446.000000	1.203316
4444.000000	1.203380
4442.000000	1.203423
4440.000000	1.203314
4438.000000	1.203243
4436.000000	1.203224
4434.000000	1.203236
4432.000000	1.203261
4430.000000	1.203257
4428.000000	1.203209
4426.000000	1.203168
4424.000000	1.203081
4422.000000	1.202996
4420.000000	1.202979
4418.000000	1.202990
4416.000000	1.202922
4414.000000	1.202934
4412.000000	1.203064
4410.000000	1.203119
4408.000000	1.203043
4406.000000	1.203017
4404.000000	1.203068
4402.000000	1.203082
4400.000000	1.203006
4398.000000	1.202992
4396.000000	1.203014
4394.000000	1.203044
4392.000000	1.203054
4390.000000	1.202981
4388.000000	1.202981
4386.000000	1.203146
4384.000000	1.203187
4382.000000	1.203075
4380.000000	1.203019
4378.000000	1.203068
4376.000000	1.203150
4374.000000	1.203145
4372.000000	1.203063
4370.000000	1.203037
4368.000000	1.203049
4366.000000	1.203020
4364.000000	1.202970
4362.000000	1.202949
4360.000000	1.202999
4358.000000	1.203117
4356.000000	1.203129
4354.000000	1.203033
4352.000000	1.202937
4350.000000	1.202875
4348.000000	1.202841
4346.000000	1.202868
4344.000000	1.202845
4342.000000	1.202791
4340.000000	1.202816
4338.000000	1.202839
4336.000000	1.202741
4334.000000	1.202684
4332.000000	1.202719
4330.000000	1.202761
4328.000000	1.202753
4326.000000	1.202773
4324.000000	1.202858
4322.000000	1.202938
4320.000000	1.202845
4318.000000	1.202724
4316.000000	1.202738
4314.000000	1.202748
4312.000000	1.202582
4310.000000	1.202498
4308.000000	1.202565
4306.000000	1.202583
4304.000000	1.202544
4302.000000	1.202556
4300.000000	1.202563
4298.000000	1.202531
4296.000000	1.202458
4294.000000	1.202437
4292.000000	1.202557
4290.000000	1.202674
4288.000000	1.202529
4286.000000	1.202259
4284.000000	1.202240
4282.000000	1.202423
4280.000000	1.202483
4278.000000	1.202471
4276.000000	1.202482
4274.000000	1.202455
4272.000000	1.202447
4270.000000	1.202468
4268.000000	1.202441
4266.000000	1.202396
4264.000000	1.202370
4262.000000	1.202406
4260.000000	1.202515
4258.000000	1.202582
4256.000000	1.202469
4254.000000	1.202293
4252.000000	1.202200
4250.000000	1.202175
4248.000000	1.202177
4246.000000	1.202173
4244.000000	1.202133
4242.000000	1.202112
4240.000000	1.202094
4238.000000	1.202105
4236.000000	1.202170
4234.000000	1.202236
4232.000000	1.202221
4230.000000	1.202097
4228.000000	1.201973
4226.000000	1.202032
4224.000000	1.202134
4222.000000	1.202052
4220.000000	1.201842
4218.000000	1.201805
4216.000000	1.201873
4214.000000	1.201814
4212.000000	1.201783
4210.000000	1.201920
4208.000000	1.202010
4206.000000	1.201949
4204.000000	1.201846
4202.000000	1.201789
4200.000000	1.201702
4198.000000	1.201617
4196.000000	1.201677
4194.000000	1.201773
4192.000000	1.201786
4190.000000	1.201812
4188.000000	1.201877
4186.000000	1.201861
4184.000000	1.201784
4182.000000	1.201765
4180.000000	1.201742
4178.000000	1.201690
4176.000000	1.201692
4174.000000	1.201722
4172.000000	1.201695
4170.000000	1.201638
4168.000000	1.201578
4166.000000	1.201565
4164.000000	1.201621
4162.000000	1.201718
4160.000000	1.201736
4158.000000	1.201602
4156.000000	1.201385
4154.000000	1.201329
4152.000000	1.201393
4150.000000	1.201352
4148.000000	1.201270
4146.000000	1.201219
4144.000000	1.201126
4142.000000	1.201065
4140.000000	1.201054
4138.000000	1.201026
4136.000000	1.201006
4134.000000	1.201050
4132.000000	1.201037
4130.000000	1.200915
4128.000000	1.200885
4126.000000	1.200982
4124.000000	1.200991
4122.000000	1.200885
4120.000000	1.200833
4118.000000	1.200899
4116.000000	1.200899
4114.000000	1.200824
4112.000000	1.200776
4110.000000	1.200707
4108.000000	1.200543
4106.000000	1.200440
4104.000000	1.200507
4102.000000	1.200657
4100.000000	1.200758
4098.000000	1.200753
4096.000000	1.200611
4094.000000	1.200537
4092.000000	1.200509
4090.000000	1.200403
4088.000000	1.200401
4086.000000	1.200519
4084.000000	1.200516
4082.000000	1.200474
4080.000000	1.200477
4078.000000	1.200489
4076.000000	1.200532
4074.000000	1.200547
4072.000000	1.200351
4070.000000	1.200191
4068.000000	1.200247
4066.000000	1.200280
4064.000000	1.200261
4062.000000	1.200264
4060.000000	1.200180
4058.000000	1.200067
4056.000000	1.199955
4054.000000	1.199873
4052.000000	1.199932
4050.000000	1.200029
4048.000000	1.199967
4046.000000	1.199804
4044.000000	1.199650
4042.000000	1.199562
4040.000000	1.199577
4038.000000	1.199593
4036.000000	1.199521
4034.000000	1.199475
4032.000000	1.199473
4030.000000	1.199461
4028.000000	1.199417
4026.000000	1.199376
4024.000000	1.199385
4022.000000	1.199375
4020.000000	1.199327
4018.000000	1.199273
4016.000000	1.199192
4014.000000	1.199145
4012.000000	1.199117
4010.000000	1.199124
4008.000000	1.199248
4006.000000	1.199332
4004.000000	1.199226
4002.000000	1.199120
4000.000000	1.199090
3998.000000	1.199099
3996.000000	1.199177
3994.000000	1.199201
3992.000000	1.199098
3990.000000	1.199010
3988.000000	1.198939
3986.000000	1.198890
3984.000000	1.198842
3982.000000	1.198796
3980.000000	1.198760
3978.000000	1.198592
3976.000000	1.198416
3974.000000	1.198456
3972.000000	1.198591
3970.000000	1.198662
3968.000000	1.198603
3966.000000	1.198487
3964.000000	1.198303
3962.000000	1.198144
3960.000000	1.198182
3958.000000	1.198285
3956.000000	1.198236
3954.000000	1.198008
3952.000000	1.197677
3950.000000	1.197520
3948.000000	1.197699
3946.000000	1.197717
3944.000000	1.197433
3942.000000	1.197604
3940.000000	1.198052
3938.000000	1.198037
3936.000000	1.197501
3934.000000	1.196905
3932.000000	1.196956
3930.000000	1.197505
3928.000000	1.197489
3926.000000	1.197071
3924.000000	1.197098
3922.000000	1.196956
3920.000000	1.196287
3918.000000	1.196262
3916.000000	1.197165
3914.000000	1.197767
3912.000000	1.197576
3910.000000	1.197088
3908.000000	1.195847
3906.000000	1.193975
3904.000000	1.193433
3902.000000	1.194511
3900.000000	1.196000
3898.000000	1.197325
3896.000000	1.197146
3894.000000	1.195300
3892.000000	1.194710
3890.000000	1.195696
3888.000000	1.194820
3886.000000	1.194111
3884.000000	1.195537
3882.000000	1.195691
3880.000000	1.195686
3878.000000	1.196348
3876.000000	1.195533
3874.000000	1.194085
3872.000000	1.192515
3870.000000	1.192913
3868.000000	1.194903
3866.000000	1.194678
3864.000000	1.194457
3862.000000	1.195730
3860.000000	1.195797
3858.000000	1.192158
3856.000000	1.185605
3854.000000	1.185523
3852.000000	1.194055
3850.000000	1.199046
3848.000000	1.197463
3846.000000	1.195086
3844.000000	1.193824
3842.000000	1.192394
3840.000000	1.190092
3838.000000	1.190701
3836.000000	1.194319
3834.000000	1.195553
3832.000000	1.195147
3830.000000	1.195339
3828.000000	1.195090
3826.000000	1.194342
3824.000000	1.192211
3822.000000	1.190998
3820.000000	1.192328
3818.000000	1.191698
3816.000000	1.192220
3814.000000	1.196048
3812.000000	1.196540
3810.000000	1.193376
3808.000000	1.191574
3806.000000	1.192742
3804.000000	1.191699
3802.000000	1.190419
3800.000000	1.193731
3798.000000	1.195501
3796.000000	1.194912
3794.000000	1.195348
3792.000000	1.195482
3790.000000	1.195136
3788.000000	1.194809
3786.000000	1.194621
3784.000000	1.194555
3782.000000	1.194032
3780.000000	1.193843
3778.000000	1.194706
3776.000000	1.195054
3774.000000	1.194152
3772.000000	1.192767
3770.000000	1.192623
3768.000000	1.193514
3766.000000	1.193946
3764.000000	1.194043
3762.000000	1.193151
3760.000000	1.192262
3758.000000	1.192756
3756.000000	1.191572
3754.000000	1.187270
3752.000000	1.185199
3750.000000	1.188317
3748.000000	1.189472
3746.000000	1.186094
3744.000000	1.188711
3742.000000	1.194615
3740.000000	1.192902
3738.000000	1.188645
3736.000000	1.188266
3734.000000	1.190041
3732.000000	1.191980
3730.000000	1.193142
3728.000000	1.192198
3726.000000	1.191435
3724.000000	1.191825
3722.000000	1.192182
3720.000000	1.192489
3718.000000	1.192540
3716.000000	1.191207
3714.000000	1.188650
3712.000000	1.188657
3710.000000	1.191421
3708.000000	1.193079
3706.000000	1.192764
3704.000000	1.191543
3702.000000	1.191356
3700.000000	1.192398
3698.000000	1.192638
3696.000000	1.191908
3694.000000	1.190320
3692.000000	1.187601
3690.000000	1.186092
3688.000000	1.189245
3686.000000	1.193123
3684.000000	1.192741
3682.000000	1.190925
3680.000000	1.188955
3678.000000	1.185560
3676.000000	1.185150
3674.000000	1.188021
3672.000000	1.187393
3670.000000	1.187793
3668.000000	1.191358
3666.000000	1.191991
3664.000000	1.190798
3662.000000	1.190169
3660.000000	1.189022
3658.000000	1.187464
3656.000000	1.188006
3654.000000	1.188203
3652.000000	1.184843
3650.000000	1.183529
3648.000000	1.187231
3646.000000	1.190439
3644.000000	1.190430
3642.000000	1.189561
3640.000000	1.189170
3638.000000	1.188778
3636.000000	1.188177
3634.000000	1.187266
3632.000000	1.184570
3630.000000	1.182597
3628.000000	1.186139
3626.000000	1.189661
3624.000000	1.188541
3622.000000	1.185980
3620.000000	1.185063
3618.000000	1.186463
3616.000000	1.187024
3614.000000	1.186046
3612.000000	1.185444
3610.000000	1.185399
3608.000000	1.186546
3606.000000	1.187815
3604.000000	1.187464
3602.000000	1.186693
3600.000000	1.186586
3598.000000	1.186535
3596.000000	1.186259
3594.000000	1.186377
3592.000000	1.186077
3590.000000	1.184619
3588.000000	1.184377
3586.000000	1.186137
3584.000000	1.187109
3582.000000	1.186654
3580.000000	1.186230
3578.000000	1.186252
3576.000000	1.186362
3574.000000	1.186334
3572.000000	1.185731
3570.000000	1.184372
3568.000000	1.183869
3566.000000	1.185262
3564.000000	1.186446
3562.000000	1.186365
3560.000000	1.186187
3558.000000	1.186259
3556.000000	1.186092
3554.000000	1.185773
3552.000000	1.185792
3550.000000	1.185763
3548.000000	1.185340
3546.000000	1.185360
3544.000000	1.185941
3542.000000	1.186366
3540.000000	1.186349
3538.000000	1.186099
3536.000000	1.186134
3534.000000	1.186437
3532.000000	1.186367
3530.000000	1.186036
3528.000000	1.186003
3526.000000	1.186197
3524.000000	1.186410
3522.000000	1.186694
3520.000000	1.186961
3518.000000	1.187132
3516.000000	1.187216
3514.000000	1.187211
3512.000000	1.187204
3510.000000	1.187354
3508.000000	1.187538
3506.000000	1.187422
3504.000000	1.187313
3502.000000	1.187739
3500.000000	1.188223
3498.000000	1.188436
3496.000000	1.188584
3494.000000	1.188716
3492.000000	1.188850
3490.000000	1.189036
3488.000000	1.189275
3486.000000	1.189494
3484.000000	1.189679
3482.000000	1.189958
3480.000000	1.190380
3478.000000	1.190717
3476.000000	1.190958
3474.000000	1.191269
3472.000000	1.191510
3470.000000	1.191653
3468.000000	1.191860
3466.000000	1.192271
3464.000000	1.192765
3462.000000	1.193154
3460.000000	1.193499
3458.000000	1.193843
3456.000000	1.194208
3454.000000	1.194675
3452.000000	1.195099
3450.000000	1.195277
3448.000000	1.195465
3446.000000	1.195944
3444.000000	1.196395
3442.000000	1.196870
3440.000000	1.197416
3438.000000	1.197786
3436.000000	1.198128
3434.000000	1.198651
3432.000000	1.199120
3430.000000	1.199521
3428.000000	1.199962
3426.000000	1.200375
3424.000000	1.200633
3422.000000	1.200856
3420.000000	1.201338
3418.000000	1.201762
3416.000000	1.201933
3414.000000	1.202148
3412.000000	1.202506
3410.000000	1.202870
3408.000000	1.203122
3406.000000	1.203323
3404.000000	1.203473
3402.000000	1.203592
3400.000000	1.203720
3398.000000	1.203939
3396.000000	1.204280
3394.000000	1.204483
3392.000000	1.204572
3390.000000	1.204771
3388.000000	1.204986
3386.000000	1.205078
3384.000000	1.205170
3382.000000	1.205315
3380.000000	1.205519
3378.000000	1.205743
3376.000000	1.205845
3374.000000	1.205913
3372.000000	1.205923
3370.000000	1.205945
3368.000000	1.206034
3366.000000	1.206184
3364.000000	1.206416
3362.000000	1.206526
3360.000000	1.206576
3358.000000	1.206715
3356.000000	1.206802
3354.000000	1.206837
3352.000000	1.206918
3350.000000	1.206999
3348.000000	1.207033
3346.000000	1.207093
3344.000000	1.207163
3342.000000	1.207260
3340.000000	1.207388
3338.000000	1.207423
3336.000000	1.207463
3334.000000	1.207586
3332.000000	1.207657
3330.000000	1.207660
3328.000000	1.207633
3326.000000	1.207622
3324.000000	1.207717
3322.000000	1.207903
3320.000000	1.208082
3318.000000	1.208150
3316.000000	1.208161
3314.000000	1.208225
3312.000000	1.208256
3310.000000	1.208155
3308.000000	1.208090
3306.000000	1.208217
3304.000000	1.208394
3302.000000	1.208516
3300.000000	1.208537
3298.000000	1.208472
3296.000000	1.208441
3294.000000	1.208494
3292.000000	1.208599
3290.000000	1.208729
3288.000000	1.208856
3286.000000	1.208899
3284.000000	1.208882
3282.000000	1.208964
3280.000000	1.209024
3278.000000	1.209036
3276.000000	1.209117
3274.000000	1.209223
3272.000000	1.209296
3270.000000	1.209339
3268.000000	1.209311
3266.000000	1.209250
3264.000000	1.209231
3262.000000	1.209306
3260.000000	1.209391
3258.000000	1.209485
3256.000000	1.209611
3254.000000	1.209667
3252.000000	1.209649
3250.000000	1.209637
3248.000000	1.209618
3246.000000	1.209666
3244.000000	1.209813
3242.000000	1.209903
3240.000000	1.209929
3238.000000	1.209924
3236.000000	1.209930
3234.000000	1.209905
3232.000000	1.209992
3230.000000	1.210208
3228.000000	1.210340
3226.000000	1.210386
3224.000000	1.210398
3222.000000	1.210484
3220.000000	1.210623
3218.000000	1.210727
3216.000000	1.210763
3214.000000	1.210795
3212.000000	1.210789
3210.000000	1.210750
3208.000000	1.210754
3206.000000	1.210800
3204.000000	1.210864
3202.000000	1.210849
3200.000000	1.210829
3198.000000	1.210886
3196.000000	1.210947
3194.000000	1.210907
3192.000000	1.210873
3190.000000	1.210938
3188.000000	1.210939
3186.000000	1.210857
3184.000000	1.210910
3182.000000	1.211022
3180.000000	1.211050
3178.000000	1.211142
3176.000000	1.211198
3174.000000	1.211201
3172.000000	1.211176
3170.000000	1.211208
3168.000000	1.211375
3166.000000	1.211428
3164.000000	1.211360
3162.000000	1.211340
3160.000000	1.211327
3158.000000	1.211277
3156.000000	1.211293
3154.000000	1.211348
3152.000000	1.211403
3150.000000	1.211566
3148.000000	1.211673
3146.000000	1.211618
3144.000000	1.211593
3142.000000	1.211627
3140.000000	1.211687
3138.000000	1.211670
3136.000000	1.211638
3134.000000	1.211706
3132.000000	1.211895
3130.000000	1.212017
3128.000000	1.211944
3126.000000	1.211825
3124.000000	1.211782
3122.000000	1.211825
3120.000000	1.211871
3118.000000	1.211841
3116.000000	1.211840
3114.000000	1.211987
3112.000000	1.212122
3110.000000	1.212077
3108.000000	1.211932
3106.000000	1.211949
3104.000000	1.211981
3102.000000	1.211903
3100.000000	1.211870
3098.000000	1.211856
3096.000000	1.211802
3094.000000	1.211703
3092.000000	1.211588
3090.000000	1.211568
3088.000000	1.211596
3086.000000	1.211534
3084.000000	1.211380
3082.000000	1.211258
3080.000000	1.211258
3078.000000	1.211241
3076.000000	1.211164
3074.000000	1.211107
3072.000000	1.211030
3070.000000	1.210972
3068.000000	1.210849
3066.000000	1.210728
3064.000000	1.210774
3062.000000	1.210870
3060.000000	1.210808
3058.000000	1.210683
3056.000000	1.210585
3054.000000	1.210450
3052.000000	1.210390
3050.000000	1.210372
3048.000000	1.210296
3046.000000	1.210183
3044.000000	1.210144
3042.000000	1.210123
3040.000000	1.210072
3038.000000	1.210034
3036.000000	1.209987
3034.000000	1.209885
3032.000000	1.209701
3030.000000	1.209574
3028.000000	1.209510
3026.000000	1.209421
3024.000000	1.209377
3022.000000	1.209381
3020.000000	1.209477
3018.000000	1.209697
3016.000000	1.209937
3014.000000	1.210175
3012.000000	1.210310
3010.000000	1.210132
3008.000000	1.209856
3006.000000	1.209750
3004.000000	1.209696
3002.000000	1.209583
3000.000000	1.209455
2998.000000	1.209344
2996.000000	1.209269
2994.000000	1.209172
2992.000000	1.209090
2990.000000	1.209063
2988.000000	1.209047
2986.000000	1.208987
2984.000000	1.208832
2982.000000	1.208663
2980.000000	1.208692
2978.000000	1.208776
2976.000000	1.208730
2974.000000	1.208653
2972.000000	1.208594
2970.000000	1.208606
2968.000000	1.208869
2966.000000	1.209407
2964.000000	1.210140
2962.000000	1.210808
2960.000000	1.211192
2958.000000	1.211176
2956.000000	1.210782
2954.000000	1.210260
2952.000000	1.209780
2950.000000	1.209260
2948.000000	1.208736
2946.000000	1.208227
2944.000000	1.207742
2942.000000	1.207397
2940.000000	1.207227
2938.000000	1.207134
2936.000000	1.207148
2934.000000	1.207242
2932.000000	1.207243
2930.000000	1.207260
2928.000000	1.207598
2926.000000	1.208283
2924.000000	1.209124
2922.000000	1.209954
2920.000000	1.210576
2918.000000	1.210885
2916.000000	1.210880
2914.000000	1.210583
2912.000000	1.210202
2910.000000	1.209807
2908.000000	1.209420
2906.000000	1.209123
2904.000000	1.208935
2902.000000	1.208779
2900.000000	1.208636
2898.000000	1.208564
2896.000000	1.208510
2894.000000	1.208507
2892.000000	1.208467
2890.000000	1.208251
2888.000000	1.208051
2886.000000	1.207992
2884.000000	1.207898
2882.000000	1.207688
2880.000000	1.207571
2878.000000	1.207480
2876.000000	1.207251
2874.000000	1.206999
2872.000000	1.206746
2870.000000	1.206351
2868.000000	1.205888
2866.000000	1.205650
2864.000000	1.205827
2862.000000	1.206440
2860.000000	1.207198
2858.000000	1.207711
2856.000000	1.207981
2854.000000	1.208133
2852.000000	1.208320
2850.000000	1.208547
2848.000000	1.208703
2846.000000	1.208636
2844.000000	1.208354
2842.000000	1.208057
2840.000000	1.207822
2838.000000	1.207722
2836.000000	1.207673
2834.000000	1.207544
2832.000000	1.207457
2830.000000	1.207443
2828.000000	1.207410
2826.000000	1.207367
2824.000000	1.207283
2822.000000	1.207181
2820.000000	1.207119
2818.000000	1.207092
2816.000000	1.207054
2814.000000	1.207029
2812.000000	1.207066
2810.000000	1.207016
2808.000000	1.206928
2806.000000	1.206892
2804.000000	1.206828
2802.000000	1.206772
2800.000000	1.206827
2798.000000	1.206911
2796.000000	1.206892
2794.000000	1.206807
2792.000000	1.206783
2790.000000	1.206843
2788.000000	1.206863
2786.000000	1.206861
2784.000000	1.206834
2782.000000	1.206643
2780.000000	1.206576
2778.000000	1.206647
2776.000000	1.206622
2774.000000	1.206621
2772.000000	1.206690
2770.000000	1.206648
2768.000000	1.206588
2766.000000	1.206610
2764.000000	1.206613
2762.000000	1.206561
2760.000000	1.206505
2758.000000	1.206464
2756.000000	1.206475
2754.000000	1.206500
2752.000000	1.206520
2750.000000	1.206547
2748.000000	1.206587
2746.000000	1.206647
2744.000000	1.206686
2742.000000	1.206710
2740.000000	1.206730
2738.000000	1.206748
2736.000000	1.206784
2734.000000	1.206748
2732.000000	1.206755
2730.000000	1.206837
2728.000000	1.206919
2726.000000	1.206951
2724.000000	1.206976
2722.000000	1.207010
2720.000000	1.207026
2718.000000	1.207019
2716.000000	1.207052
2714.000000	1.207121
2712.000000	1.207218
2710.000000	1.207287
2708.000000	1.207294
2706.000000	1.207307
2704.000000	1.207383
2702.000000	1.207442
2700.000000	1.207522
2698.000000	1.207671
2696.000000	1.207804
2694.000000	1.207855
2692.000000	1.207867
2690.000000	1.207917
2688.000000	1.208003
2686.000000	1.208122
2684.000000	1.208236
2682.000000	1.208254
2680.000000	1.208213
2678.000000	1.208275
2676.000000	1.208359
2674.000000	1.208422
2672.000000	1.208553
2670.000000	1.208630
2668.000000	1.208731
2666.000000	1.208734
2664.000000	1.208691
2662.000000	1.208751
2660.000000	1.208854
2658.000000	1.208992
2656.000000	1.209086
2654.000000	1.209145
2652.000000	1.209180
2650.000000	1.209193
2648.000000	1.209277
2646.000000	1.209284
2644.000000	1.209317
2642.000000	1.209443
2640.000000	1.209514
2638.000000	1.209492
2636.000000	1.209411
2634.000000	1.209402
2632.000000	1.209483
2630.000000	1.209559
2628.000000	1.209552
2626.000000	1.209508
2624.000000	1.209549
2622.000000	1.209606
2620.000000	1.209659
2618.000000	1.209745
2616.000000	1.209720
2614.000000	1.209647
2612.000000	1.209702
2610.000000	1.209760
2608.000000	1.209796
2606.000000	1.209775
2604.000000	1.209749
2602.000000	1.209771
2600.000000	1.209837
2598.000000	1.209880
2596.000000	1.209893
2594.000000	1.209892
2592.000000	1.209979
2590.000000	1.210063
2588.000000	1.210041
2586.000000	1.210040
2584.000000	1.210144
2582.000000	1.210189
2580.000000	1.210135
2578.000000	1.210138
2576.000000	1.210232
2574.000000	1.210301
2572.000000	1.210330
2570.000000	1.210337
2568.000000	1.210302
2566.000000	1.210246
2564.000000	1.210269
2562.000000	1.210343
2560.000000	1.210357
2558.000000	1.210294
2556.000000	1.210357
2554.000000	1.210382
2552.000000	1.210360
2550.000000	1.210348
2548.000000	1.210343
2546.000000	1.210427
2544.000000	1.210529
2542.000000	1.210462
2540.000000	1.210344
2538.000000	1.210346
2536.000000	1.210383
2534.000000	1.210314
2532.000000	1.210277
2530.000000	1.210365
2528.000000	1.210447
2526.000000	1.210416
2524.000000	1.210345
2522.000000	1.210305
2520.000000	1.210354
2518.000000	1.210403
2516.000000	1.210401
2514.000000	1.210397
2512.000000	1.210341
2510.000000	1.210252
2508.000000	1.210270
2506.000000	1.210323
2504.000000	1.210301
2502.000000	1.210266
2500.000000	1.210268
2498.000000	1.210234
2496.000000	1.210281
2494.000000	1.210301
2492.000000	1.210237
2490.000000	1.210224
2488.000000	1.210215
2486.000000	1.210187
2484.000000	1.210185
2482.000000	1.210179
2480.000000	1.210207
2478.000000	1.210176
2476.000000	1.210179
2474.000000	1.210185
2472.000000	1.210143
2470.000000	1.210174
2468.000000	1.210257
2466.000000	1.210284
2464.000000	1.210305
2462.000000	1.210289
2460.000000	1.210274
2458.000000	1.210293
2456.000000	1.210282
2454.000000	1.210260
2452.000000	1.210280
2450.000000	1.210204
2448.000000	1.210129
2446.000000	1.210166
2444.000000	1.210219
2442.000000	1.210205
2440.000000	1.210184
2438.000000	1.210172
2436.000000	1.210227
2434.000000	1.210238
2432.000000	1.210187
2430.000000	1.210148
2428.000000	1.210132
2426.000000	1.210172
2424.000000	1.210204
2422.000000	1.210133
2420.000000	1.210118
2418.000000	1.210144
2416.000000	1.210166
2414.000000	1.210187
2412.000000	1.210144
2410.000000	1.210045
2408.000000	1.210023
2406.000000	1.209998
2404.000000	1.209918
2402.000000	1.209884
2400.000000	1.209929
2398.000000	1.209957
2396.000000	1.209970
2394.000000	1.209954
2392.000000	1.209876
2390.000000	1.209846
2388.000000	1.209835
2386.000000	1.209802
2384.000000	1.209712
2382.000000	1.209575
2380.000000	1.209438
2378.000000	1.209218
2376.000000	1.209010
2374.000000	1.208736
2372.000000	1.208361
2370.000000	1.208063
2368.000000	1.207944
2366.000000	1.207847
2364.000000	1.207837
2362.000000	1.207938
2360.000000	1.208259
2358.000000	1.208670
2356.000000	1.208972
2354.000000	1.209390
2352.000000	1.209846
2350.000000	1.209698
2348.000000	1.208976
2346.000000	1.208542
2344.000000	1.208813
2342.000000	1.209501
2340.000000	1.210203
2338.000000	1.210423
2336.000000	1.210087
2334.000000	1.209577
2332.000000	1.209245
2330.000000	1.209158
2328.000000	1.209235
2326.000000	1.209374
2324.000000	1.209454
2322.000000	1.209449
2320.000000	1.209491
2318.000000	1.209596
2316.000000	1.209596
2314.000000	1.209507
2312.000000	1.209618
2310.000000	1.209769
2308.000000	1.209771
2306.000000	1.209735
2304.000000	1.209798
2302.000000	1.209808
2300.000000	1.209778
2298.000000	1.209822
2296.000000	1.209856
2294.000000	1.209808
2292.000000	1.209840
2290.000000	1.209843
2288.000000	1.209779
2286.000000	1.209816
2284.000000	1.209889
2282.000000	1.209854
2280.000000	1.209781
2278.000000	1.209753
2276.000000	1.209733
2274.000000	1.209700
2272.000000	1.209698
2270.000000	1.209727
2268.000000	1.209721
2266.000000	1.209731
2264.000000	1.209737
2262.000000	1.209644
2260.000000	1.209593
2258.000000	1.209571
2256.000000	1.209577
2254.000000	1.209556
2252.000000	1.209494
2250.000000	1.209450
2248.000000	1.209450
2246.000000	1.209426
2244.000000	1.209359
2242.000000	1.209243
2240.000000	1.209191
2238.000000	1.209196
2236.000000	1.209180
2234.000000	1.209084
2232.000000	1.209023
2230.000000	1.208943
2228.000000	1.208925
2226.000000	1.208942
2224.000000	1.208906
2222.000000	1.208779
2220.000000	1.208691
2218.000000	1.208630
2216.000000	1.208596
2214.000000	1.208551
2212.000000	1.208455
2210.000000	1.208360
2208.000000	1.208381
2206.000000	1.208341
2204.000000	1.208237
2202.000000	1.208215
2200.000000	1.208251
2198.000000	1.208170
2196.000000	1.208125
2194.000000	1.208073
2192.000000	1.207980
2190.000000	1.207899
2188.000000	1.207807
2186.000000	1.207782
2184.000000	1.207843
2182.000000	1.207792
2180.000000	1.207716
2178.000000	1.207699
2176.000000	1.207710
2174.000000	1.207620
2172.000000	1.207501
2170.000000	1.207464
2168.000000	1.207457
2166.000000	1.207349
2164.000000	1.207282
2162.000000	1.207224
2160.000000	1.207166
2158.000000	1.207109
2156.000000	1.207026
2154.000000	1.206979
2152.000000	1.206993
2150.000000	1.207015
2148.000000	1.207002
2146.000000	1.206940
2144.000000	1.206825
2142.000000	1.206710
2140.000000	1.206692
2138.000000	1.206693
2136.000000	1.206704
2134.000000	1.206620
2132.000000	1.206546
2130.000000	1.206484
2128.000000	1.206367
2126.000000	1.206307
2124.000000	1.206280
2122.000000	1.206263
2120.000000	1.206239
2118.000000	1.206128
2116.000000	1.206012
2114.000000	1.205965
2112.000000	1.206070
2110.000000	1.206139
2108.000000	1.206021
2106.000000	1.205867
2104.000000	1.205900
2102.000000	1.205979
2100.000000	1.205939
2098.000000	1.205835
2096.000000	1.205895
2094.000000	1.205955
2092.000000	1.205813
2090.000000	1.205650
2088.000000	1.205629
2086.000000	1.205642
2084.000000	1.205657
2082.000000	1.205757
2080.000000	1.205771
2078.000000	1.205590
2076.000000	1.205534
2074.000000	1.205591
2072.000000	1.205549
2070.000000	1.205384
2068.000000	1.205289
2066.000000	1.205320
2064.000000	1.205431
2062.000000	1.205401
2060.000000	1.205313
2058.000000	1.205176
2056.000000	1.205171
2054.000000	1.205247
2052.000000	1.205377
2050.000000	1.205163
2048.000000	1.204874
2046.000000	1.204980
2044.000000	1.205104
2042.000000	1.205002
2040.000000	1.205072
2038.000000	1.204979
2036.000000	1.204728
2034.000000	1.204581
2032.000000	1.204645
2030.000000	1.204722
2028.000000	1.204740
2026.000000	1.204700
2024.000000	1.204680
2022.000000	1.204645
2020.000000	1.204517
2018.000000	1.204351
2016.000000	1.204513
2014.000000	1.204577
2012.000000	1.204473
2010.000000	1.204274
2008.000000	1.204088
2006.000000	1.204139
2004.000000	1.204350
2002.000000	1.204369
2000.000000	1.204334
1998.000000	1.204250
1996.000000	1.204275
1994.000000	1.204065
1992.000000	1.203881
1990.000000	1.203973
1988.000000	1.204046
1986.000000	1.204094
1984.000000	1.204154
1982.000000	1.204221
1980.000000	1.204225
1978.000000	1.204269
1976.000000	1.204234
1974.000000	1.204067
1972.000000	1.203987
1970.000000	1.203880
1968.000000	1.203786
1966.000000	1.203967
1964.000000	1.204024
1962.000000	1.203949
1960.000000	1.203863
1958.000000	1.203966
1956.000000	1.204077
1954.000000	1.203981
1952.000000	1.203959
1950.000000	1.204035
1948.000000	1.204002
1946.000000	1.203758
1944.000000	1.203489
1942.000000	1.203748
1940.000000	1.204173
1938.000000	1.204152
1936.000000	1.204128
1934.000000	1.204059
1932.000000	1.204176
1930.000000	1.204262
1928.000000	1.204281
1926.000000	1.204106
1924.000000	1.203841
1922.000000	1.203849
1920.000000	1.203421
1918.000000	1.203389
1916.000000	1.204281
1914.000000	1.204383
1912.000000	1.204186
1910.000000	1.203982
1908.000000	1.204133
1906.000000	1.204295
1904.000000	1.204353
1902.000000	1.204311
1900.000000	1.204360
1898.000000	1.204257
1896.000000	1.204169
1894.000000	1.204215
1892.000000	1.203949
1890.000000	1.203691
1888.000000	1.204334
1886.000000	1.204506
1884.000000	1.204446
1882.000000	1.204438
1880.000000	1.204520
1878.000000	1.204510
1876.000000	1.204481
1874.000000	1.204298
1872.000000	1.203667
1870.000000	1.202817
1868.000000	1.203556
1866.000000	1.204360
1864.000000	1.204411
1862.000000	1.204236
1860.000000	1.204278
1858.000000	1.204295
1856.000000	1.204392
1854.000000	1.204384
1852.000000	1.204441
1850.000000	1.204199
1848.000000	1.203684
1846.000000	1.202064
1844.000000	1.202344
1842.000000	1.204340
1840.000000	1.204430
1838.000000	1.204152
1836.000000	1.204303
1834.000000	1.204174
1832.000000	1.203102
1830.000000	1.202868
1828.000000	1.203710
1826.000000	1.203461
1824.000000	1.204074
1822.000000	1.204601
1820.000000	1.204511
1818.000000	1.204357
1816.000000	1.204469
1814.000000	1.204274
1812.000000	1.204024
1810.000000	1.204185
1808.000000	1.204508
1806.000000	1.204420
1804.000000	1.203982
1802.000000	1.203396
1800.000000	1.203759
1798.000000	1.204203
1796.000000	1.203585
1794.000000	1.201781
1792.000000	1.202350
1790.000000	1.204304
1788.000000	1.204349
1786.000000	1.203648
1784.000000	1.204005
1782.000000	1.204041
1780.000000	1.204124
1778.000000	1.204243
1776.000000	1.203119
1774.000000	1.200642
1772.000000	1.201363
1770.000000	1.203342
1768.000000	1.203724
1766.000000	1.204620
1764.000000	1.203471
1762.000000	1.203021
1760.000000	1.204159
1758.000000	1.203800
1756.000000	1.204145
1754.000000	1.203474
1752.000000	1.201537
1750.000000	1.202719
1748.000000	1.204029
1746.000000	1.204376
1744.000000	1.204224
1742.000000	1.203410
1740.000000	1.203179
1738.000000	1.203695
1736.000000	1.199675
1734.000000	1.199392
1732.000000	1.204547
1730.000000	1.205524
1728.000000	1.205691
1726.000000	1.205655
1724.000000	1.205540
1722.000000	1.204895
1720.000000	1.201358
1718.000000	1.199107
1716.000000	1.202840
1714.000000	1.205348
1712.000000	1.206064
1710.000000	1.205556
1708.000000	1.204662
1706.000000	1.203944
1704.000000	1.203712
1702.000000	1.198888
1700.000000	1.199185
1698.000000	1.201114
1696.000000	1.200981
1694.000000	1.206168
1692.000000	1.206826
1690.000000	1.205847
1688.000000	1.203954
1686.000000	1.198708
1684.000000	1.200744
1682.000000	1.206343
1680.000000	1.206573
1678.000000	1.205129
1676.000000	1.203376
1674.000000	1.205201
1672.000000	1.204723
1670.000000	1.203809
1668.000000	1.206170
1666.000000	1.206813
1664.000000	1.205291
1662.000000	1.206228
1660.000000	1.207466
1658.000000	1.206600
1656.000000	1.200985
1654.000000	1.194657
1652.000000	1.201755
1650.000000	1.206732
1648.000000	1.203119
1646.000000	1.204209
1644.000000	1.207726
1642.000000	1.208007
1640.000000	1.206957
1638.000000	1.203787
1636.000000	1.202369
1634.000000	1.206860
1632.000000	1.208489
1630.000000	1.207243
1628.000000	1.206919
1626.000000	1.206514
1624.000000	1.205546
1622.000000	1.206848
1620.000000	1.206252
1618.000000	1.202812
1616.000000	1.204851
1614.000000	1.208185
1612.000000	1.207686
1610.000000	1.207718
1608.000000	1.208366
1606.000000	1.209042
1604.000000	1.209153
1602.000000	1.209343
1600.000000	1.209472
1598.000000	1.209436
1596.000000	1.209155
1594.000000	1.209159
1592.000000	1.209176
1590.000000	1.209157
1588.000000	1.209162
1586.000000	1.209201
1584.000000	1.209210
1582.000000	1.209331
1580.000000	1.208398
1578.000000	1.204465
1576.000000	1.204664
1574.000000	1.209096
1572.000000	1.207686
1570.000000	1.206464
1568.000000	1.208205
1566.000000	1.208574
1564.000000	1.207572
1562.000000	1.202443
1560.000000	1.196926
1558.000000	1.202347
1556.000000	1.206910
1554.000000	1.207771
1552.000000	1.209000
1550.000000	1.209059
1548.000000	1.208803
1546.000000	1.206984
1544.000000	1.204642
1542.000000	1.200975
1540.000000	1.200904
1538.000000	1.207241
1536.000000	1.208443
1534.000000	1.206745
1532.000000	1.208560
1530.000000	1.208718
1528.000000	1.207190
1526.000000	1.206396
1524.000000	1.204835
1522.000000	1.202854
1520.000000	1.205550
1518.000000	1.206629
1516.000000	1.207210
1514.000000	1.207948
1512.000000	1.207454
1510.000000	1.204993
1508.000000	1.200113
1506.000000	1.202161
1504.000000	1.207703
1502.000000	1.206928
1500.000000	1.203564
1498.000000	1.201158
1496.000000	1.203861
1494.000000	1.209100
1492.000000	1.210006
1490.000000	1.209852
1488.000000	1.210595
1486.000000	1.210955
1484.000000	1.210659
1482.000000	1.209934
1480.000000	1.209620
1478.000000	1.208286
1476.000000	1.206532
1474.000000	1.204743
1472.000000	1.206372
1470.000000	1.209018
1468.000000	1.208438
1466.000000	1.206936
1464.000000	1.207783
1462.000000	1.208230
1460.000000	1.204711
1458.000000	1.200540
1456.000000	1.203547
1454.000000	1.207492
1452.000000	1.208162
1450.000000	1.209132
1448.000000	1.209672
1446.000000	1.209998
1444.000000	1.209467
1442.000000	1.208992
1440.000000	1.207657
1438.000000	1.205210
1436.000000	1.206525
1434.000000	1.208914
1432.000000	1.208199
1430.000000	1.207963
1428.000000	1.208472
1426.000000	1.208334
1424.000000	1.207885
1422.000000	1.206604
1420.000000	1.204603
1418.000000	1.206770
1416.000000	1.208507
1414.000000	1.208548
1412.000000	1.208200
1410.000000	1.207979
1408.000000	1.207454
1406.000000	1.207147
1404.000000	1.207932
1402.000000	1.208584
1400.000000	1.208109
1398.000000	1.208265
1396.000000	1.207690
1394.000000	1.207991
1392.000000	1.208586
1390.000000	1.207609
1388.000000	1.206588
1386.000000	1.207509
1384.000000	1.208498
1382.000000	1.208667
1380.000000	1.208257
1378.000000	1.207940
1376.000000	1.207456
1374.000000	1.207334
1372.000000	1.207699
1370.000000	1.207774
1368.000000	1.207844
1366.000000	1.207613
1364.000000	1.206779
1362.000000	1.206844
1360.000000	1.207499
1358.000000	1.207631
1356.000000	1.207494
1354.000000	1.207529
1352.000000	1.207489
1350.000000	1.207461
1348.000000	1.207430
1346.000000	1.207358
1344.000000	1.207241
1342.000000	1.206912
1340.000000	1.206625
1338.000000	1.206845
1336.000000	1.207057
1334.000000	1.207140
1332.000000	1.207120
1330.000000	1.207027
1328.000000	1.206853
1326.000000	1.206760
1324.000000	1.206580
1322.000000	1.206448
1320.000000	1.206284
1318.000000	1.206302
1316.000000	1.206350
1314.000000	1.206245
1312.000000	1.206268
1310.000000	1.206370
1308.000000	1.206266
1306.000000	1.206219
1304.000000	1.206133
1302.000000	1.206016
1300.000000	1.205886
1298.000000	1.205706
1296.000000	1.205606
1294.000000	1.205675
1292.000000	1.205697
1290.000000	1.205729
1288.000000	1.205664
1286.000000	1.205680
1284.000000	1.205692
1282.000000	1.205738
1280.000000	1.205698
1278.000000	1.205647
1276.000000	1.205638
1274.000000	1.205780
1272.000000	1.205973
1270.000000	1.206323
1268.000000	1.206829
1266.000000	1.208051
1264.000000	1.210280
1262.000000	1.213065
1260.000000	1.215202
1258.000000	1.215828
1256.000000	1.214710
1254.000000	1.212769
1252.000000	1.210973
1250.000000	1.209950
1248.000000	1.209471
1246.000000	1.209237
1244.000000	1.209280
1242.000000	1.209405
1240.000000	1.209475
1238.000000	1.209689
1236.000000	1.209987
1234.000000	1.210260
1232.000000	1.210543
1230.000000	1.210980
1228.000000	1.211348
1226.000000	1.211651
1224.000000	1.211947
1222.000000	1.212240
1220.000000	1.212451
1218.000000	1.212548
1216.000000	1.212723
1214.000000	1.213119
1212.000000	1.213479
1210.000000	1.213816
1208.000000	1.214172
1206.000000	1.214546
1204.000000	1.214868
1202.000000	1.215150
1200.000000	1.215329
1198.000000	1.215772
1196.000000	1.216201
1194.000000	1.216448
1192.000000	1.216682
1190.000000	1.217078
1188.000000	1.217518
1186.000000	1.217779
1184.000000	1.217581
1182.000000	1.217709
1180.000000	1.218942
1178.000000	1.220080
1176.000000	1.220308
1174.000000	1.220509
1172.000000	1.220735
1170.000000	1.221102
1168.000000	1.221425
1166.000000	1.221759
1164.000000	1.222148
1162.000000	1.222485
1160.000000	1.222879
1158.000000	1.223443
1156.000000	1.223946
1154.000000	1.224304
1152.000000	1.224519
1150.000000	1.225024
1148.000000	1.225466
1146.000000	1.225763
1144.000000	1.225878
1142.000000	1.226205
1140.000000	1.226709
1138.000000	1.226907
1136.000000	1.227172
1134.000000	1.227629
1132.000000	1.227811
1130.000000	1.227939
1128.000000	1.228012
1126.000000	1.228228
1124.000000	1.228542
1122.000000	1.228864
1120.000000	1.229055
1118.000000	1.229259
1116.000000	1.229689
1114.000000	1.230299
1112.000000	1.230544
1110.000000	1.230899
1108.000000	1.231291
1106.000000	1.231778
1104.000000	1.232320
1102.000000	1.232873
1100.000000	1.233522
1098.000000	1.233942
1096.000000	1.234471
1094.000000	1.234889
1092.000000	1.234773
1090.000000	1.234849
1088.000000	1.235019
1086.000000	1.234960
1084.000000	1.234929
1082.000000	1.235142
1080.000000	1.234993
1078.000000	1.234113
1076.000000	1.233826
1074.000000	1.233727
1072.000000	1.233354
1070.000000	1.233100
1068.000000	1.232671
1066.000000	1.232047
1064.000000	1.231763
1062.000000	1.231554
1060.000000	1.230851
1058.000000	1.229777
1056.000000	1.228687
1054.000000	1.227967
1052.000000	1.227873
1050.000000	1.228787
1048.000000	1.229118
1046.000000	1.228460
1044.000000	1.227200
1042.000000	1.226366
1040.000000	1.226054
1038.000000	1.225470
1036.000000	1.224705
1034.000000	1.224397
1032.000000	1.224228
1030.000000	1.223761
1028.000000	1.222813
1026.000000	1.222627
1024.000000	1.222845
1022.000000	1.222526
1020.000000	1.222219
1018.000000	1.221628
1016.000000	1.220949
1014.000000	1.219850
1012.000000	1.218166
1010.000000	1.216535
1008.000000	1.214288
1006.000000	1.211854
1004.000000	1.210026
1002.000000	1.208814
1000.000000	1.207116
