PE IR       SUBTECH     SPECTRUM    ASCII       PEDS        4.00        
   -1
TE110A_097_80K_AFTER_160K.ASC
20/05/14
17:15:36.00
20/05/14
17:15:37.00
Administrator
TE110A.Thursday, May 14 2020, 007.
1000.000000
#HDR
-1
-1
#GR
cm-1
A
1.0
0.0
6000.000000
-2.000000
2501
8
1.147604
1.093113
#DATA
6000.000000	1.109745
5998.000000	1.109871
5996.000000	1.109492
5994.000000	1.109129
5992.000000	1.109214
5990.000000	1.109493
5988.000000	1.109239
5986.000000	1.108707
5984.000000	1.108431
5982.000000	1.108547
5980.000000	1.108694
5978.000000	1.108636
5976.000000	1.108504
5974.000000	1.108561
5972.000000	1.108820
5970.000000	1.109069
5968.000000	1.109057
5966.000000	1.109272
5964.000000	1.109599
5962.000000	1.109650
5960.000000	1.109688
5958.000000	1.109387
5956.000000	1.108939
5954.000000	1.108611
5952.000000	1.108527
5950.000000	1.109110
5948.000000	1.109521
5946.000000	1.109424
5944.000000	1.109165
5942.000000	1.109048
5940.000000	1.108870
5938.000000	1.108965
5936.000000	1.108884
5934.000000	1.108773
5932.000000	1.108445
5930.000000	1.108229
5928.000000	1.108440
5926.000000	1.108618
5924.000000	1.108817
5922.000000	1.108869
5920.000000	1.109005
5918.000000	1.108956
5916.000000	1.108714
5914.000000	1.108419
5912.000000	1.108150
5910.000000	1.108289
5908.000000	1.108720
5906.000000	1.109207
5904.000000	1.109518
5902.000000	1.109346
5900.000000	1.108976
5898.000000	1.108531
5896.000000	1.108520
5894.000000	1.108786
5892.000000	1.108992
5890.000000	1.109025
5888.000000	1.108767
5886.000000	1.108468
5884.000000	1.108266
5882.000000	1.108215
5880.000000	1.107871
5878.000000	1.107615
5876.000000	1.107482
5874.000000	1.107545
5872.000000	1.107778
5870.000000	1.107726
5868.000000	1.107994
5866.000000	1.108193
5864.000000	1.107938
5862.000000	1.107476
5860.000000	1.107164
5858.000000	1.107287
5856.000000	1.107473
5854.000000	1.107524
5852.000000	1.107507
5850.000000	1.107767
5848.000000	1.107774
5846.000000	1.107425
5844.000000	1.107101
5842.000000	1.107062
5840.000000	1.107526
5838.000000	1.108013
5836.000000	1.108206
5834.000000	1.108085
5832.000000	1.107827
5830.000000	1.107887
5828.000000	1.108186
5826.000000	1.108391
5824.000000	1.108263
5822.000000	1.107840
5820.000000	1.107671
5818.000000	1.107753
5816.000000	1.108036
5814.000000	1.108003
5812.000000	1.107986
5810.000000	1.108232
5808.000000	1.108342
5806.000000	1.108031
5804.000000	1.107527
5802.000000	1.107307
5800.000000	1.107381
5798.000000	1.107629
5796.000000	1.107638
5794.000000	1.107436
5792.000000	1.107313
5790.000000	1.107387
5788.000000	1.107687
5786.000000	1.108105
5784.000000	1.108403
5782.000000	1.108629
5780.000000	1.108338
5778.000000	1.107887
5776.000000	1.107642
5774.000000	1.107484
5772.000000	1.107445
5770.000000	1.107438
5768.000000	1.107541
5766.000000	1.107705
5764.000000	1.107764
5762.000000	1.107705
5760.000000	1.107532
5758.000000	1.107351
5756.000000	1.107244
5754.000000	1.107362
5752.000000	1.107568
5750.000000	1.107711
5748.000000	1.107876
5746.000000	1.107927
5744.000000	1.107840
5742.000000	1.107610
5740.000000	1.107478
5738.000000	1.107438
5736.000000	1.107368
5734.000000	1.107219
5732.000000	1.107325
5730.000000	1.107550
5728.000000	1.107285
5726.000000	1.107157
5724.000000	1.107104
5722.000000	1.107229
5720.000000	1.107383
5718.000000	1.107351
5716.000000	1.107443
5714.000000	1.107248
5712.000000	1.106853
5710.000000	1.106861
5708.000000	1.106916
5706.000000	1.106986
5704.000000	1.107026
5702.000000	1.107092
5700.000000	1.107408
5698.000000	1.107576
5696.000000	1.107533
5694.000000	1.107387
5692.000000	1.107157
5690.000000	1.107063
5688.000000	1.107222
5686.000000	1.107286
5684.000000	1.107322
5682.000000	1.107172
5680.000000	1.107154
5678.000000	1.107290
5676.000000	1.107379
5674.000000	1.107306
5672.000000	1.107283
5670.000000	1.107121
5668.000000	1.106703
5666.000000	1.106196
5664.000000	1.106150
5662.000000	1.106517
5660.000000	1.106779
5658.000000	1.106821
5656.000000	1.106733
5654.000000	1.106772
5652.000000	1.106736
5650.000000	1.106795
5648.000000	1.106975
5646.000000	1.107116
5644.000000	1.107273
5642.000000	1.107136
5640.000000	1.106764
5638.000000	1.106531
5636.000000	1.106531
5634.000000	1.106878
5632.000000	1.107198
5630.000000	1.107281
5628.000000	1.107046
5626.000000	1.106587
5624.000000	1.106340
5622.000000	1.106349
5620.000000	1.106473
5618.000000	1.106536
5616.000000	1.106750
5614.000000	1.106860
5612.000000	1.106937
5610.000000	1.106743
5608.000000	1.106563
5606.000000	1.106482
5604.000000	1.106573
5602.000000	1.106695
5600.000000	1.106701
5598.000000	1.106745
5596.000000	1.106750
5594.000000	1.106781
5592.000000	1.106649
5590.000000	1.106377
5588.000000	1.106399
5586.000000	1.106552
5584.000000	1.106700
5582.000000	1.106626
5580.000000	1.106603
5578.000000	1.106539
5576.000000	1.106471
5574.000000	1.106226
5572.000000	1.106178
5570.000000	1.106117
5568.000000	1.106159
5566.000000	1.106330
5564.000000	1.106466
5562.000000	1.106436
5560.000000	1.106314
5558.000000	1.106206
5556.000000	1.106223
5554.000000	1.106271
5552.000000	1.106264
5550.000000	1.106104
5548.000000	1.106001
5546.000000	1.106071
5544.000000	1.106183
5542.000000	1.106149
5540.000000	1.106120
5538.000000	1.106061
5536.000000	1.106097
5534.000000	1.106084
5532.000000	1.106109
5530.000000	1.106038
5528.000000	1.105924
5526.000000	1.105997
5524.000000	1.106151
5522.000000	1.106315
5520.000000	1.106234
5518.000000	1.106076
5516.000000	1.106026
5514.000000	1.106080
5512.000000	1.106013
5510.000000	1.105820
5508.000000	1.105770
5506.000000	1.105813
5504.000000	1.105961
5502.000000	1.106123
5500.000000	1.106193
5498.000000	1.106114
5496.000000	1.105893
5494.000000	1.105873
5492.000000	1.106046
5490.000000	1.106134
5488.000000	1.106006
5486.000000	1.105760
5484.000000	1.105690
5482.000000	1.105643
5480.000000	1.105417
5478.000000	1.105124
5476.000000	1.105199
5474.000000	1.105590
5472.000000	1.105772
5470.000000	1.105485
5468.000000	1.105004
5466.000000	1.104926
5464.000000	1.105105
5462.000000	1.105321
5460.000000	1.105508
5458.000000	1.105718
5456.000000	1.105989
5454.000000	1.106012
5452.000000	1.105778
5450.000000	1.105504
5448.000000	1.105355
5446.000000	1.105098
5444.000000	1.104765
5442.000000	1.104881
5440.000000	1.105232
5438.000000	1.105379
5436.000000	1.105362
5434.000000	1.105412
5432.000000	1.105353
5430.000000	1.105218
5428.000000	1.105454
5426.000000	1.105899
5424.000000	1.105968
5422.000000	1.105674
5420.000000	1.105453
5418.000000	1.105070
5416.000000	1.104656
5414.000000	1.104455
5412.000000	1.104554
5410.000000	1.104980
5408.000000	1.105317
5406.000000	1.105415
5404.000000	1.105335
5402.000000	1.105257
5400.000000	1.105102
5398.000000	1.104779
5396.000000	1.104785
5394.000000	1.105332
5392.000000	1.105751
5390.000000	1.105680
5388.000000	1.105360
5386.000000	1.105160
5384.000000	1.105153
5382.000000	1.105117
5380.000000	1.104771
5378.000000	1.104581
5376.000000	1.104838
5374.000000	1.105385
5372.000000	1.105517
5370.000000	1.105180
5368.000000	1.104818
5366.000000	1.104696
5364.000000	1.104945
5362.000000	1.105306
5360.000000	1.105477
5358.000000	1.105180
5356.000000	1.104601
5354.000000	1.104398
5352.000000	1.104645
5350.000000	1.104852
5348.000000	1.104609
5346.000000	1.104498
5344.000000	1.104781
5342.000000	1.104927
5340.000000	1.104707
5338.000000	1.104754
5336.000000	1.105039
5334.000000	1.105170
5332.000000	1.104945
5330.000000	1.104811
5328.000000	1.104995
5326.000000	1.105242
5324.000000	1.105460
5322.000000	1.105445
5320.000000	1.105388
5318.000000	1.105389
5316.000000	1.105463
5314.000000	1.105417
5312.000000	1.105135
5310.000000	1.104779
5308.000000	1.104650
5306.000000	1.104708
5304.000000	1.104787
5302.000000	1.104933
5300.000000	1.105172
5298.000000	1.105273
5296.000000	1.105207
5294.000000	1.104891
5292.000000	1.104718
5290.000000	1.104695
5288.000000	1.104830
5286.000000	1.104820
5284.000000	1.104698
5282.000000	1.104748
5280.000000	1.104884
5278.000000	1.105023
5276.000000	1.104935
5274.000000	1.104747
5272.000000	1.104711
5270.000000	1.104847
5268.000000	1.104763
5266.000000	1.104301
5264.000000	1.104123
5262.000000	1.104582
5260.000000	1.105051
5258.000000	1.104874
5256.000000	1.104549
5254.000000	1.104573
5252.000000	1.104641
5250.000000	1.104391
5248.000000	1.104268
5246.000000	1.104464
5244.000000	1.104797
5242.000000	1.105112
5240.000000	1.105227
5238.000000	1.105075
5236.000000	1.104874
5234.000000	1.104802
5232.000000	1.104876
5230.000000	1.104760
5228.000000	1.104500
5226.000000	1.104226
5224.000000	1.104391
5222.000000	1.104793
5220.000000	1.105022
5218.000000	1.105002
5216.000000	1.104903
5214.000000	1.104840
5212.000000	1.104641
5210.000000	1.104278
5208.000000	1.104157
5206.000000	1.104567
5204.000000	1.105179
5202.000000	1.105349
5200.000000	1.105093
5198.000000	1.104907
5196.000000	1.104867
5194.000000	1.104782
5192.000000	1.104675
5190.000000	1.104671
5188.000000	1.104735
5186.000000	1.104772
5184.000000	1.104824
5182.000000	1.104833
5180.000000	1.104704
5178.000000	1.104596
5176.000000	1.104634
5174.000000	1.104763
5172.000000	1.104910
5170.000000	1.105025
5168.000000	1.105022
5166.000000	1.104792
5164.000000	1.104558
5162.000000	1.104588
5160.000000	1.104898
5158.000000	1.105034
5156.000000	1.104924
5154.000000	1.104787
5152.000000	1.104856
5150.000000	1.104889
5148.000000	1.104791
5146.000000	1.104729
5144.000000	1.104774
5142.000000	1.104845
5140.000000	1.104809
5138.000000	1.104848
5136.000000	1.104873
5134.000000	1.104819
5132.000000	1.104889
5130.000000	1.104998
5128.000000	1.105053
5126.000000	1.104979
5124.000000	1.104966
5122.000000	1.105028
5120.000000	1.105105
5118.000000	1.105228
5116.000000	1.105260
5114.000000	1.105131
5112.000000	1.104939
5110.000000	1.104853
5108.000000	1.104830
5106.000000	1.104914
5104.000000	1.104974
5102.000000	1.105041
5100.000000	1.105015
5098.000000	1.104895
5096.000000	1.104809
5094.000000	1.104806
5092.000000	1.104921
5090.000000	1.104999
5088.000000	1.105016
5086.000000	1.104907
5084.000000	1.104737
5082.000000	1.104610
5080.000000	1.104621
5078.000000	1.104763
5076.000000	1.104932
5074.000000	1.104965
5072.000000	1.104852
5070.000000	1.104626
5068.000000	1.104511
5066.000000	1.104558
5064.000000	1.104793
5062.000000	1.104916
5060.000000	1.104892
5058.000000	1.104934
5056.000000	1.105048
5054.000000	1.105130
5052.000000	1.105102
5050.000000	1.105093
5048.000000	1.105015
5046.000000	1.105058
5044.000000	1.105238
5042.000000	1.105368
5040.000000	1.105272
5038.000000	1.105255
5036.000000	1.105287
5034.000000	1.105257
5032.000000	1.105182
5030.000000	1.105226
5028.000000	1.105287
5026.000000	1.105314
5024.000000	1.105298
5022.000000	1.105254
5020.000000	1.105251
5018.000000	1.105245
5016.000000	1.105225
5014.000000	1.105248
5012.000000	1.105354
5010.000000	1.105380
5008.000000	1.105203
5006.000000	1.104961
5004.000000	1.104851
5002.000000	1.104981
5000.000000	1.105186
4998.000000	1.105279
4996.000000	1.105233
4994.000000	1.105212
4992.000000	1.105182
4990.000000	1.105208
4988.000000	1.105298
4986.000000	1.105402
4984.000000	1.105339
4982.000000	1.105272
4980.000000	1.105179
4978.000000	1.105079
4976.000000	1.105070
4974.000000	1.105209
4972.000000	1.105263
4970.000000	1.105208
4968.000000	1.105232
4966.000000	1.105349
4964.000000	1.105402
4962.000000	1.105438
4960.000000	1.105502
4958.000000	1.105561
4956.000000	1.105579
4954.000000	1.105528
4952.000000	1.105486
4950.000000	1.105498
4948.000000	1.105598
4946.000000	1.105555
4944.000000	1.105379
4942.000000	1.105383
4940.000000	1.105654
4938.000000	1.105864
4936.000000	1.105875
4934.000000	1.105804
4932.000000	1.105761
4930.000000	1.105746
4928.000000	1.105714
4926.000000	1.105620
4924.000000	1.105599
4922.000000	1.105672
4920.000000	1.105751
4918.000000	1.105744
4916.000000	1.105734
4914.000000	1.105697
4912.000000	1.105686
4910.000000	1.105654
4908.000000	1.105732
4906.000000	1.105878
4904.000000	1.106003
4902.000000	1.105953
4900.000000	1.105886
4898.000000	1.105864
4896.000000	1.105904
4894.000000	1.105964
4892.000000	1.105975
4890.000000	1.105925
4888.000000	1.105824
4886.000000	1.105722
4884.000000	1.105596
4882.000000	1.105516
4880.000000	1.105598
4878.000000	1.105771
4876.000000	1.105875
4874.000000	1.105887
4872.000000	1.105927
4870.000000	1.106061
4868.000000	1.106197
4866.000000	1.106107
4864.000000	1.105844
4862.000000	1.105787
4860.000000	1.106022
4858.000000	1.106199
4856.000000	1.106162
4854.000000	1.106129
4852.000000	1.106184
4850.000000	1.106183
4848.000000	1.106071
4846.000000	1.106091
4844.000000	1.106210
4842.000000	1.106228
4840.000000	1.106168
4838.000000	1.106168
4836.000000	1.106191
4834.000000	1.106134
4832.000000	1.106127
4830.000000	1.106227
4828.000000	1.106319
4826.000000	1.106246
4824.000000	1.106185
4822.000000	1.106232
4820.000000	1.106364
4818.000000	1.106563
4816.000000	1.106660
4814.000000	1.106550
4812.000000	1.106420
4810.000000	1.106370
4808.000000	1.106271
4806.000000	1.106248
4804.000000	1.106379
4802.000000	1.106464
4800.000000	1.106393
4798.000000	1.106314
4796.000000	1.106276
4794.000000	1.106159
4792.000000	1.106126
4790.000000	1.106279
4788.000000	1.106448
4786.000000	1.106491
4784.000000	1.106460
4782.000000	1.106376
4780.000000	1.106299
4778.000000	1.106264
4776.000000	1.106255
4774.000000	1.106381
4772.000000	1.106514
4770.000000	1.106429
4768.000000	1.106304
4766.000000	1.106402
4764.000000	1.106611
4762.000000	1.106665
4760.000000	1.106613
4758.000000	1.106593
4756.000000	1.106594
4754.000000	1.106579
4752.000000	1.106540
4750.000000	1.106467
4748.000000	1.106443
4746.000000	1.106504
4744.000000	1.106536
4742.000000	1.106575
4740.000000	1.106609
4738.000000	1.106521
4736.000000	1.106408
4734.000000	1.106442
4732.000000	1.106550
4730.000000	1.106544
4728.000000	1.106409
4726.000000	1.106308
4724.000000	1.106394
4722.000000	1.106498
4720.000000	1.106484
4718.000000	1.106409
4716.000000	1.106399
4714.000000	1.106382
4712.000000	1.106384
4710.000000	1.106466
4708.000000	1.106615
4706.000000	1.106655
4704.000000	1.106630
4702.000000	1.106587
4700.000000	1.106505
4698.000000	1.106361
4696.000000	1.106239
4694.000000	1.106243
4692.000000	1.106407
4690.000000	1.106472
4688.000000	1.106421
4686.000000	1.106432
4684.000000	1.106545
4682.000000	1.106573
4680.000000	1.106586
4678.000000	1.106624
4676.000000	1.106607
4674.000000	1.106571
4672.000000	1.106506
4670.000000	1.106483
4668.000000	1.106508
4666.000000	1.106603
4664.000000	1.106628
4662.000000	1.106631
4660.000000	1.106687
4658.000000	1.106760
4656.000000	1.106730
4654.000000	1.106611
4652.000000	1.106600
4650.000000	1.106737
4648.000000	1.106847
4646.000000	1.106874
4644.000000	1.106771
4642.000000	1.106590
4640.000000	1.106522
4638.000000	1.106630
4636.000000	1.106722
4634.000000	1.106804
4632.000000	1.106816
4630.000000	1.106755
4628.000000	1.106738
4626.000000	1.106761
4624.000000	1.106802
4622.000000	1.106862
4620.000000	1.106766
4618.000000	1.106602
4616.000000	1.106657
4614.000000	1.106832
4612.000000	1.106834
4610.000000	1.106749
4608.000000	1.106691
4606.000000	1.106682
4604.000000	1.106695
4602.000000	1.106761
4600.000000	1.106858
4598.000000	1.107017
4596.000000	1.107111
4594.000000	1.107026
4592.000000	1.106859
4590.000000	1.106782
4588.000000	1.106764
4586.000000	1.106755
4584.000000	1.106806
4582.000000	1.106959
4580.000000	1.107053
4578.000000	1.107010
4576.000000	1.106981
4574.000000	1.107008
4572.000000	1.106949
4570.000000	1.106923
4568.000000	1.107031
4566.000000	1.107093
4564.000000	1.107079
4562.000000	1.107082
4560.000000	1.107076
4558.000000	1.107094
4556.000000	1.107102
4554.000000	1.107014
4552.000000	1.106935
4550.000000	1.106986
4548.000000	1.107069
4546.000000	1.107020
4544.000000	1.106916
4542.000000	1.106908
4540.000000	1.106940
4538.000000	1.106914
4536.000000	1.106946
4534.000000	1.107020
4532.000000	1.107038
4530.000000	1.107054
4528.000000	1.107091
4526.000000	1.107054
4524.000000	1.106987
4522.000000	1.107020
4520.000000	1.107126
4518.000000	1.107167
4516.000000	1.107112
4514.000000	1.107049
4512.000000	1.107066
4510.000000	1.107127
4508.000000	1.107048
4506.000000	1.106845
4504.000000	1.106849
4502.000000	1.107018
4500.000000	1.107002
4498.000000	1.106870
4496.000000	1.106909
4494.000000	1.107064
4492.000000	1.107175
4490.000000	1.107178
4488.000000	1.107162
4486.000000	1.107200
4484.000000	1.107240
4482.000000	1.107228
4480.000000	1.107163
4478.000000	1.107107
4476.000000	1.107145
4474.000000	1.107237
4472.000000	1.107259
4470.000000	1.107253
4468.000000	1.107288
4466.000000	1.107348
4464.000000	1.107399
4462.000000	1.107406
4460.000000	1.107369
4458.000000	1.107317
4456.000000	1.107340
4454.000000	1.107353
4452.000000	1.107305
4450.000000	1.107323
4448.000000	1.107378
4446.000000	1.107311
4444.000000	1.107279
4442.000000	1.107442
4440.000000	1.107551
4438.000000	1.107377
4436.000000	1.107119
4434.000000	1.107089
4432.000000	1.107204
4430.000000	1.107326
4428.000000	1.107451
4426.000000	1.107506
4424.000000	1.107424
4422.000000	1.107288
4420.000000	1.107201
4418.000000	1.107225
4416.000000	1.107316
4414.000000	1.107389
4412.000000	1.107412
4410.000000	1.107333
4408.000000	1.107258
4406.000000	1.107332
4404.000000	1.107421
4402.000000	1.107425
4400.000000	1.107409
4398.000000	1.107373
4396.000000	1.107352
4394.000000	1.107345
4392.000000	1.107278
4390.000000	1.107301
4388.000000	1.107433
4386.000000	1.107435
4384.000000	1.107331
4382.000000	1.107394
4380.000000	1.107553
4378.000000	1.107576
4376.000000	1.107509
4374.000000	1.107473
4372.000000	1.107454
4370.000000	1.107466
4368.000000	1.107502
4366.000000	1.107531
4364.000000	1.107541
4362.000000	1.107602
4360.000000	1.107724
4358.000000	1.107807
4356.000000	1.107783
4354.000000	1.107680
4352.000000	1.107588
4350.000000	1.107577
4348.000000	1.107584
4346.000000	1.107574
4344.000000	1.107596
4342.000000	1.107581
4340.000000	1.107534
4338.000000	1.107555
4336.000000	1.107636
4334.000000	1.107681
4332.000000	1.107637
4330.000000	1.107551
4328.000000	1.107500
4326.000000	1.107424
4324.000000	1.107341
4322.000000	1.107403
4320.000000	1.107533
4318.000000	1.107592
4316.000000	1.107641
4314.000000	1.107669
4312.000000	1.107614
4310.000000	1.107530
4308.000000	1.107471
4306.000000	1.107473
4304.000000	1.107479
4302.000000	1.107413
4300.000000	1.107400
4298.000000	1.107476
4296.000000	1.107436
4294.000000	1.107343
4292.000000	1.107395
4290.000000	1.107544
4288.000000	1.107681
4286.000000	1.107713
4284.000000	1.107618
4282.000000	1.107576
4280.000000	1.107648
4278.000000	1.107644
4276.000000	1.107579
4274.000000	1.107570
4272.000000	1.107647
4270.000000	1.107763
4268.000000	1.107723
4266.000000	1.107584
4264.000000	1.107561
4262.000000	1.107559
4260.000000	1.107555
4258.000000	1.107621
4256.000000	1.107581
4254.000000	1.107490
4252.000000	1.107496
4250.000000	1.107512
4248.000000	1.107532
4246.000000	1.107622
4244.000000	1.107652
4242.000000	1.107569
4240.000000	1.107505
4238.000000	1.107523
4236.000000	1.107536
4234.000000	1.107487
4232.000000	1.107376
4230.000000	1.107225
4228.000000	1.107177
4226.000000	1.107256
4224.000000	1.107292
4222.000000	1.107352
4220.000000	1.107446
4218.000000	1.107425
4216.000000	1.107316
4214.000000	1.107237
4212.000000	1.107238
4210.000000	1.107302
4208.000000	1.107270
4206.000000	1.107195
4204.000000	1.107255
4202.000000	1.107382
4200.000000	1.107437
4198.000000	1.107467
4196.000000	1.107468
4194.000000	1.107415
4192.000000	1.107378
4190.000000	1.107360
4188.000000	1.107339
4186.000000	1.107355
4184.000000	1.107319
4182.000000	1.107281
4180.000000	1.107405
4178.000000	1.107539
4176.000000	1.107530
4174.000000	1.107452
4172.000000	1.107350
4170.000000	1.107360
4168.000000	1.107464
4166.000000	1.107439
4164.000000	1.107290
4162.000000	1.107206
4160.000000	1.107211
4158.000000	1.107231
4156.000000	1.107247
4154.000000	1.107219
4152.000000	1.107143
4150.000000	1.107121
4148.000000	1.107083
4146.000000	1.107014
4144.000000	1.107022
4142.000000	1.107011
4140.000000	1.106959
4138.000000	1.107013
4136.000000	1.107123
4134.000000	1.107119
4132.000000	1.106980
4130.000000	1.106843
4128.000000	1.106802
4126.000000	1.106846
4124.000000	1.106927
4122.000000	1.106964
4120.000000	1.106905
4118.000000	1.106840
4116.000000	1.106781
4114.000000	1.106698
4112.000000	1.106683
4110.000000	1.106714
4108.000000	1.106698
4106.000000	1.106709
4104.000000	1.106769
4102.000000	1.106777
4100.000000	1.106765
4098.000000	1.106774
4096.000000	1.106765
4094.000000	1.106758
4092.000000	1.106746
4090.000000	1.106714
4088.000000	1.106713
4086.000000	1.106765
4084.000000	1.106830
4082.000000	1.106890
4080.000000	1.106909
4078.000000	1.106838
4076.000000	1.106776
4074.000000	1.106766
4072.000000	1.106736
4070.000000	1.106714
4068.000000	1.106687
4066.000000	1.106684
4064.000000	1.106683
4062.000000	1.106626
4060.000000	1.106614
4058.000000	1.106600
4056.000000	1.106535
4054.000000	1.106541
4052.000000	1.106583
4050.000000	1.106570
4048.000000	1.106456
4046.000000	1.106344
4044.000000	1.106323
4042.000000	1.106324
4040.000000	1.106341
4038.000000	1.106376
4036.000000	1.106371
4034.000000	1.106310
4032.000000	1.106251
4030.000000	1.106229
4028.000000	1.106166
4026.000000	1.106088
4024.000000	1.106073
4022.000000	1.106106
4020.000000	1.106139
4018.000000	1.106081
4016.000000	1.106010
4014.000000	1.106006
4012.000000	1.105919
4010.000000	1.105855
4008.000000	1.105936
4006.000000	1.106028
4004.000000	1.106019
4002.000000	1.105922
4000.000000	1.105873
3998.000000	1.105952
3996.000000	1.106014
3994.000000	1.105993
3992.000000	1.105961
3990.000000	1.105896
3988.000000	1.105819
3986.000000	1.105827
3984.000000	1.105859
3982.000000	1.105878
3980.000000	1.105891
3978.000000	1.105819
3976.000000	1.105709
3974.000000	1.105711
3972.000000	1.105788
3970.000000	1.105829
3968.000000	1.105745
3966.000000	1.105603
3964.000000	1.105490
3962.000000	1.105457
3960.000000	1.105534
3958.000000	1.105560
3956.000000	1.105452
3954.000000	1.105303
3952.000000	1.105105
3950.000000	1.104984
3948.000000	1.105089
3946.000000	1.105034
3944.000000	1.104766
3942.000000	1.104913
3940.000000	1.105226
3938.000000	1.105134
3936.000000	1.104674
3934.000000	1.104230
3932.000000	1.104384
3930.000000	1.104847
3928.000000	1.104797
3926.000000	1.104543
3924.000000	1.104540
3922.000000	1.104293
3920.000000	1.103740
3918.000000	1.103766
3916.000000	1.104607
3914.000000	1.105200
3912.000000	1.105127
3910.000000	1.104815
3908.000000	1.103664
3906.000000	1.101792
3904.000000	1.101042
3902.000000	1.101774
3900.000000	1.103156
3898.000000	1.104655
3896.000000	1.104741
3894.000000	1.103101
3892.000000	1.102490
3890.000000	1.103307
3888.000000	1.102526
3886.000000	1.101903
3884.000000	1.103053
3882.000000	1.103114
3880.000000	1.103288
3878.000000	1.104032
3876.000000	1.103250
3874.000000	1.101850
3872.000000	1.100428
3870.000000	1.100812
3868.000000	1.102580
3866.000000	1.102502
3864.000000	1.102395
3862.000000	1.103436
3860.000000	1.103549
3858.000000	1.100234
3856.000000	1.093891
3854.000000	1.093306
3852.000000	1.100801
3850.000000	1.105681
3848.000000	1.104877
3846.000000	1.103005
3844.000000	1.101926
3842.000000	1.100560
3840.000000	1.098162
3838.000000	1.098348
3836.000000	1.101517
3834.000000	1.102888
3832.000000	1.102738
3830.000000	1.103112
3828.000000	1.103141
3826.000000	1.102504
3824.000000	1.100454
3822.000000	1.099057
3820.000000	1.100001
3818.000000	1.099507
3816.000000	1.100105
3814.000000	1.103647
3812.000000	1.104301
3810.000000	1.101600
3808.000000	1.099876
3806.000000	1.100658
3804.000000	1.099632
3802.000000	1.098533
3800.000000	1.101458
3798.000000	1.103188
3796.000000	1.103046
3794.000000	1.103617
3792.000000	1.103645
3790.000000	1.103357
3788.000000	1.103182
3786.000000	1.102973
3784.000000	1.102801
3782.000000	1.102220
3780.000000	1.101926
3778.000000	1.102738
3776.000000	1.103314
3774.000000	1.102677
3772.000000	1.101367
3770.000000	1.101121
3768.000000	1.101866
3766.000000	1.102319
3764.000000	1.102508
3762.000000	1.101791
3760.000000	1.101096
3758.000000	1.101482
3756.000000	1.100187
3754.000000	1.096116
3752.000000	1.093976
3750.000000	1.096429
3748.000000	1.097285
3746.000000	1.094392
3744.000000	1.096895
3742.000000	1.102312
3740.000000	1.101191
3738.000000	1.097531
3736.000000	1.096970
3734.000000	1.098503
3732.000000	1.100431
3730.000000	1.101726
3728.000000	1.101083
3726.000000	1.100492
3724.000000	1.100789
3722.000000	1.101087
3720.000000	1.101493
3718.000000	1.101609
3716.000000	1.100309
3714.000000	1.097905
3712.000000	1.097762
3710.000000	1.100216
3708.000000	1.101961
3706.000000	1.101811
3704.000000	1.100666
3702.000000	1.100482
3700.000000	1.101440
3698.000000	1.101752
3696.000000	1.101231
3694.000000	1.099884
3692.000000	1.097312
3690.000000	1.095662
3688.000000	1.098279
3686.000000	1.101851
3684.000000	1.101919
3682.000000	1.100527
3680.000000	1.098671
3678.000000	1.095373
3676.000000	1.094643
3674.000000	1.097041
3672.000000	1.096610
3670.000000	1.097080
3668.000000	1.100405
3666.000000	1.101373
3664.000000	1.100618
3662.000000	1.100109
3660.000000	1.099075
3658.000000	1.097555
3656.000000	1.097914
3654.000000	1.098078
3652.000000	1.094969
3650.000000	1.093549
3648.000000	1.096761
3646.000000	1.099851
3644.000000	1.100158
3642.000000	1.099578
3640.000000	1.099315
3638.000000	1.099047
3636.000000	1.098549
3634.000000	1.097650
3632.000000	1.095072
3630.000000	1.093113
3628.000000	1.096114
3626.000000	1.099383
3624.000000	1.098716
3622.000000	1.096506
3620.000000	1.095556
3618.000000	1.096673
3616.000000	1.097141
3614.000000	1.096337
3612.000000	1.095791
3610.000000	1.095667
3608.000000	1.096664
3606.000000	1.097857
3604.000000	1.097709
3602.000000	1.097109
3600.000000	1.096935
3598.000000	1.096780
3596.000000	1.096522
3594.000000	1.096658
3592.000000	1.096307
3590.000000	1.094876
3588.000000	1.094601
3586.000000	1.096100
3584.000000	1.096942
3582.000000	1.096722
3580.000000	1.096515
3578.000000	1.096437
3576.000000	1.096311
3574.000000	1.096221
3572.000000	1.095776
3570.000000	1.094576
3568.000000	1.093971
3566.000000	1.095002
3564.000000	1.095961
3562.000000	1.095959
3560.000000	1.095899
3558.000000	1.095921
3556.000000	1.095679
3554.000000	1.095352
3552.000000	1.095365
3550.000000	1.095347
3548.000000	1.094954
3546.000000	1.094935
3544.000000	1.095383
3542.000000	1.095682
3540.000000	1.095637
3538.000000	1.095444
3536.000000	1.095490
3534.000000	1.095601
3532.000000	1.095395
3530.000000	1.095153
3528.000000	1.095133
3526.000000	1.095199
3524.000000	1.095216
3522.000000	1.095401
3520.000000	1.095625
3518.000000	1.095683
3516.000000	1.095696
3514.000000	1.095696
3512.000000	1.095573
3510.000000	1.095568
3508.000000	1.095819
3506.000000	1.095784
3504.000000	1.095623
3502.000000	1.095925
3500.000000	1.096259
3498.000000	1.096294
3496.000000	1.096430
3494.000000	1.096707
3492.000000	1.096823
3490.000000	1.096777
3488.000000	1.096836
3486.000000	1.097041
3484.000000	1.097179
3482.000000	1.097340
3480.000000	1.097606
3478.000000	1.097746
3476.000000	1.097825
3474.000000	1.098035
3472.000000	1.098237
3470.000000	1.098400
3468.000000	1.098632
3466.000000	1.098945
3464.000000	1.099211
3462.000000	1.099390
3460.000000	1.099577
3458.000000	1.099824
3456.000000	1.100090
3454.000000	1.100332
3452.000000	1.100557
3450.000000	1.100702
3448.000000	1.100915
3446.000000	1.101406
3444.000000	1.101906
3442.000000	1.102305
3440.000000	1.102665
3438.000000	1.102987
3436.000000	1.103371
3434.000000	1.103810
3432.000000	1.104254
3430.000000	1.104677
3428.000000	1.105106
3426.000000	1.105545
3424.000000	1.105924
3422.000000	1.106229
3420.000000	1.106503
3418.000000	1.106849
3416.000000	1.107220
3414.000000	1.107464
3412.000000	1.107666
3410.000000	1.107897
3408.000000	1.108072
3406.000000	1.108268
3404.000000	1.108472
3402.000000	1.108629
3400.000000	1.108790
3398.000000	1.109042
3396.000000	1.109289
3394.000000	1.109379
3392.000000	1.109399
3390.000000	1.109530
3388.000000	1.109725
3386.000000	1.109879
3384.000000	1.110058
3382.000000	1.110253
3380.000000	1.110332
3378.000000	1.110399
3376.000000	1.110513
3374.000000	1.110569
3372.000000	1.110564
3370.000000	1.110580
3368.000000	1.110681
3366.000000	1.110899
3364.000000	1.111112
3362.000000	1.111141
3360.000000	1.111205
3358.000000	1.111390
3356.000000	1.111471
3354.000000	1.111531
3352.000000	1.111569
3350.000000	1.111604
3348.000000	1.111701
3346.000000	1.111776
3344.000000	1.111845
3342.000000	1.111913
3340.000000	1.111974
3338.000000	1.112064
3336.000000	1.112168
3334.000000	1.112200
3332.000000	1.112258
3330.000000	1.112369
3328.000000	1.112474
3326.000000	1.112616
3324.000000	1.112759
3322.000000	1.112870
3320.000000	1.112971
3318.000000	1.113022
3316.000000	1.113110
3314.000000	1.113195
3312.000000	1.113216
3310.000000	1.113210
3308.000000	1.113287
3306.000000	1.113507
3304.000000	1.113789
3302.000000	1.113989
3300.000000	1.114128
3298.000000	1.114199
3296.000000	1.114258
3294.000000	1.114334
3292.000000	1.114384
3290.000000	1.114589
3288.000000	1.114832
3286.000000	1.114908
3284.000000	1.114893
3282.000000	1.114870
3280.000000	1.114946
3278.000000	1.115112
3276.000000	1.115162
3274.000000	1.115164
3272.000000	1.115221
3270.000000	1.115327
3268.000000	1.115428
3266.000000	1.115542
3264.000000	1.115674
3262.000000	1.115711
3260.000000	1.115704
3258.000000	1.115682
3256.000000	1.115689
3254.000000	1.115825
3252.000000	1.116015
3250.000000	1.116045
3248.000000	1.115982
3246.000000	1.116010
3244.000000	1.116053
3242.000000	1.116089
3240.000000	1.116174
3238.000000	1.116188
3236.000000	1.116142
3234.000000	1.116136
3232.000000	1.116253
3230.000000	1.116399
3228.000000	1.116458
3226.000000	1.116473
3224.000000	1.116439
3222.000000	1.116453
3220.000000	1.116553
3218.000000	1.116607
3216.000000	1.116624
3214.000000	1.116664
3212.000000	1.116574
3210.000000	1.116562
3208.000000	1.116690
3206.000000	1.116714
3204.000000	1.116676
3202.000000	1.116667
3200.000000	1.116680
3198.000000	1.116664
3196.000000	1.116604
3194.000000	1.116614
3192.000000	1.116679
3190.000000	1.116665
3188.000000	1.116644
3186.000000	1.116624
3184.000000	1.116606
3182.000000	1.116639
3180.000000	1.116702
3178.000000	1.116748
3176.000000	1.116776
3174.000000	1.116776
3172.000000	1.116770
3170.000000	1.116770
3168.000000	1.116777
3166.000000	1.116768
3164.000000	1.116810
3162.000000	1.116901
3160.000000	1.116957
3158.000000	1.117012
3156.000000	1.117058
3154.000000	1.117002
3152.000000	1.116956
3150.000000	1.117079
3148.000000	1.117247
3146.000000	1.117302
3144.000000	1.117325
3142.000000	1.117376
3140.000000	1.117453
3138.000000	1.117556
3136.000000	1.117595
3134.000000	1.117696
3132.000000	1.117879
3130.000000	1.117945
3128.000000	1.117994
3126.000000	1.118056
3124.000000	1.118064
3122.000000	1.118076
3120.000000	1.118058
3118.000000	1.117991
3116.000000	1.118063
3114.000000	1.118249
3112.000000	1.118334
3110.000000	1.118376
3108.000000	1.118444
3106.000000	1.118500
3104.000000	1.118553
3102.000000	1.118566
3100.000000	1.118581
3098.000000	1.118613
3096.000000	1.118617
3094.000000	1.118643
3092.000000	1.118671
3090.000000	1.118620
3088.000000	1.118628
3086.000000	1.118684
3084.000000	1.118669
3082.000000	1.118605
3080.000000	1.118527
3078.000000	1.118527
3076.000000	1.118596
3074.000000	1.118641
3072.000000	1.118673
3070.000000	1.118663
3068.000000	1.118585
3066.000000	1.118577
3064.000000	1.118612
3062.000000	1.118617
3060.000000	1.118625
3058.000000	1.118601
3056.000000	1.118603
3054.000000	1.118594
3052.000000	1.118538
3050.000000	1.118446
3048.000000	1.118425
3046.000000	1.118450
3044.000000	1.118422
3042.000000	1.118420
3040.000000	1.118452
3038.000000	1.118443
3036.000000	1.118381
3034.000000	1.118312
3032.000000	1.118242
3030.000000	1.118261
3028.000000	1.118266
3026.000000	1.118118
3024.000000	1.118045
3022.000000	1.118097
3020.000000	1.118230
3018.000000	1.118466
3016.000000	1.118683
3014.000000	1.118796
3012.000000	1.118877
3010.000000	1.118885
3008.000000	1.118765
3006.000000	1.118612
3004.000000	1.118472
3002.000000	1.118354
3000.000000	1.118322
2998.000000	1.118269
2996.000000	1.118159
2994.000000	1.118087
2992.000000	1.118088
2990.000000	1.118112
2988.000000	1.118131
2986.000000	1.118101
2984.000000	1.118013
2982.000000	1.117950
2980.000000	1.117963
2978.000000	1.117978
2976.000000	1.117959
2974.000000	1.117903
2972.000000	1.117868
2970.000000	1.117960
2968.000000	1.118273
2966.000000	1.118820
2964.000000	1.119493
2962.000000	1.119970
2960.000000	1.120176
2958.000000	1.120141
2956.000000	1.119814
2954.000000	1.119348
2952.000000	1.118985
2950.000000	1.118682
2948.000000	1.118289
2946.000000	1.117825
2944.000000	1.117446
2942.000000	1.117201
2940.000000	1.117018
2938.000000	1.116970
2936.000000	1.117061
2934.000000	1.117106
2932.000000	1.117102
2930.000000	1.117171
2928.000000	1.117530
2926.000000	1.118142
2924.000000	1.118815
2922.000000	1.119524
2920.000000	1.120091
2918.000000	1.120269
2916.000000	1.120177
2914.000000	1.119958
2912.000000	1.119667
2910.000000	1.119345
2908.000000	1.119062
2906.000000	1.118916
2904.000000	1.118861
2902.000000	1.118739
2900.000000	1.118609
2898.000000	1.118601
2896.000000	1.118615
2894.000000	1.118597
2892.000000	1.118587
2890.000000	1.118513
2888.000000	1.118370
2886.000000	1.118182
2884.000000	1.117947
2882.000000	1.117806
2880.000000	1.117735
2878.000000	1.117605
2876.000000	1.117411
2874.000000	1.117183
2872.000000	1.116989
2870.000000	1.116712
2868.000000	1.116363
2866.000000	1.116188
2864.000000	1.116271
2862.000000	1.116696
2860.000000	1.117355
2858.000000	1.117883
2856.000000	1.118166
2854.000000	1.118349
2852.000000	1.118548
2850.000000	1.118770
2848.000000	1.118971
2846.000000	1.118882
2844.000000	1.118528
2842.000000	1.118259
2840.000000	1.118076
2838.000000	1.117981
2836.000000	1.117972
2834.000000	1.117845
2832.000000	1.117723
2830.000000	1.117710
2828.000000	1.117734
2826.000000	1.117701
2824.000000	1.117651
2822.000000	1.117669
2820.000000	1.117645
2818.000000	1.117524
2816.000000	1.117443
2814.000000	1.117424
2812.000000	1.117476
2810.000000	1.117499
2808.000000	1.117423
2806.000000	1.117355
2804.000000	1.117335
2802.000000	1.117268
2800.000000	1.117233
2798.000000	1.117240
2796.000000	1.117184
2794.000000	1.117185
2792.000000	1.117262
2790.000000	1.117283
2788.000000	1.117277
2786.000000	1.117300
2784.000000	1.117281
2782.000000	1.117245
2780.000000	1.117284
2778.000000	1.117304
2776.000000	1.117269
2774.000000	1.117224
2772.000000	1.117244
2770.000000	1.117246
2768.000000	1.117190
2766.000000	1.117135
2764.000000	1.117137
2762.000000	1.117158
2760.000000	1.117185
2758.000000	1.117191
2756.000000	1.117177
2754.000000	1.117165
2752.000000	1.117140
2750.000000	1.117088
2748.000000	1.117074
2746.000000	1.117149
2744.000000	1.117221
2742.000000	1.117212
2740.000000	1.117244
2738.000000	1.117326
2736.000000	1.117322
2734.000000	1.117223
2732.000000	1.117203
2730.000000	1.117239
2728.000000	1.117269
2726.000000	1.117299
2724.000000	1.117326
2722.000000	1.117385
2720.000000	1.117407
2718.000000	1.117400
2716.000000	1.117473
2714.000000	1.117580
2712.000000	1.117666
2710.000000	1.117739
2708.000000	1.117792
2706.000000	1.117841
2704.000000	1.117923
2702.000000	1.118016
2700.000000	1.118143
2698.000000	1.118279
2696.000000	1.118352
2694.000000	1.118422
2692.000000	1.118504
2690.000000	1.118535
2688.000000	1.118589
2686.000000	1.118668
2684.000000	1.118738
2682.000000	1.118773
2680.000000	1.118824
2678.000000	1.118932
2676.000000	1.119019
2674.000000	1.119051
2672.000000	1.119119
2670.000000	1.119217
2668.000000	1.119273
2666.000000	1.119303
2664.000000	1.119396
2662.000000	1.119493
2660.000000	1.119597
2658.000000	1.119701
2656.000000	1.119783
2654.000000	1.119833
2652.000000	1.119863
2650.000000	1.119895
2648.000000	1.119932
2646.000000	1.120036
2644.000000	1.120144
2642.000000	1.120118
2640.000000	1.120117
2638.000000	1.120155
2636.000000	1.120231
2634.000000	1.120290
2632.000000	1.120317
2630.000000	1.120336
2628.000000	1.120363
2626.000000	1.120463
2624.000000	1.120579
2622.000000	1.120577
2620.000000	1.120524
2618.000000	1.120494
2616.000000	1.120530
2614.000000	1.120572
2612.000000	1.120601
2610.000000	1.120626
2608.000000	1.120663
2606.000000	1.120704
2604.000000	1.120753
2602.000000	1.120747
2600.000000	1.120709
2598.000000	1.120759
2596.000000	1.120897
2594.000000	1.120955
2592.000000	1.121001
2590.000000	1.121064
2588.000000	1.121135
2586.000000	1.121213
2584.000000	1.121252
2582.000000	1.121217
2580.000000	1.121272
2578.000000	1.121388
2576.000000	1.121441
2574.000000	1.121435
2572.000000	1.121488
2570.000000	1.121547
2568.000000	1.121549
2566.000000	1.121588
2564.000000	1.121642
2562.000000	1.121619
2560.000000	1.121615
2558.000000	1.121703
2556.000000	1.121703
2554.000000	1.121681
2552.000000	1.121741
2550.000000	1.121749
2548.000000	1.121780
2546.000000	1.121810
2544.000000	1.121817
2542.000000	1.121808
2540.000000	1.121780
2538.000000	1.121784
2536.000000	1.121785
2534.000000	1.121787
2532.000000	1.121815
2530.000000	1.121844
2528.000000	1.121856
2526.000000	1.121830
2524.000000	1.121796
2522.000000	1.121741
2520.000000	1.121745
2518.000000	1.121817
2516.000000	1.121868
2514.000000	1.121844
2512.000000	1.121803
2510.000000	1.121791
2508.000000	1.121827
2506.000000	1.121842
2504.000000	1.121879
2502.000000	1.121867
2500.000000	1.121801
2498.000000	1.121768
2496.000000	1.121791
2494.000000	1.121829
2492.000000	1.121844
2490.000000	1.121861
2488.000000	1.121930
2486.000000	1.121974
2484.000000	1.121926
2482.000000	1.121873
2480.000000	1.121862
2478.000000	1.121872
2476.000000	1.121918
2474.000000	1.121940
2472.000000	1.121979
2470.000000	1.121943
2468.000000	1.121897
2466.000000	1.121976
2464.000000	1.122023
2462.000000	1.121992
2460.000000	1.121992
2458.000000	1.122043
2456.000000	1.122104
2454.000000	1.122130
2452.000000	1.122212
2450.000000	1.122262
2448.000000	1.122235
2446.000000	1.122250
2444.000000	1.122328
2442.000000	1.122413
2440.000000	1.122539
2438.000000	1.122572
2436.000000	1.122558
2434.000000	1.122554
2432.000000	1.122570
2430.000000	1.122614
2428.000000	1.122677
2426.000000	1.122786
2424.000000	1.122922
2422.000000	1.123035
2420.000000	1.123166
2418.000000	1.123305
2416.000000	1.123461
2414.000000	1.123559
2412.000000	1.123626
2410.000000	1.123698
2408.000000	1.123763
2406.000000	1.123722
2404.000000	1.123588
2402.000000	1.123457
2400.000000	1.123359
2398.000000	1.123328
2396.000000	1.123358
2394.000000	1.123347
2392.000000	1.123297
2390.000000	1.123208
2388.000000	1.123167
2386.000000	1.123077
2384.000000	1.122923
2382.000000	1.122777
2380.000000	1.122614
2378.000000	1.122339
2376.000000	1.122043
2374.000000	1.121668
2372.000000	1.121184
2370.000000	1.120726
2368.000000	1.120387
2366.000000	1.120145
2364.000000	1.120018
2362.000000	1.120093
2360.000000	1.120382
2358.000000	1.120699
2356.000000	1.121104
2354.000000	1.121654
2352.000000	1.122240
2350.000000	1.122322
2348.000000	1.121771
2346.000000	1.121178
2344.000000	1.120848
2342.000000	1.120701
2340.000000	1.120678
2338.000000	1.120729
2336.000000	1.120822
2334.000000	1.120861
2332.000000	1.120927
2330.000000	1.121066
2328.000000	1.121259
2326.000000	1.121466
2324.000000	1.121623
2322.000000	1.121752
2320.000000	1.121885
2318.000000	1.122065
2316.000000	1.122223
2314.000000	1.122297
2312.000000	1.122365
2310.000000	1.122418
2308.000000	1.122520
2306.000000	1.122578
2304.000000	1.122657
2302.000000	1.122671
2300.000000	1.122657
2298.000000	1.122687
2296.000000	1.122698
2294.000000	1.122729
2292.000000	1.122748
2290.000000	1.122737
2288.000000	1.122742
2286.000000	1.122712
2284.000000	1.122703
2282.000000	1.122766
2280.000000	1.122876
2278.000000	1.122881
2276.000000	1.122808
2274.000000	1.122777
2272.000000	1.122801
2270.000000	1.122822
2268.000000	1.122796
2266.000000	1.122712
2264.000000	1.122729
2262.000000	1.122749
2260.000000	1.122737
2258.000000	1.122725
2256.000000	1.122684
2254.000000	1.122676
2252.000000	1.122716
2250.000000	1.122672
2248.000000	1.122683
2246.000000	1.122757
2244.000000	1.122740
2242.000000	1.122528
2240.000000	1.122418
2238.000000	1.122454
2236.000000	1.122514
2234.000000	1.122465
2232.000000	1.122380
2230.000000	1.122273
2228.000000	1.122169
2226.000000	1.122138
2224.000000	1.122161
2222.000000	1.122036
2220.000000	1.121969
2218.000000	1.121992
2216.000000	1.122008
2214.000000	1.121966
2212.000000	1.121916
2210.000000	1.121815
2208.000000	1.121773
2206.000000	1.121769
2204.000000	1.121726
2202.000000	1.121671
2200.000000	1.121642
2198.000000	1.121554
2196.000000	1.121478
2194.000000	1.121536
2192.000000	1.121589
2190.000000	1.121455
2188.000000	1.121346
2186.000000	1.121358
2184.000000	1.121433
2182.000000	1.121445
2180.000000	1.121371
2178.000000	1.121222
2176.000000	1.121173
2174.000000	1.121132
2172.000000	1.121063
2170.000000	1.121030
2168.000000	1.121024
2166.000000	1.120964
2164.000000	1.120833
2162.000000	1.120724
2160.000000	1.120712
2158.000000	1.120736
2156.000000	1.120780
2154.000000	1.120780
2152.000000	1.120805
2150.000000	1.120744
2148.000000	1.120628
2146.000000	1.120540
2144.000000	1.120488
2142.000000	1.120424
2140.000000	1.120455
2138.000000	1.120481
2136.000000	1.120465
2134.000000	1.120351
2132.000000	1.120289
2130.000000	1.120301
2128.000000	1.120308
2126.000000	1.120271
2124.000000	1.120233
2122.000000	1.120115
2120.000000	1.120058
2118.000000	1.120020
2116.000000	1.120016
2114.000000	1.119995
2112.000000	1.119942
2110.000000	1.119939
2108.000000	1.119909
2106.000000	1.119765
2104.000000	1.119715
2102.000000	1.119801
2100.000000	1.119846
2098.000000	1.119762
2096.000000	1.119637
2094.000000	1.119581
2092.000000	1.119625
2090.000000	1.119644
2088.000000	1.119614
2086.000000	1.119626
2084.000000	1.119600
2082.000000	1.119499
2080.000000	1.119518
2078.000000	1.119478
2076.000000	1.119374
2074.000000	1.119399
2072.000000	1.119457
2070.000000	1.119373
2068.000000	1.119395
2066.000000	1.119330
2064.000000	1.119275
2062.000000	1.119241
2060.000000	1.119184
2058.000000	1.119197
2056.000000	1.119249
2054.000000	1.119244
2052.000000	1.119216
2050.000000	1.119145
2048.000000	1.119125
2046.000000	1.119074
2044.000000	1.118959
2042.000000	1.118917
2040.000000	1.118985
2038.000000	1.118913
2036.000000	1.118860
2034.000000	1.118919
2032.000000	1.118984
2030.000000	1.118969
2028.000000	1.118943
2026.000000	1.118843
2024.000000	1.118787
2022.000000	1.118748
2020.000000	1.118658
2018.000000	1.118556
2016.000000	1.118655
2014.000000	1.118677
2012.000000	1.118635
2010.000000	1.118555
2008.000000	1.118559
2006.000000	1.118647
2004.000000	1.118662
2002.000000	1.118513
2000.000000	1.118462
1998.000000	1.118513
1996.000000	1.118526
1994.000000	1.118255
1992.000000	1.118183
1990.000000	1.118359
1988.000000	1.118379
1986.000000	1.118418
1984.000000	1.118439
1982.000000	1.118395
1980.000000	1.118336
1978.000000	1.118315
1976.000000	1.118333
1974.000000	1.118320
1972.000000	1.118291
1970.000000	1.118176
1968.000000	1.118107
1966.000000	1.118281
1964.000000	1.118455
1962.000000	1.118351
1960.000000	1.118282
1958.000000	1.118495
1956.000000	1.118537
1954.000000	1.118447
1952.000000	1.118432
1950.000000	1.118404
1948.000000	1.118366
1946.000000	1.118211
1944.000000	1.117955
1942.000000	1.118100
1940.000000	1.118505
1938.000000	1.118482
1936.000000	1.118519
1934.000000	1.118582
1932.000000	1.118616
1930.000000	1.118569
1928.000000	1.118552
1926.000000	1.118412
1924.000000	1.118252
1922.000000	1.118297
1920.000000	1.117946
1918.000000	1.117871
1916.000000	1.118698
1914.000000	1.118847
1912.000000	1.118666
1910.000000	1.118492
1908.000000	1.118660
1906.000000	1.118776
1904.000000	1.118884
1902.000000	1.118936
1900.000000	1.118945
1898.000000	1.118775
1896.000000	1.118693
1894.000000	1.118770
1892.000000	1.118604
1890.000000	1.118364
1888.000000	1.118843
1886.000000	1.119017
1884.000000	1.119097
1882.000000	1.119099
1880.000000	1.119077
1878.000000	1.119064
1876.000000	1.119043
1874.000000	1.118934
1872.000000	1.118353
1870.000000	1.117429
1868.000000	1.118013
1866.000000	1.118860
1864.000000	1.119013
1862.000000	1.118853
1860.000000	1.118880
1858.000000	1.118902
1856.000000	1.118981
1854.000000	1.118967
1852.000000	1.118984
1850.000000	1.118755
1848.000000	1.118198
1846.000000	1.116589
1844.000000	1.116704
1842.000000	1.118682
1840.000000	1.119032
1838.000000	1.118750
1836.000000	1.118813
1834.000000	1.118723
1832.000000	1.117798
1830.000000	1.117476
1828.000000	1.118243
1826.000000	1.118064
1824.000000	1.118681
1822.000000	1.119230
1820.000000	1.119179
1818.000000	1.119071
1816.000000	1.119139
1814.000000	1.118973
1812.000000	1.118737
1810.000000	1.118859
1808.000000	1.119185
1806.000000	1.119138
1804.000000	1.118692
1802.000000	1.117989
1800.000000	1.118179
1798.000000	1.118649
1796.000000	1.118141
1794.000000	1.116326
1792.000000	1.116680
1790.000000	1.118631
1788.000000	1.118899
1786.000000	1.118259
1784.000000	1.118427
1782.000000	1.118426
1780.000000	1.118631
1778.000000	1.118864
1776.000000	1.117788
1774.000000	1.115242
1772.000000	1.115614
1770.000000	1.117537
1768.000000	1.118118
1766.000000	1.119120
1764.000000	1.118157
1762.000000	1.117572
1760.000000	1.118566
1758.000000	1.118372
1756.000000	1.118646
1754.000000	1.117942
1752.000000	1.115984
1750.000000	1.116930
1748.000000	1.118285
1746.000000	1.118734
1744.000000	1.118569
1742.000000	1.117809
1740.000000	1.117519
1738.000000	1.117954
1736.000000	1.113963
1734.000000	1.113058
1732.000000	1.118021
1730.000000	1.119594
1728.000000	1.120036
1726.000000	1.120078
1724.000000	1.119941
1722.000000	1.119367
1720.000000	1.115866
1718.000000	1.113123
1716.000000	1.116298
1714.000000	1.119044
1712.000000	1.120042
1710.000000	1.119669
1708.000000	1.118824
1706.000000	1.118040
1704.000000	1.117718
1702.000000	1.112975
1700.000000	1.112564
1698.000000	1.114310
1696.000000	1.114238
1694.000000	1.119411
1692.000000	1.120770
1690.000000	1.119956
1688.000000	1.117990
1686.000000	1.112564
1684.000000	1.113894
1682.000000	1.119649
1680.000000	1.120557
1678.000000	1.119233
1676.000000	1.117261
1674.000000	1.118732
1672.000000	1.118481
1670.000000	1.117481
1668.000000	1.119718
1666.000000	1.120713
1664.000000	1.119252
1662.000000	1.119916
1660.000000	1.121217
1658.000000	1.120515
1656.000000	1.114995
1654.000000	1.108087
1652.000000	1.114119
1650.000000	1.119747
1648.000000	1.116828
1646.000000	1.117523
1644.000000	1.121042
1642.000000	1.121728
1640.000000	1.120806
1638.000000	1.117610
1636.000000	1.115757
1634.000000	1.119942
1632.000000	1.122077
1630.000000	1.121129
1628.000000	1.120647
1626.000000	1.120164
1624.000000	1.119305
1622.000000	1.120558
1620.000000	1.120106
1618.000000	1.116623
1616.000000	1.118193
1614.000000	1.121755
1612.000000	1.121758
1610.000000	1.121781
1608.000000	1.122279
1606.000000	1.122867
1604.000000	1.122927
1602.000000	1.123101
1600.000000	1.123235
1598.000000	1.123245
1596.000000	1.122991
1594.000000	1.122990
1592.000000	1.123020
1590.000000	1.123024
1588.000000	1.123032
1586.000000	1.123064
1584.000000	1.123091
1582.000000	1.123150
1580.000000	1.122224
1578.000000	1.118240
1576.000000	1.117861
1574.000000	1.122309
1572.000000	1.121553
1570.000000	1.120312
1568.000000	1.121941
1566.000000	1.122419
1564.000000	1.121468
1562.000000	1.116425
1560.000000	1.110249
1558.000000	1.114736
1556.000000	1.119740
1554.000000	1.120996
1552.000000	1.122312
1550.000000	1.122536
1548.000000	1.122443
1546.000000	1.120736
1544.000000	1.118224
1542.000000	1.114304
1540.000000	1.113784
1538.000000	1.120030
1536.000000	1.121966
1534.000000	1.120515
1532.000000	1.122168
1530.000000	1.122517
1528.000000	1.121092
1526.000000	1.120169
1524.000000	1.118547
1522.000000	1.116309
1520.000000	1.118799
1518.000000	1.120331
1516.000000	1.121021
1514.000000	1.121748
1512.000000	1.121290
1510.000000	1.118893
1508.000000	1.113786
1506.000000	1.115207
1504.000000	1.120948
1502.000000	1.120957
1500.000000	1.117982
1498.000000	1.115589
1496.000000	1.117842
1494.000000	1.122827
1492.000000	1.123781
1490.000000	1.123356
1488.000000	1.123989
1486.000000	1.124530
1484.000000	1.124487
1482.000000	1.123859
1480.000000	1.123473
1478.000000	1.122182
1476.000000	1.120467
1474.000000	1.118570
1472.000000	1.119879
1470.000000	1.122729
1468.000000	1.122550
1466.000000	1.120945
1464.000000	1.121620
1462.000000	1.122279
1460.000000	1.118927
1458.000000	1.114485
1456.000000	1.117155
1454.000000	1.121585
1452.000000	1.122594
1450.000000	1.123322
1448.000000	1.123692
1446.000000	1.123972
1444.000000	1.123552
1442.000000	1.123298
1440.000000	1.122184
1438.000000	1.119625
1436.000000	1.120493
1434.000000	1.122929
1432.000000	1.122556
1430.000000	1.122426
1428.000000	1.122889
1426.000000	1.122685
1424.000000	1.122214
1422.000000	1.121020
1420.000000	1.118953
1418.000000	1.120840
1416.000000	1.122734
1414.000000	1.123029
1412.000000	1.122782
1410.000000	1.122494
1408.000000	1.121946
1406.000000	1.121615
1404.000000	1.122416
1402.000000	1.123123
1400.000000	1.122533
1398.000000	1.122510
1396.000000	1.121935
1394.000000	1.122364
1392.000000	1.123247
1390.000000	1.122421
1388.000000	1.121369
1386.000000	1.122136
1384.000000	1.123036
1382.000000	1.123266
1380.000000	1.123052
1378.000000	1.122819
1376.000000	1.122220
1374.000000	1.122130
1372.000000	1.122619
1370.000000	1.122559
1368.000000	1.122496
1366.000000	1.122297
1364.000000	1.121550
1362.000000	1.121669
1360.000000	1.122278
1358.000000	1.122393
1356.000000	1.122264
1354.000000	1.122255
1352.000000	1.122227
1350.000000	1.122200
1348.000000	1.122202
1346.000000	1.122171
1344.000000	1.122073
1342.000000	1.121761
1340.000000	1.121518
1338.000000	1.121798
1336.000000	1.121992
1334.000000	1.122001
1332.000000	1.121890
1330.000000	1.121822
1328.000000	1.121745
1326.000000	1.121656
1324.000000	1.121547
1322.000000	1.121321
1320.000000	1.120963
1318.000000	1.120962
1316.000000	1.121083
1314.000000	1.121044
1312.000000	1.121028
1310.000000	1.121101
1308.000000	1.120990
1306.000000	1.120818
1304.000000	1.120701
1302.000000	1.120666
1300.000000	1.120637
1298.000000	1.120660
1296.000000	1.120572
1294.000000	1.120457
1292.000000	1.120281
1290.000000	1.120233
1288.000000	1.120224
1286.000000	1.120206
1284.000000	1.120203
1282.000000	1.120257
1280.000000	1.120160
1278.000000	1.120151
1276.000000	1.120146
1274.000000	1.120074
1272.000000	1.120125
1270.000000	1.120453
1268.000000	1.120943
1266.000000	1.122000
1264.000000	1.123752
1262.000000	1.126029
1260.000000	1.128038
1258.000000	1.128734
1256.000000	1.127703
1254.000000	1.125872
1252.000000	1.124337
1250.000000	1.123528
1248.000000	1.123155
1246.000000	1.123139
1244.000000	1.123188
1242.000000	1.123377
1240.000000	1.123610
1238.000000	1.123911
1236.000000	1.124198
1234.000000	1.124441
1232.000000	1.124731
1230.000000	1.125057
1228.000000	1.125321
1226.000000	1.125670
1224.000000	1.125837
1222.000000	1.125968
1220.000000	1.126267
1218.000000	1.126601
1216.000000	1.126811
1214.000000	1.127142
1212.000000	1.127342
1210.000000	1.127646
1208.000000	1.128025
1206.000000	1.128410
1204.000000	1.128721
1202.000000	1.128909
1200.000000	1.129094
1198.000000	1.129538
1196.000000	1.129917
1194.000000	1.130284
1192.000000	1.130733
1190.000000	1.131167
1188.000000	1.131461
1186.000000	1.131625
1184.000000	1.131587
1182.000000	1.131847
1180.000000	1.132873
1178.000000	1.133764
1176.000000	1.134076
1174.000000	1.134180
1172.000000	1.134405
1170.000000	1.134959
1168.000000	1.135302
1166.000000	1.135704
1164.000000	1.136146
1162.000000	1.136569
1160.000000	1.136965
1158.000000	1.137336
1156.000000	1.137657
1154.000000	1.138056
1152.000000	1.138571
1150.000000	1.138993
1148.000000	1.139166
1146.000000	1.139420
1144.000000	1.139763
1142.000000	1.140309
1140.000000	1.140654
1138.000000	1.140773
1136.000000	1.140715
1134.000000	1.140672
1132.000000	1.140741
1130.000000	1.141090
1128.000000	1.141328
1126.000000	1.141592
1124.000000	1.141942
1122.000000	1.142355
1120.000000	1.142678
1118.000000	1.143011
1116.000000	1.143485
1114.000000	1.143884
1112.000000	1.144235
1110.000000	1.144529
1108.000000	1.144843
1106.000000	1.145325
1104.000000	1.145803
1102.000000	1.146498
1100.000000	1.146748
1098.000000	1.146718
1096.000000	1.147068
1094.000000	1.147441
1092.000000	1.147512
1090.000000	1.147604
1088.000000	1.147580
1086.000000	1.147295
1084.000000	1.146865
1082.000000	1.146890
1080.000000	1.147079
1078.000000	1.147068
1076.000000	1.146877
1074.000000	1.146739
1072.000000	1.146167
1070.000000	1.145429
1068.000000	1.145184
1066.000000	1.144973
1064.000000	1.144400
1062.000000	1.143801
1060.000000	1.143192
1058.000000	1.142739
1056.000000	1.141929
1054.000000	1.140786
1052.000000	1.140456
1050.000000	1.141594
1048.000000	1.141919
1046.000000	1.141176
1044.000000	1.140133
1042.000000	1.139674
1040.000000	1.139229
1038.000000	1.138462
1036.000000	1.137364
1034.000000	1.136899
1032.000000	1.136737
1030.000000	1.136477
1028.000000	1.136182
1026.000000	1.135878
1024.000000	1.135379
1022.000000	1.134752
1020.000000	1.134059
1018.000000	1.133449
1016.000000	1.132864
1014.000000	1.132351
1012.000000	1.131219
1010.000000	1.129636
1008.000000	1.127611
1006.000000	1.125494
1004.000000	1.124414
1002.000000	1.123954
1000.000000	1.123004
