PE IR       SUBTECH     SPECTRUM    ASCII       PEDS        4.00        
   -1
TE110A_057_80K_AFTER_120K_2MIN.ASC
20/05/14
14:24:43.00
20/05/14
14:24:43.00
Administrator
TE110A.Thursday, May 14 2020, 005.
1000.000000
#HDR
-1
-1
#GR
cm-1
A
1.0
0.0
6000.000000
-2.000000
2501
8
1.234436
1.175923
#DATA
6000.000000	1.207734
5998.000000	1.210342
5996.000000	1.209010
5994.000000	1.206957
5992.000000	1.206651
5990.000000	1.207175
5988.000000	1.206407
5986.000000	1.205220
5984.000000	1.205646
5982.000000	1.206589
5980.000000	1.206675
5978.000000	1.206577
5976.000000	1.206858
5974.000000	1.207428
5972.000000	1.206664
5970.000000	1.205392
5968.000000	1.205060
5966.000000	1.205533
5964.000000	1.206271
5962.000000	1.206400
5960.000000	1.206394
5958.000000	1.206039
5956.000000	1.206264
5954.000000	1.206335
5952.000000	1.206102
5950.000000	1.205400
5948.000000	1.204957
5946.000000	1.205155
5944.000000	1.205263
5942.000000	1.205313
5940.000000	1.205468
5938.000000	1.206121
5936.000000	1.206728
5934.000000	1.206714
5932.000000	1.206584
5930.000000	1.206209
5928.000000	1.206522
5926.000000	1.206978
5924.000000	1.207273
5922.000000	1.205877
5920.000000	1.204018
5918.000000	1.203719
5916.000000	1.204644
5914.000000	1.205672
5912.000000	1.205448
5910.000000	1.205213
5908.000000	1.205312
5906.000000	1.205695
5904.000000	1.206174
5902.000000	1.206621
5900.000000	1.206579
5898.000000	1.206246
5896.000000	1.205807
5894.000000	1.205315
5892.000000	1.204977
5890.000000	1.204666
5888.000000	1.205116
5886.000000	1.205536
5884.000000	1.205921
5882.000000	1.206348
5880.000000	1.206937
5878.000000	1.207148
5876.000000	1.206555
5874.000000	1.205487
5872.000000	1.204591
5870.000000	1.204121
5868.000000	1.203704
5866.000000	1.203538
5864.000000	1.203870
5862.000000	1.204291
5860.000000	1.204251
5858.000000	1.204181
5856.000000	1.204414
5854.000000	1.204352
5852.000000	1.204103
5850.000000	1.204107
5848.000000	1.204866
5846.000000	1.205571
5844.000000	1.205504
5842.000000	1.205330
5840.000000	1.205185
5838.000000	1.203910
5836.000000	1.202456
5834.000000	1.202089
5832.000000	1.203431
5830.000000	1.205288
5828.000000	1.205593
5826.000000	1.204948
5824.000000	1.203885
5822.000000	1.203814
5820.000000	1.204516
5818.000000	1.204733
5816.000000	1.203847
5814.000000	1.202735
5812.000000	1.202841
5810.000000	1.203495
5808.000000	1.204038
5806.000000	1.203954
5804.000000	1.203700
5802.000000	1.203687
5800.000000	1.203493
5798.000000	1.203468
5796.000000	1.203665
5794.000000	1.203804
5792.000000	1.204322
5790.000000	1.204738
5788.000000	1.204709
5786.000000	1.204279
5784.000000	1.203662
5782.000000	1.203527
5780.000000	1.203742
5778.000000	1.203886
5776.000000	1.203877
5774.000000	1.203802
5772.000000	1.203752
5770.000000	1.203783
5768.000000	1.203953
5766.000000	1.204135
5764.000000	1.204041
5762.000000	1.203733
5760.000000	1.203367
5758.000000	1.203357
5756.000000	1.203000
5754.000000	1.201771
5752.000000	1.201303
5750.000000	1.201968
5748.000000	1.203387
5746.000000	1.203917
5744.000000	1.203427
5742.000000	1.203085
5740.000000	1.203004
5738.000000	1.203030
5736.000000	1.202916
5734.000000	1.202834
5732.000000	1.202658
5730.000000	1.202413
5728.000000	1.202307
5726.000000	1.202428
5724.000000	1.202864
5722.000000	1.203265
5720.000000	1.203410
5718.000000	1.203180
5716.000000	1.202790
5714.000000	1.202579
5712.000000	1.202759
5710.000000	1.202514
5708.000000	1.202019
5706.000000	1.201772
5704.000000	1.202095
5702.000000	1.202754
5700.000000	1.203040
5698.000000	1.203042
5696.000000	1.202999
5694.000000	1.202812
5692.000000	1.202928
5690.000000	1.202931
5688.000000	1.202736
5686.000000	1.202423
5684.000000	1.202301
5682.000000	1.202390
5680.000000	1.202433
5678.000000	1.202467
5676.000000	1.202182
5674.000000	1.201331
5672.000000	1.200721
5670.000000	1.200670
5668.000000	1.201241
5666.000000	1.201662
5664.000000	1.201886
5662.000000	1.202060
5660.000000	1.202001
5658.000000	1.201985
5656.000000	1.201940
5654.000000	1.201982
5652.000000	1.201908
5650.000000	1.201832
5648.000000	1.201912
5646.000000	1.201712
5644.000000	1.201280
5642.000000	1.201073
5640.000000	1.201484
5638.000000	1.201929
5636.000000	1.201713
5634.000000	1.201217
5632.000000	1.201437
5630.000000	1.201595
5628.000000	1.201494
5626.000000	1.201546
5624.000000	1.201819
5622.000000	1.202234
5620.000000	1.201808
5618.000000	1.201530
5616.000000	1.201457
5614.000000	1.201391
5612.000000	1.201387
5610.000000	1.201726
5608.000000	1.202527
5606.000000	1.202525
5604.000000	1.201940
5602.000000	1.201543
5600.000000	1.201557
5598.000000	1.201533
5596.000000	1.201235
5594.000000	1.200974
5592.000000	1.200609
5590.000000	1.199974
5588.000000	1.200089
5586.000000	1.200413
5584.000000	1.200869
5582.000000	1.200827
5580.000000	1.200724
5578.000000	1.200754
5576.000000	1.200624
5574.000000	1.200664
5572.000000	1.200856
5570.000000	1.201387
5568.000000	1.201887
5566.000000	1.202086
5564.000000	1.202045
5562.000000	1.201789
5560.000000	1.201331
5558.000000	1.200589
5556.000000	1.200294
5554.000000	1.200380
5552.000000	1.200921
5550.000000	1.200965
5548.000000	1.200686
5546.000000	1.200483
5544.000000	1.200697
5542.000000	1.201144
5540.000000	1.200970
5538.000000	1.200592
5536.000000	1.200430
5534.000000	1.200511
5532.000000	1.200624
5530.000000	1.200672
5528.000000	1.200655
5526.000000	1.200684
5524.000000	1.200344
5522.000000	1.200116
5520.000000	1.199599
5518.000000	1.199159
5516.000000	1.199321
5514.000000	1.199902
5512.000000	1.200434
5510.000000	1.200451
5508.000000	1.200376
5506.000000	1.200105
5504.000000	1.199952
5502.000000	1.200251
5500.000000	1.200610
5498.000000	1.200484
5496.000000	1.199852
5494.000000	1.199450
5492.000000	1.199443
5490.000000	1.199410
5488.000000	1.199298
5486.000000	1.199381
5484.000000	1.199910
5482.000000	1.199897
5480.000000	1.199319
5478.000000	1.198598
5476.000000	1.198767
5474.000000	1.199169
5472.000000	1.199703
5470.000000	1.199919
5468.000000	1.199590
5466.000000	1.198874
5464.000000	1.199083
5462.000000	1.199773
5460.000000	1.200174
5458.000000	1.199938
5456.000000	1.199847
5454.000000	1.199921
5452.000000	1.199370
5450.000000	1.198292
5448.000000	1.197239
5446.000000	1.197312
5444.000000	1.197810
5442.000000	1.198325
5440.000000	1.198611
5438.000000	1.198801
5436.000000	1.198833
5434.000000	1.198467
5432.000000	1.199133
5430.000000	1.200620
5428.000000	1.201376
5426.000000	1.200786
5424.000000	1.202928
5422.000000	1.206854
5420.000000	1.207205
5418.000000	1.201931
5416.000000	1.197085
5414.000000	1.197155
5412.000000	1.198916
5410.000000	1.199678
5408.000000	1.199505
5406.000000	1.199331
5404.000000	1.199163
5402.000000	1.199263
5400.000000	1.199228
5398.000000	1.198779
5396.000000	1.198051
5394.000000	1.198127
5392.000000	1.198550
5390.000000	1.198318
5388.000000	1.197348
5386.000000	1.197067
5384.000000	1.197904
5382.000000	1.198546
5380.000000	1.198477
5378.000000	1.198614
5376.000000	1.198908
5374.000000	1.198930
5372.000000	1.198529
5370.000000	1.198469
5368.000000	1.198194
5366.000000	1.197759
5364.000000	1.197736
5362.000000	1.198212
5360.000000	1.198655
5358.000000	1.198466
5356.000000	1.197849
5354.000000	1.197316
5352.000000	1.197072
5350.000000	1.196879
5348.000000	1.196578
5346.000000	1.196657
5344.000000	1.197245
5342.000000	1.197646
5340.000000	1.197546
5338.000000	1.197168
5336.000000	1.197325
5334.000000	1.197883
5332.000000	1.198184
5330.000000	1.198143
5328.000000	1.198062
5326.000000	1.198417
5324.000000	1.198555
5322.000000	1.198417
5320.000000	1.198019
5318.000000	1.197720
5316.000000	1.197971
5314.000000	1.198191
5312.000000	1.198239
5310.000000	1.198093
5308.000000	1.198143
5306.000000	1.198337
5304.000000	1.198297
5302.000000	1.198251
5300.000000	1.198027
5298.000000	1.197799
5296.000000	1.197287
5294.000000	1.196633
5292.000000	1.196168
5290.000000	1.196679
5288.000000	1.197388
5286.000000	1.197755
5284.000000	1.197562
5282.000000	1.197539
5280.000000	1.197590
5278.000000	1.197655
5276.000000	1.197485
5274.000000	1.197282
5272.000000	1.197382
5270.000000	1.197604
5268.000000	1.197250
5266.000000	1.196519
5264.000000	1.196632
5262.000000	1.197403
5260.000000	1.197815
5258.000000	1.197189
5256.000000	1.196202
5254.000000	1.195873
5252.000000	1.196168
5250.000000	1.196654
5248.000000	1.197074
5246.000000	1.197453
5244.000000	1.197661
5242.000000	1.197537
5240.000000	1.197570
5238.000000	1.197603
5236.000000	1.197347
5234.000000	1.196950
5232.000000	1.196781
5230.000000	1.196792
5228.000000	1.196928
5226.000000	1.197228
5224.000000	1.197423
5222.000000	1.197180
5220.000000	1.196854
5218.000000	1.196907
5216.000000	1.197069
5214.000000	1.196968
5212.000000	1.196744
5210.000000	1.196524
5208.000000	1.196462
5206.000000	1.196830
5204.000000	1.197341
5202.000000	1.197256
5200.000000	1.196637
5198.000000	1.196377
5196.000000	1.196628
5194.000000	1.196987
5192.000000	1.197106
5190.000000	1.197103
5188.000000	1.197028
5186.000000	1.196895
5184.000000	1.196648
5182.000000	1.196458
5180.000000	1.196487
5178.000000	1.196683
5176.000000	1.196728
5174.000000	1.196561
5172.000000	1.196057
5170.000000	1.195641
5168.000000	1.195740
5166.000000	1.196242
5164.000000	1.196560
5162.000000	1.196566
5160.000000	1.196622
5158.000000	1.196669
5156.000000	1.196721
5154.000000	1.196786
5152.000000	1.196689
5150.000000	1.196510
5148.000000	1.196448
5146.000000	1.196543
5144.000000	1.196695
5142.000000	1.196829
5140.000000	1.196982
5138.000000	1.197092
5136.000000	1.197218
5134.000000	1.197225
5132.000000	1.197126
5130.000000	1.196870
5128.000000	1.196644
5126.000000	1.196662
5124.000000	1.196877
5122.000000	1.196969
5120.000000	1.196722
5118.000000	1.196504
5116.000000	1.196348
5114.000000	1.196324
5112.000000	1.196515
5110.000000	1.196797
5108.000000	1.196916
5106.000000	1.196663
5104.000000	1.196414
5102.000000	1.196442
5100.000000	1.196550
5098.000000	1.196530
5096.000000	1.196529
5094.000000	1.196662
5092.000000	1.196726
5090.000000	1.196560
5088.000000	1.196090
5086.000000	1.195830
5084.000000	1.196050
5082.000000	1.196389
5080.000000	1.196429
5078.000000	1.196458
5076.000000	1.196672
5074.000000	1.196825
5072.000000	1.196807
5070.000000	1.196726
5068.000000	1.196623
5066.000000	1.196720
5064.000000	1.196956
5062.000000	1.196987
5060.000000	1.196774
5058.000000	1.196532
5056.000000	1.196412
5054.000000	1.196353
5052.000000	1.196403
5050.000000	1.196632
5048.000000	1.196873
5046.000000	1.196845
5044.000000	1.196652
5042.000000	1.196564
5040.000000	1.196757
5038.000000	1.196945
5036.000000	1.196927
5034.000000	1.196674
5032.000000	1.196458
5030.000000	1.196407
5028.000000	1.196459
5026.000000	1.196591
5024.000000	1.196728
5022.000000	1.196852
5020.000000	1.196705
5018.000000	1.196332
5016.000000	1.196176
5014.000000	1.196598
5012.000000	1.197135
5010.000000	1.197176
5008.000000	1.196762
5006.000000	1.196232
5004.000000	1.195850
5002.000000	1.195894
5000.000000	1.196229
4998.000000	1.196763
4996.000000	1.197120
4994.000000	1.197087
4992.000000	1.196802
4990.000000	1.196597
4988.000000	1.196568
4986.000000	1.196730
4984.000000	1.196848
4982.000000	1.196682
4980.000000	1.196484
4978.000000	1.196514
4976.000000	1.196488
4974.000000	1.196321
4972.000000	1.196513
4970.000000	1.196883
4968.000000	1.196999
4966.000000	1.196719
4964.000000	1.196537
4962.000000	1.196495
4960.000000	1.196513
4958.000000	1.196554
4956.000000	1.196713
4954.000000	1.196848
4952.000000	1.196847
4950.000000	1.196685
4948.000000	1.196499
4946.000000	1.196474
4944.000000	1.196663
4942.000000	1.196743
4940.000000	1.196595
4938.000000	1.196445
4936.000000	1.196563
4934.000000	1.196640
4932.000000	1.196541
4930.000000	1.196478
4928.000000	1.196615
4926.000000	1.196608
4924.000000	1.196410
4922.000000	1.196258
4920.000000	1.196267
4918.000000	1.196347
4916.000000	1.196477
4914.000000	1.196628
4912.000000	1.196584
4910.000000	1.196564
4908.000000	1.196721
4906.000000	1.196849
4904.000000	1.196718
4902.000000	1.196586
4900.000000	1.196609
4898.000000	1.196624
4896.000000	1.196586
4894.000000	1.196654
4892.000000	1.196732
4890.000000	1.196775
4888.000000	1.196801
4886.000000	1.196870
4884.000000	1.196835
4882.000000	1.196673
4880.000000	1.196610
4878.000000	1.196657
4876.000000	1.196668
4874.000000	1.196633
4872.000000	1.196697
4870.000000	1.196793
4868.000000	1.196831
4866.000000	1.196852
4864.000000	1.196879
4862.000000	1.196853
4860.000000	1.196769
4858.000000	1.196631
4856.000000	1.196588
4854.000000	1.196672
4852.000000	1.196887
4850.000000	1.196961
4848.000000	1.196816
4846.000000	1.196604
4844.000000	1.196608
4842.000000	1.196656
4840.000000	1.196601
4838.000000	1.196473
4836.000000	1.196525
4834.000000	1.196687
4832.000000	1.196776
4830.000000	1.196818
4828.000000	1.196889
4826.000000	1.196870
4824.000000	1.196726
4822.000000	1.196763
4820.000000	1.196898
4818.000000	1.196864
4816.000000	1.196639
4814.000000	1.196517
4812.000000	1.196507
4810.000000	1.196532
4808.000000	1.196522
4806.000000	1.196500
4804.000000	1.196436
4802.000000	1.196505
4800.000000	1.196669
4798.000000	1.196727
4796.000000	1.196625
4794.000000	1.196567
4792.000000	1.196524
4790.000000	1.196489
4788.000000	1.196530
4786.000000	1.196588
4784.000000	1.196594
4782.000000	1.196597
4780.000000	1.196592
4778.000000	1.196632
4776.000000	1.196712
4774.000000	1.196653
4772.000000	1.196535
4770.000000	1.196539
4768.000000	1.196615
4766.000000	1.196769
4764.000000	1.196884
4762.000000	1.196747
4760.000000	1.196489
4758.000000	1.196448
4756.000000	1.196479
4754.000000	1.196453
4752.000000	1.196593
4750.000000	1.196755
4748.000000	1.196741
4746.000000	1.196639
4744.000000	1.196604
4742.000000	1.196422
4740.000000	1.196254
4738.000000	1.196354
4736.000000	1.196616
4734.000000	1.196767
4732.000000	1.196658
4730.000000	1.196445
4728.000000	1.196361
4726.000000	1.196357
4724.000000	1.196308
4722.000000	1.196364
4720.000000	1.196605
4718.000000	1.196761
4716.000000	1.196690
4714.000000	1.196573
4712.000000	1.196497
4710.000000	1.196397
4708.000000	1.196287
4706.000000	1.196326
4704.000000	1.196460
4702.000000	1.196498
4700.000000	1.196343
4698.000000	1.196220
4696.000000	1.196279
4694.000000	1.196384
4692.000000	1.196380
4690.000000	1.196392
4688.000000	1.196368
4686.000000	1.196276
4684.000000	1.196293
4682.000000	1.196387
4680.000000	1.196368
4678.000000	1.196331
4676.000000	1.196406
4674.000000	1.196375
4672.000000	1.196335
4670.000000	1.196493
4668.000000	1.196702
4666.000000	1.196773
4664.000000	1.196704
4662.000000	1.196529
4660.000000	1.196348
4658.000000	1.196346
4656.000000	1.196459
4654.000000	1.196569
4652.000000	1.196685
4650.000000	1.196792
4648.000000	1.196798
4646.000000	1.196677
4644.000000	1.196554
4642.000000	1.196438
4640.000000	1.196456
4638.000000	1.196573
4636.000000	1.196578
4634.000000	1.196447
4632.000000	1.196434
4630.000000	1.196488
4628.000000	1.196427
4626.000000	1.196363
4624.000000	1.196424
4622.000000	1.196525
4620.000000	1.196564
4618.000000	1.196522
4616.000000	1.196405
4614.000000	1.196361
4612.000000	1.196347
4610.000000	1.196262
4608.000000	1.196309
4606.000000	1.196544
4604.000000	1.196641
4602.000000	1.196570
4600.000000	1.196534
4598.000000	1.196532
4596.000000	1.196456
4594.000000	1.196393
4592.000000	1.196403
4590.000000	1.196370
4588.000000	1.196368
4586.000000	1.196471
4584.000000	1.196497
4582.000000	1.196390
4580.000000	1.196352
4578.000000	1.196359
4576.000000	1.196391
4574.000000	1.196453
4572.000000	1.196398
4570.000000	1.196297
4568.000000	1.196440
4566.000000	1.196700
4564.000000	1.196683
4562.000000	1.196493
4560.000000	1.196447
4558.000000	1.196487
4556.000000	1.196493
4554.000000	1.196527
4552.000000	1.196680
4550.000000	1.196863
4548.000000	1.196882
4546.000000	1.196677
4544.000000	1.196461
4542.000000	1.196420
4540.000000	1.196410
4538.000000	1.196338
4536.000000	1.196390
4534.000000	1.196542
4532.000000	1.196572
4530.000000	1.196503
4528.000000	1.196391
4526.000000	1.196343
4524.000000	1.196319
4522.000000	1.196298
4520.000000	1.196281
4518.000000	1.196337
4516.000000	1.196363
4514.000000	1.196352
4512.000000	1.196273
4510.000000	1.196235
4508.000000	1.196262
4506.000000	1.196301
4504.000000	1.196273
4502.000000	1.196186
4500.000000	1.196159
4498.000000	1.196162
4496.000000	1.196161
4494.000000	1.196211
4492.000000	1.196251
4490.000000	1.196239
4488.000000	1.196241
4486.000000	1.196188
4484.000000	1.196093
4482.000000	1.196172
4480.000000	1.196462
4478.000000	1.196563
4476.000000	1.196261
4474.000000	1.196005
4472.000000	1.196104
4470.000000	1.196298
4468.000000	1.196424
4466.000000	1.196522
4464.000000	1.196649
4462.000000	1.196688
4460.000000	1.196600
4458.000000	1.196473
4456.000000	1.196379
4454.000000	1.196296
4452.000000	1.196252
4450.000000	1.196220
4448.000000	1.196209
4446.000000	1.196261
4444.000000	1.196573
4442.000000	1.196909
4440.000000	1.196739
4438.000000	1.196363
4436.000000	1.196276
4434.000000	1.196245
4432.000000	1.196081
4430.000000	1.196108
4428.000000	1.196402
4426.000000	1.196615
4424.000000	1.196471
4422.000000	1.196219
4420.000000	1.196111
4418.000000	1.196187
4416.000000	1.196204
4414.000000	1.196000
4412.000000	1.195752
4410.000000	1.195733
4408.000000	1.195841
4406.000000	1.195930
4404.000000	1.196013
4402.000000	1.196310
4400.000000	1.196713
4398.000000	1.196719
4396.000000	1.196226
4394.000000	1.195872
4392.000000	1.195893
4390.000000	1.195948
4388.000000	1.196041
4386.000000	1.196268
4384.000000	1.196294
4382.000000	1.196148
4380.000000	1.196152
4378.000000	1.196219
4376.000000	1.196240
4374.000000	1.196298
4372.000000	1.196214
4370.000000	1.195906
4368.000000	1.195817
4366.000000	1.196172
4364.000000	1.196525
4362.000000	1.196588
4360.000000	1.196552
4358.000000	1.196511
4356.000000	1.196406
4354.000000	1.196298
4352.000000	1.196412
4350.000000	1.196791
4348.000000	1.197013
4346.000000	1.196727
4344.000000	1.196017
4342.000000	1.195165
4340.000000	1.194573
4338.000000	1.194751
4336.000000	1.195376
4334.000000	1.195868
4332.000000	1.196251
4330.000000	1.196556
4328.000000	1.196489
4326.000000	1.196185
4324.000000	1.195905
4322.000000	1.195872
4320.000000	1.195994
4318.000000	1.195851
4316.000000	1.195450
4314.000000	1.195343
4312.000000	1.195522
4310.000000	1.195620
4308.000000	1.195612
4306.000000	1.195735
4304.000000	1.195997
4302.000000	1.196151
4300.000000	1.196049
4298.000000	1.196039
4296.000000	1.196175
4294.000000	1.196278
4292.000000	1.196277
4290.000000	1.196171
4288.000000	1.196042
4286.000000	1.195994
4284.000000	1.195928
4282.000000	1.195706
4280.000000	1.195479
4278.000000	1.195477
4276.000000	1.195541
4274.000000	1.195296
4272.000000	1.194928
4270.000000	1.195045
4268.000000	1.195487
4266.000000	1.195615
4264.000000	1.195561
4262.000000	1.195731
4260.000000	1.195985
4258.000000	1.195962
4256.000000	1.195654
4254.000000	1.195535
4252.000000	1.195753
4250.000000	1.195919
4248.000000	1.195706
4246.000000	1.195331
4244.000000	1.195179
4242.000000	1.195305
4240.000000	1.195464
4238.000000	1.195345
4236.000000	1.195200
4234.000000	1.195224
4232.000000	1.195107
4230.000000	1.194892
4228.000000	1.194977
4226.000000	1.195179
4224.000000	1.195145
4222.000000	1.195077
4220.000000	1.195195
4218.000000	1.195310
4216.000000	1.195359
4214.000000	1.195377
4212.000000	1.195275
4210.000000	1.195119
4208.000000	1.195077
4206.000000	1.195043
4204.000000	1.194993
4202.000000	1.195099
4200.000000	1.195265
4198.000000	1.195349
4196.000000	1.195289
4194.000000	1.195052
4192.000000	1.194939
4190.000000	1.195080
4188.000000	1.195117
4186.000000	1.194897
4184.000000	1.194778
4182.000000	1.194886
4180.000000	1.194968
4178.000000	1.195013
4176.000000	1.195050
4174.000000	1.195064
4172.000000	1.195092
4170.000000	1.195041
4168.000000	1.194813
4166.000000	1.194641
4164.000000	1.194657
4162.000000	1.194714
4160.000000	1.194749
4158.000000	1.194794
4156.000000	1.194692
4154.000000	1.194516
4152.000000	1.194543
4150.000000	1.194634
4148.000000	1.194534
4146.000000	1.194462
4144.000000	1.194525
4142.000000	1.194505
4140.000000	1.194439
4138.000000	1.194401
4136.000000	1.194359
4134.000000	1.194356
4132.000000	1.194449
4130.000000	1.194596
4128.000000	1.194678
4126.000000	1.194505
4124.000000	1.194174
4122.000000	1.194069
4120.000000	1.194146
4118.000000	1.194041
4116.000000	1.193873
4114.000000	1.193848
4112.000000	1.193963
4110.000000	1.194032
4108.000000	1.194076
4106.000000	1.194182
4104.000000	1.194189
4102.000000	1.194110
4100.000000	1.194104
4098.000000	1.194023
4096.000000	1.193911
4094.000000	1.193873
4092.000000	1.193960
4090.000000	1.194093
4088.000000	1.194061
4086.000000	1.193907
4084.000000	1.193805
4082.000000	1.193757
4080.000000	1.193743
4078.000000	1.193689
4076.000000	1.193627
4074.000000	1.193622
4072.000000	1.193606
4070.000000	1.193541
4068.000000	1.193512
4066.000000	1.193481
4064.000000	1.193450
4062.000000	1.193577
4060.000000	1.193728
4058.000000	1.193764
4056.000000	1.193694
4054.000000	1.193478
4052.000000	1.193234
4050.000000	1.193171
4048.000000	1.193237
4046.000000	1.193203
4044.000000	1.193134
4042.000000	1.193182
4040.000000	1.193165
4038.000000	1.193026
4036.000000	1.192910
4034.000000	1.192860
4032.000000	1.192962
4030.000000	1.193104
4028.000000	1.193072
4026.000000	1.193015
4024.000000	1.193006
4022.000000	1.192801
4020.000000	1.192450
4018.000000	1.192332
4016.000000	1.192581
4014.000000	1.192898
4012.000000	1.192890
4010.000000	1.192669
4008.000000	1.192500
4006.000000	1.192128
4004.000000	1.192086
4002.000000	1.192559
4000.000000	1.192404
3998.000000	1.192128
3996.000000	1.192505
3994.000000	1.192632
3992.000000	1.192310
3990.000000	1.192079
3988.000000	1.192096
3986.000000	1.192311
3984.000000	1.192471
3982.000000	1.192337
3980.000000	1.192131
3978.000000	1.192017
3976.000000	1.191911
3974.000000	1.191962
3972.000000	1.192214
3970.000000	1.192329
3968.000000	1.192138
3966.000000	1.191951
3964.000000	1.191847
3962.000000	1.191800
3960.000000	1.191867
3958.000000	1.191849
3956.000000	1.191690
3954.000000	1.191387
3952.000000	1.191045
3950.000000	1.191018
3948.000000	1.191222
3946.000000	1.191279
3944.000000	1.191260
3942.000000	1.191543
3940.000000	1.191699
3938.000000	1.191402
3936.000000	1.190889
3934.000000	1.190407
3932.000000	1.190614
3930.000000	1.191252
3928.000000	1.191060
3926.000000	1.190451
3924.000000	1.190355
3922.000000	1.190287
3920.000000	1.189857
3918.000000	1.189842
3916.000000	1.190588
3914.000000	1.191052
3912.000000	1.190755
3910.000000	1.190300
3908.000000	1.189205
3906.000000	1.187518
3904.000000	1.186976
3902.000000	1.187816
3900.000000	1.189243
3898.000000	1.190796
3896.000000	1.190721
3894.000000	1.188817
3892.000000	1.188199
3890.000000	1.189121
3888.000000	1.188187
3886.000000	1.187588
3884.000000	1.189152
3882.000000	1.189348
3880.000000	1.189258
3878.000000	1.189672
3876.000000	1.188779
3874.000000	1.187535
3872.000000	1.186081
3870.000000	1.186338
3868.000000	1.188093
3866.000000	1.187895
3864.000000	1.187949
3862.000000	1.189342
3860.000000	1.189382
3858.000000	1.185714
3856.000000	1.178953
3854.000000	1.178518
3852.000000	1.186852
3850.000000	1.192007
3848.000000	1.190706
3846.000000	1.188473
3844.000000	1.187237
3842.000000	1.185770
3840.000000	1.183423
3838.000000	1.183889
3836.000000	1.187428
3834.000000	1.188791
3832.000000	1.188459
3830.000000	1.188698
3828.000000	1.188489
3826.000000	1.187744
3824.000000	1.185646
3822.000000	1.184428
3820.000000	1.185928
3818.000000	1.185402
3816.000000	1.185670
3814.000000	1.189392
3812.000000	1.189832
3810.000000	1.186513
3808.000000	1.184749
3806.000000	1.185991
3804.000000	1.185032
3802.000000	1.183717
3800.000000	1.186852
3798.000000	1.188717
3796.000000	1.188344
3794.000000	1.188739
3792.000000	1.188647
3790.000000	1.188236
3788.000000	1.188037
3786.000000	1.187925
3784.000000	1.187854
3782.000000	1.187259
3780.000000	1.186992
3778.000000	1.188001
3776.000000	1.188618
3774.000000	1.187728
3772.000000	1.186264
3770.000000	1.186189
3768.000000	1.187025
3766.000000	1.187330
3764.000000	1.187413
3762.000000	1.186548
3760.000000	1.185714
3758.000000	1.186181
3756.000000	1.184896
3754.000000	1.180835
3752.000000	1.178961
3750.000000	1.181584
3748.000000	1.182379
3746.000000	1.179188
3744.000000	1.181932
3742.000000	1.187798
3740.000000	1.186100
3738.000000	1.181953
3736.000000	1.181669
3734.000000	1.183425
3732.000000	1.185308
3730.000000	1.186580
3728.000000	1.185835
3726.000000	1.185149
3724.000000	1.185441
3722.000000	1.185653
3720.000000	1.185953
3718.000000	1.185859
3716.000000	1.184311
3714.000000	1.181803
3712.000000	1.181815
3710.000000	1.184639
3708.000000	1.186482
3706.000000	1.186110
3704.000000	1.184730
3702.000000	1.184416
3700.000000	1.185512
3698.000000	1.186039
3696.000000	1.185552
3694.000000	1.183957
3692.000000	1.181077
3690.000000	1.179435
3688.000000	1.182405
3686.000000	1.186276
3684.000000	1.186143
3682.000000	1.184422
3680.000000	1.182323
3678.000000	1.178804
3676.000000	1.178237
3674.000000	1.181010
3672.000000	1.180529
3670.000000	1.181024
3668.000000	1.184531
3666.000000	1.185300
3664.000000	1.184321
3662.000000	1.183734
3660.000000	1.182612
3658.000000	1.181088
3656.000000	1.181582
3654.000000	1.181632
3652.000000	1.178105
3650.000000	1.176669
3648.000000	1.180296
3646.000000	1.183426
3644.000000	1.183495
3642.000000	1.182845
3640.000000	1.182554
3638.000000	1.182231
3636.000000	1.181630
3634.000000	1.180660
3632.000000	1.177969
3630.000000	1.175923
3628.000000	1.179110
3626.000000	1.182560
3624.000000	1.181825
3622.000000	1.179525
3620.000000	1.178581
3618.000000	1.179810
3616.000000	1.180290
3614.000000	1.179352
3612.000000	1.178791
3610.000000	1.178671
3608.000000	1.179783
3606.000000	1.181117
3604.000000	1.180811
3602.000000	1.180052
3600.000000	1.179946
3598.000000	1.179724
3596.000000	1.179309
3594.000000	1.179495
3592.000000	1.179334
3590.000000	1.178080
3588.000000	1.177998
3586.000000	1.179702
3584.000000	1.180454
3582.000000	1.179962
3580.000000	1.179579
3578.000000	1.179460
3576.000000	1.179442
3574.000000	1.179467
3572.000000	1.179056
3570.000000	1.177643
3568.000000	1.176886
3566.000000	1.178178
3564.000000	1.179378
3562.000000	1.179369
3560.000000	1.179192
3558.000000	1.179193
3556.000000	1.179115
3554.000000	1.178936
3552.000000	1.179051
3550.000000	1.179080
3548.000000	1.178568
3546.000000	1.178470
3544.000000	1.179019
3542.000000	1.179451
3540.000000	1.179506
3538.000000	1.179413
3536.000000	1.179427
3534.000000	1.179506
3532.000000	1.179437
3530.000000	1.179226
3528.000000	1.179188
3526.000000	1.179320
3524.000000	1.179497
3522.000000	1.179763
3520.000000	1.179886
3518.000000	1.180001
3516.000000	1.180251
3514.000000	1.180279
3512.000000	1.180162
3510.000000	1.180317
3508.000000	1.180533
3506.000000	1.180616
3504.000000	1.180869
3502.000000	1.181345
3500.000000	1.181504
3498.000000	1.181340
3496.000000	1.181362
3494.000000	1.181598
3492.000000	1.181853
3490.000000	1.182180
3488.000000	1.182551
3486.000000	1.182769
3484.000000	1.182752
3482.000000	1.182953
3480.000000	1.183425
3478.000000	1.183774
3476.000000	1.184009
3474.000000	1.184308
3472.000000	1.184654
3470.000000	1.184940
3468.000000	1.185188
3466.000000	1.185573
3464.000000	1.186020
3462.000000	1.186366
3460.000000	1.186590
3458.000000	1.186811
3456.000000	1.187281
3454.000000	1.187702
3452.000000	1.187975
3450.000000	1.188319
3448.000000	1.188663
3446.000000	1.189133
3444.000000	1.189593
3442.000000	1.190015
3440.000000	1.190587
3438.000000	1.191125
3436.000000	1.191513
3434.000000	1.191927
3432.000000	1.192466
3430.000000	1.192960
3428.000000	1.193407
3426.000000	1.193827
3424.000000	1.194170
3422.000000	1.194438
3420.000000	1.194706
3418.000000	1.195066
3416.000000	1.195321
3414.000000	1.195534
3412.000000	1.195710
3410.000000	1.195873
3408.000000	1.196225
3406.000000	1.196540
3404.000000	1.196723
3402.000000	1.196778
3400.000000	1.196932
3398.000000	1.197314
3396.000000	1.197648
3394.000000	1.197911
3392.000000	1.198020
3390.000000	1.198087
3388.000000	1.198367
3386.000000	1.198556
3384.000000	1.198631
3382.000000	1.198756
3380.000000	1.198970
3378.000000	1.199007
3376.000000	1.198825
3374.000000	1.199015
3372.000000	1.199258
3370.000000	1.199264
3368.000000	1.199387
3366.000000	1.199591
3364.000000	1.199682
3362.000000	1.199750
3360.000000	1.199866
3358.000000	1.199960
3356.000000	1.200094
3354.000000	1.200295
3352.000000	1.200232
3350.000000	1.200268
3348.000000	1.200415
3346.000000	1.200406
3344.000000	1.200482
3342.000000	1.200597
3340.000000	1.200515
3338.000000	1.200380
3336.000000	1.200593
3334.000000	1.200858
3332.000000	1.200828
3330.000000	1.200765
3328.000000	1.200721
3326.000000	1.200887
3324.000000	1.201103
3322.000000	1.201210
3320.000000	1.201292
3318.000000	1.201451
3316.000000	1.201658
3314.000000	1.201568
3312.000000	1.201559
3310.000000	1.201562
3308.000000	1.201367
3306.000000	1.201395
3304.000000	1.201529
3302.000000	1.201621
3300.000000	1.201648
3298.000000	1.201549
3296.000000	1.201247
3294.000000	1.201348
3292.000000	1.201814
3290.000000	1.201939
3288.000000	1.201873
3286.000000	1.201917
3284.000000	1.202169
3282.000000	1.202519
3280.000000	1.202622
3278.000000	1.202268
3276.000000	1.202196
3274.000000	1.202640
3272.000000	1.202819
3270.000000	1.202820
3268.000000	1.202833
3266.000000	1.202716
3264.000000	1.202634
3262.000000	1.202455
3260.000000	1.201764
3258.000000	1.201417
3256.000000	1.202770
3254.000000	1.203994
3252.000000	1.202076
3250.000000	1.201386
3248.000000	1.202729
3246.000000	1.203226
3244.000000	1.203341
3242.000000	1.203188
3240.000000	1.203108
3238.000000	1.203330
3236.000000	1.203476
3234.000000	1.203440
3232.000000	1.203556
3230.000000	1.203647
3228.000000	1.203609
3226.000000	1.203571
3224.000000	1.203678
3222.000000	1.204005
3220.000000	1.204314
3218.000000	1.204331
3216.000000	1.204137
3214.000000	1.203925
3212.000000	1.203881
3210.000000	1.203817
3208.000000	1.203854
3206.000000	1.204033
3204.000000	1.204222
3202.000000	1.204404
3200.000000	1.204500
3198.000000	1.204582
3196.000000	1.204593
3194.000000	1.204537
3192.000000	1.204487
3190.000000	1.204215
3188.000000	1.204047
3186.000000	1.204225
3184.000000	1.204457
3182.000000	1.204604
3180.000000	1.204764
3178.000000	1.205037
3176.000000	1.205110
3174.000000	1.204887
3172.000000	1.204629
3170.000000	1.204581
3168.000000	1.204786
3166.000000	1.204883
3164.000000	1.204935
3162.000000	1.205001
3160.000000	1.205069
3158.000000	1.205073
3156.000000	1.205056
3154.000000	1.205095
3152.000000	1.205178
3150.000000	1.205262
3148.000000	1.205255
3146.000000	1.205136
3144.000000	1.205059
3142.000000	1.205316
3140.000000	1.205564
3138.000000	1.205404
3136.000000	1.205303
3134.000000	1.205497
3132.000000	1.205826
3130.000000	1.205729
3128.000000	1.205708
3126.000000	1.206111
3124.000000	1.206191
3122.000000	1.205979
3120.000000	1.205952
3118.000000	1.205923
3116.000000	1.205942
3114.000000	1.206018
3112.000000	1.206038
3110.000000	1.206137
3108.000000	1.206242
3106.000000	1.206162
3104.000000	1.205836
3102.000000	1.205677
3100.000000	1.205786
3098.000000	1.205961
3096.000000	1.206121
3094.000000	1.206119
3092.000000	1.205908
3090.000000	1.205753
3088.000000	1.205684
3086.000000	1.205521
3084.000000	1.205487
3082.000000	1.205461
3080.000000	1.205385
3078.000000	1.205446
3076.000000	1.205411
3074.000000	1.205233
3072.000000	1.205097
3070.000000	1.204940
3068.000000	1.205000
3066.000000	1.205077
3064.000000	1.205043
3062.000000	1.205050
3060.000000	1.204985
3058.000000	1.204805
3056.000000	1.204771
3054.000000	1.204670
3052.000000	1.204546
3050.000000	1.204505
3048.000000	1.204444
3046.000000	1.204436
3044.000000	1.204342
3042.000000	1.204162
3040.000000	1.204268
3038.000000	1.204399
3036.000000	1.204234
3034.000000	1.204110
3032.000000	1.203962
3030.000000	1.203804
3028.000000	1.203733
3026.000000	1.203687
3024.000000	1.203917
3022.000000	1.204038
3020.000000	1.203816
3018.000000	1.203845
3016.000000	1.203960
3014.000000	1.204150
3012.000000	1.204383
3010.000000	1.204034
3008.000000	1.204055
3006.000000	1.204313
3004.000000	1.203334
3002.000000	1.202480
3000.000000	1.202883
2998.000000	1.203191
2996.000000	1.203282
2994.000000	1.203552
2992.000000	1.203366
2990.000000	1.202969
2988.000000	1.203004
2986.000000	1.203107
2984.000000	1.203285
2982.000000	1.203458
2980.000000	1.203269
2978.000000	1.203053
2976.000000	1.202934
2974.000000	1.202854
2972.000000	1.202917
2970.000000	1.202883
2968.000000	1.203212
2966.000000	1.203749
2964.000000	1.204410
2962.000000	1.205167
2960.000000	1.205565
2958.000000	1.205372
2956.000000	1.204933
2954.000000	1.204573
2952.000000	1.204100
2950.000000	1.203575
2948.000000	1.203056
2946.000000	1.202623
2944.000000	1.202395
2942.000000	1.202095
2940.000000	1.201881
2938.000000	1.201906
2936.000000	1.201807
2934.000000	1.201667
2932.000000	1.201682
2930.000000	1.201855
2928.000000	1.202091
2926.000000	1.202411
2924.000000	1.203081
2922.000000	1.204060
2920.000000	1.204842
2918.000000	1.204978
2916.000000	1.204890
2914.000000	1.204800
2912.000000	1.204537
2910.000000	1.204212
2908.000000	1.203877
2906.000000	1.203591
2904.000000	1.203402
2902.000000	1.203233
2900.000000	1.203195
2898.000000	1.203095
2896.000000	1.202895
2894.000000	1.202915
2892.000000	1.202980
2890.000000	1.202773
2888.000000	1.202647
2886.000000	1.202638
2884.000000	1.202342
2882.000000	1.202093
2880.000000	1.202206
2878.000000	1.202124
2876.000000	1.201608
2874.000000	1.201284
2872.000000	1.201194
2870.000000	1.200780
2868.000000	1.200401
2866.000000	1.200280
2864.000000	1.200405
2862.000000	1.200698
2860.000000	1.201146
2858.000000	1.201911
2856.000000	1.202559
2854.000000	1.202716
2852.000000	1.202700
2850.000000	1.202999
2848.000000	1.203408
2846.000000	1.203309
2844.000000	1.202827
2842.000000	1.202388
2840.000000	1.202161
2838.000000	1.202118
2836.000000	1.202193
2834.000000	1.202060
2832.000000	1.201985
2830.000000	1.201974
2828.000000	1.201945
2826.000000	1.201899
2824.000000	1.201793
2822.000000	1.201731
2820.000000	1.201750
2818.000000	1.201673
2816.000000	1.201584
2814.000000	1.201550
2812.000000	1.201532
2810.000000	1.201445
2808.000000	1.201447
2806.000000	1.201547
2804.000000	1.201613
2802.000000	1.201508
2800.000000	1.201287
2798.000000	1.201112
2796.000000	1.201013
2794.000000	1.201026
2792.000000	1.201086
2790.000000	1.201136
2788.000000	1.201223
2786.000000	1.201311
2784.000000	1.201195
2782.000000	1.201073
2780.000000	1.201106
2778.000000	1.201148
2776.000000	1.201227
2774.000000	1.201303
2772.000000	1.201371
2770.000000	1.201383
2768.000000	1.201261
2766.000000	1.201077
2764.000000	1.200987
2762.000000	1.201085
2760.000000	1.201038
2758.000000	1.200993
2756.000000	1.200989
2754.000000	1.200724
2752.000000	1.200551
2750.000000	1.200908
2748.000000	1.201188
2746.000000	1.201137
2744.000000	1.201081
2742.000000	1.201112
2740.000000	1.201146
2738.000000	1.201071
2736.000000	1.201021
2734.000000	1.201099
2732.000000	1.201233
2730.000000	1.201300
2728.000000	1.201262
2726.000000	1.201204
2724.000000	1.201218
2722.000000	1.201334
2720.000000	1.201477
2718.000000	1.201435
2716.000000	1.201344
2714.000000	1.201575
2712.000000	1.201782
2710.000000	1.201714
2708.000000	1.201663
2706.000000	1.201617
2704.000000	1.201770
2702.000000	1.202066
2700.000000	1.202286
2698.000000	1.202268
2696.000000	1.202112
2694.000000	1.202146
2692.000000	1.202244
2690.000000	1.202187
2688.000000	1.202300
2686.000000	1.202468
2684.000000	1.202500
2682.000000	1.202576
2680.000000	1.202637
2678.000000	1.202703
2676.000000	1.202616
2674.000000	1.202763
2672.000000	1.203127
2670.000000	1.203165
2668.000000	1.202892
2666.000000	1.202879
2664.000000	1.203016
2662.000000	1.203159
2660.000000	1.203448
2658.000000	1.203532
2656.000000	1.203557
2654.000000	1.203710
2652.000000	1.203850
2650.000000	1.203887
2648.000000	1.203939
2646.000000	1.204051
2644.000000	1.204177
2642.000000	1.204273
2640.000000	1.204288
2638.000000	1.204096
2636.000000	1.203850
2634.000000	1.203856
2632.000000	1.204004
2630.000000	1.204204
2628.000000	1.204518
2626.000000	1.204493
2624.000000	1.204420
2622.000000	1.204267
2620.000000	1.204164
2618.000000	1.204238
2616.000000	1.204365
2614.000000	1.204474
2612.000000	1.204456
2610.000000	1.204423
2608.000000	1.204383
2606.000000	1.204403
2604.000000	1.204408
2602.000000	1.204393
2600.000000	1.204442
2598.000000	1.204353
2596.000000	1.204371
2594.000000	1.204498
2592.000000	1.204631
2590.000000	1.204792
2588.000000	1.204958
2586.000000	1.205036
2584.000000	1.204923
2582.000000	1.204782
2580.000000	1.204810
2578.000000	1.204968
2576.000000	1.205053
2574.000000	1.204943
2572.000000	1.204875
2570.000000	1.204896
2568.000000	1.204841
2566.000000	1.204893
2564.000000	1.205016
2562.000000	1.205014
2560.000000	1.205083
2558.000000	1.204997
2556.000000	1.204749
2554.000000	1.204774
2552.000000	1.204887
2550.000000	1.204904
2548.000000	1.204840
2546.000000	1.204810
2544.000000	1.204901
2542.000000	1.204866
2540.000000	1.204812
2538.000000	1.204920
2536.000000	1.204990
2534.000000	1.204885
2532.000000	1.204883
2530.000000	1.204900
2528.000000	1.204954
2526.000000	1.204900
2524.000000	1.204776
2522.000000	1.204819
2520.000000	1.204851
2518.000000	1.204808
2516.000000	1.204844
2514.000000	1.204846
2512.000000	1.204839
2510.000000	1.204793
2508.000000	1.204766
2506.000000	1.204777
2504.000000	1.204907
2502.000000	1.205013
2500.000000	1.204835
2498.000000	1.204689
2496.000000	1.204716
2494.000000	1.204681
2492.000000	1.204678
2490.000000	1.204746
2488.000000	1.204808
2486.000000	1.204655
2484.000000	1.204625
2482.000000	1.204734
2480.000000	1.204789
2478.000000	1.204666
2476.000000	1.204519
2474.000000	1.204637
2472.000000	1.204774
2470.000000	1.204760
2468.000000	1.204713
2466.000000	1.204645
2464.000000	1.204642
2462.000000	1.204693
2460.000000	1.204706
2458.000000	1.204673
2456.000000	1.204626
2454.000000	1.204754
2452.000000	1.204910
2450.000000	1.205000
2448.000000	1.205018
2446.000000	1.204781
2444.000000	1.204541
2442.000000	1.204578
2440.000000	1.204588
2438.000000	1.204450
2436.000000	1.204514
2434.000000	1.204594
2432.000000	1.204680
2430.000000	1.204714
2428.000000	1.204569
2426.000000	1.204423
2424.000000	1.204560
2422.000000	1.204784
2420.000000	1.204854
2418.000000	1.204892
2416.000000	1.204877
2414.000000	1.204716
2412.000000	1.204729
2410.000000	1.204793
2408.000000	1.204822
2406.000000	1.204786
2404.000000	1.204745
2402.000000	1.204646
2400.000000	1.204639
2398.000000	1.204616
2396.000000	1.204561
2394.000000	1.204569
2392.000000	1.204601
2390.000000	1.204598
2388.000000	1.204542
2386.000000	1.204310
2384.000000	1.204065
2382.000000	1.203977
2380.000000	1.203952
2378.000000	1.203653
2376.000000	1.203074
2374.000000	1.202730
2372.000000	1.202616
2370.000000	1.202447
2368.000000	1.202119
2366.000000	1.201851
2364.000000	1.201852
2362.000000	1.202042
2360.000000	1.202247
2358.000000	1.202566
2356.000000	1.203104
2354.000000	1.203722
2352.000000	1.204024
2350.000000	1.203958
2348.000000	1.203391
2346.000000	1.202792
2344.000000	1.202925
2342.000000	1.203519
2340.000000	1.204225
2338.000000	1.204506
2336.000000	1.204232
2334.000000	1.203649
2332.000000	1.203273
2330.000000	1.203181
2328.000000	1.203178
2326.000000	1.203511
2324.000000	1.203776
2322.000000	1.203832
2320.000000	1.203957
2318.000000	1.204032
2316.000000	1.204057
2314.000000	1.204183
2312.000000	1.204468
2310.000000	1.204531
2308.000000	1.204361
2306.000000	1.204188
2304.000000	1.204250
2302.000000	1.204394
2300.000000	1.204475
2298.000000	1.204347
2296.000000	1.204349
2294.000000	1.204388
2292.000000	1.204415
2290.000000	1.204409
2288.000000	1.204501
2286.000000	1.204571
2284.000000	1.204444
2282.000000	1.204428
2280.000000	1.204607
2278.000000	1.204589
2276.000000	1.204322
2274.000000	1.204167
2272.000000	1.204368
2270.000000	1.204490
2268.000000	1.204410
2266.000000	1.204327
2264.000000	1.204348
2262.000000	1.204180
2260.000000	1.204099
2258.000000	1.204083
2256.000000	1.204027
2254.000000	1.203550
2252.000000	1.203140
2250.000000	1.203620
2248.000000	1.204136
2246.000000	1.204328
2244.000000	1.204250
2242.000000	1.204236
2240.000000	1.204114
2238.000000	1.203842
2236.000000	1.203792
2234.000000	1.203677
2232.000000	1.203300
2230.000000	1.203347
2228.000000	1.203597
2226.000000	1.203417
2224.000000	1.203301
2222.000000	1.203308
2220.000000	1.203229
2218.000000	1.203184
2216.000000	1.203384
2214.000000	1.203449
2212.000000	1.203234
2210.000000	1.203106
2208.000000	1.203219
2206.000000	1.203133
2204.000000	1.202981
2202.000000	1.202981
2200.000000	1.203243
2198.000000	1.203255
2196.000000	1.203029
2194.000000	1.202879
2192.000000	1.202849
2190.000000	1.202720
2188.000000	1.202703
2186.000000	1.202737
2184.000000	1.202658
2182.000000	1.202316
2180.000000	1.202060
2178.000000	1.202197
2176.000000	1.202590
2174.000000	1.202704
2172.000000	1.202698
2170.000000	1.203060
2168.000000	1.204524
2166.000000	1.204159
2164.000000	1.202148
2162.000000	1.201466
2160.000000	1.201887
2158.000000	1.202131
2156.000000	1.201932
2154.000000	1.201902
2152.000000	1.201829
2150.000000	1.201935
2148.000000	1.202065
2146.000000	1.202097
2144.000000	1.201842
2142.000000	1.201525
2140.000000	1.201457
2138.000000	1.201463
2136.000000	1.201383
2134.000000	1.201186
2132.000000	1.201107
2130.000000	1.201190
2128.000000	1.201276
2126.000000	1.200937
2124.000000	1.200746
2122.000000	1.200957
2120.000000	1.201003
2118.000000	1.200817
2116.000000	1.200700
2114.000000	1.200722
2112.000000	1.200786
2110.000000	1.200841
2108.000000	1.200836
2106.000000	1.200980
2104.000000	1.201023
2102.000000	1.200798
2100.000000	1.200573
2098.000000	1.200633
2096.000000	1.200766
2094.000000	1.200635
2092.000000	1.200466
2090.000000	1.200510
2088.000000	1.200519
2086.000000	1.200253
2084.000000	1.199966
2082.000000	1.200047
2080.000000	1.200283
2078.000000	1.200382
2076.000000	1.200314
2074.000000	1.200245
2072.000000	1.200239
2070.000000	1.200279
2068.000000	1.200287
2066.000000	1.200070
2064.000000	1.199961
2062.000000	1.200023
2060.000000	1.200133
2058.000000	1.200088
2056.000000	1.200014
2054.000000	1.199879
2052.000000	1.199737
2050.000000	1.199816
2048.000000	1.199910
2046.000000	1.199921
2044.000000	1.199925
2042.000000	1.199816
2040.000000	1.199733
2038.000000	1.199738
2036.000000	1.199824
2034.000000	1.199667
2032.000000	1.199448
2030.000000	1.199337
2028.000000	1.199357
2026.000000	1.199346
2024.000000	1.199208
2022.000000	1.199319
2020.000000	1.199342
2018.000000	1.199357
2016.000000	1.199658
2014.000000	1.199652
2012.000000	1.199592
2010.000000	1.199598
2008.000000	1.199555
2006.000000	1.199432
2004.000000	1.199536
2002.000000	1.200857
2000.000000	1.200612
1998.000000	1.199562
1996.000000	1.199768
1994.000000	1.199535
1992.000000	1.199099
1990.000000	1.198897
1988.000000	1.198724
1986.000000	1.198783
1984.000000	1.198743
1982.000000	1.198684
1980.000000	1.198763
1978.000000	1.198703
1976.000000	1.198635
1974.000000	1.198791
1972.000000	1.198876
1970.000000	1.198621
1968.000000	1.198411
1966.000000	1.198614
1964.000000	1.198793
1962.000000	1.198726
1960.000000	1.198759
1958.000000	1.198954
1956.000000	1.198979
1954.000000	1.198872
1952.000000	1.198817
1950.000000	1.198757
1948.000000	1.198772
1946.000000	1.198615
1944.000000	1.198357
1942.000000	1.198552
1940.000000	1.198967
1938.000000	1.198856
1936.000000	1.198764
1934.000000	1.198796
1932.000000	1.198898
1930.000000	1.198884
1928.000000	1.198727
1926.000000	1.198450
1924.000000	1.198294
1922.000000	1.198463
1920.000000	1.198078
1918.000000	1.197645
1916.000000	1.198508
1914.000000	1.199078
1912.000000	1.199191
1910.000000	1.199084
1908.000000	1.199116
1906.000000	1.198953
1904.000000	1.198883
1902.000000	1.199037
1900.000000	1.199190
1898.000000	1.198997
1896.000000	1.198919
1894.000000	1.198931
1892.000000	1.198712
1890.000000	1.198424
1888.000000	1.199020
1886.000000	1.199267
1884.000000	1.199316
1882.000000	1.199340
1880.000000	1.199161
1878.000000	1.198772
1876.000000	1.198688
1874.000000	1.198839
1872.000000	1.198393
1870.000000	1.197552
1868.000000	1.198259
1866.000000	1.199092
1864.000000	1.199121
1862.000000	1.199021
1860.000000	1.199105
1858.000000	1.199032
1856.000000	1.199004
1854.000000	1.198993
1852.000000	1.199135
1850.000000	1.198961
1848.000000	1.198377
1846.000000	1.196668
1844.000000	1.196878
1842.000000	1.198930
1840.000000	1.199094
1838.000000	1.198716
1836.000000	1.198545
1834.000000	1.198251
1832.000000	1.197536
1830.000000	1.197603
1828.000000	1.198597
1826.000000	1.198298
1824.000000	1.198777
1822.000000	1.199329
1820.000000	1.199221
1818.000000	1.199163
1816.000000	1.199366
1814.000000	1.199147
1812.000000	1.198924
1810.000000	1.199036
1808.000000	1.199310
1806.000000	1.199186
1804.000000	1.198598
1802.000000	1.197988
1800.000000	1.198440
1798.000000	1.198975
1796.000000	1.198281
1794.000000	1.196286
1792.000000	1.196816
1790.000000	1.198994
1788.000000	1.199122
1786.000000	1.198340
1784.000000	1.198519
1782.000000	1.198552
1780.000000	1.198729
1778.000000	1.198912
1776.000000	1.197707
1774.000000	1.194991
1772.000000	1.195653
1770.000000	1.197854
1768.000000	1.198377
1766.000000	1.199481
1764.000000	1.198381
1762.000000	1.197669
1760.000000	1.198913
1758.000000	1.198707
1756.000000	1.198870
1754.000000	1.197957
1752.000000	1.195651
1750.000000	1.196737
1748.000000	1.198569
1746.000000	1.199161
1744.000000	1.198809
1742.000000	1.197890
1740.000000	1.197780
1738.000000	1.198362
1736.000000	1.194155
1734.000000	1.193669
1732.000000	1.199053
1730.000000	1.200268
1728.000000	1.200381
1726.000000	1.200336
1724.000000	1.200317
1722.000000	1.199634
1720.000000	1.195942
1718.000000	1.193503
1716.000000	1.197265
1714.000000	1.199891
1712.000000	1.200509
1710.000000	1.199910
1708.000000	1.199061
1706.000000	1.198404
1704.000000	1.198264
1702.000000	1.193420
1700.000000	1.193429
1698.000000	1.195286
1696.000000	1.195129
1694.000000	1.200524
1692.000000	1.201576
1690.000000	1.200522
1688.000000	1.198472
1686.000000	1.193028
1684.000000	1.194852
1682.000000	1.200715
1680.000000	1.201250
1678.000000	1.199738
1676.000000	1.197743
1674.000000	1.199451
1672.000000	1.199235
1670.000000	1.198302
1668.000000	1.200389
1666.000000	1.201186
1664.000000	1.199799
1662.000000	1.200717
1660.000000	1.202086
1658.000000	1.201170
1656.000000	1.195361
1654.000000	1.188648
1652.000000	1.195442
1650.000000	1.200921
1648.000000	1.197570
1646.000000	1.198495
1644.000000	1.202234
1642.000000	1.202713
1640.000000	1.201554
1638.000000	1.198182
1636.000000	1.196550
1634.000000	1.201067
1632.000000	1.202966
1630.000000	1.201864
1628.000000	1.201422
1626.000000	1.200973
1624.000000	1.200148
1622.000000	1.201369
1620.000000	1.200717
1618.000000	1.197319
1616.000000	1.199283
1614.000000	1.202682
1612.000000	1.202334
1610.000000	1.202401
1608.000000	1.202765
1606.000000	1.203249
1604.000000	1.203474
1602.000000	1.203862
1600.000000	1.204026
1598.000000	1.203919
1596.000000	1.203691
1594.000000	1.203754
1592.000000	1.203761
1590.000000	1.203696
1588.000000	1.203672
1586.000000	1.203630
1584.000000	1.203458
1582.000000	1.203676
1580.000000	1.202914
1578.000000	1.199018
1576.000000	1.199072
1574.000000	1.203558
1572.000000	1.202405
1570.000000	1.201266
1568.000000	1.203117
1566.000000	1.203341
1564.000000	1.202177
1562.000000	1.196925
1560.000000	1.190921
1558.000000	1.196291
1556.000000	1.201203
1554.000000	1.202125
1552.000000	1.203363
1550.000000	1.203346
1548.000000	1.203142
1546.000000	1.201636
1544.000000	1.199356
1542.000000	1.195421
1540.000000	1.194942
1538.000000	1.201357
1536.000000	1.202950
1534.000000	1.201261
1532.000000	1.202967
1530.000000	1.203198
1528.000000	1.201802
1526.000000	1.201123
1524.000000	1.199461
1522.000000	1.197274
1520.000000	1.199916
1518.000000	1.201123
1516.000000	1.201753
1514.000000	1.202520
1512.000000	1.201969
1510.000000	1.199462
1508.000000	1.194384
1506.000000	1.196208
1504.000000	1.202002
1502.000000	1.201514
1500.000000	1.198258
1498.000000	1.195919
1496.000000	1.198551
1494.000000	1.203940
1492.000000	1.204990
1490.000000	1.204626
1488.000000	1.205020
1486.000000	1.205295
1484.000000	1.205240
1482.000000	1.204600
1480.000000	1.204310
1478.000000	1.202940
1476.000000	1.201068
1474.000000	1.199200
1472.000000	1.200859
1470.000000	1.203700
1468.000000	1.203118
1466.000000	1.201417
1464.000000	1.202253
1462.000000	1.202858
1460.000000	1.199348
1458.000000	1.194993
1456.000000	1.198103
1454.000000	1.202265
1452.000000	1.202848
1450.000000	1.203732
1448.000000	1.204273
1446.000000	1.204510
1444.000000	1.204057
1442.000000	1.203976
1440.000000	1.202820
1438.000000	1.200143
1436.000000	1.201129
1434.000000	1.203330
1432.000000	1.202743
1430.000000	1.202603
1428.000000	1.203015
1426.000000	1.202906
1424.000000	1.202420
1422.000000	1.201157
1420.000000	1.199239
1418.000000	1.201298
1416.000000	1.203070
1414.000000	1.203239
1412.000000	1.202876
1410.000000	1.202526
1408.000000	1.201826
1406.000000	1.201545
1404.000000	1.202493
1402.000000	1.203204
1400.000000	1.202635
1398.000000	1.202718
1396.000000	1.202162
1394.000000	1.202620
1392.000000	1.203372
1390.000000	1.202269
1388.000000	1.201168
1386.000000	1.202095
1384.000000	1.203082
1382.000000	1.203324
1380.000000	1.202979
1378.000000	1.202500
1376.000000	1.201635
1374.000000	1.201684
1372.000000	1.202334
1370.000000	1.202444
1368.000000	1.202675
1366.000000	1.202633
1364.000000	1.201800
1362.000000	1.201744
1360.000000	1.202300
1358.000000	1.202357
1356.000000	1.202063
1354.000000	1.202089
1352.000000	1.202082
1350.000000	1.201936
1348.000000	1.202055
1346.000000	1.202205
1344.000000	1.201993
1342.000000	1.201514
1340.000000	1.201190
1338.000000	1.201568
1336.000000	1.201974
1334.000000	1.201855
1332.000000	1.201448
1330.000000	1.201476
1328.000000	1.201620
1326.000000	1.201596
1324.000000	1.201436
1322.000000	1.201250
1320.000000	1.200896
1318.000000	1.200754
1316.000000	1.200933
1314.000000	1.200993
1312.000000	1.200825
1310.000000	1.200734
1308.000000	1.200730
1306.000000	1.200818
1304.000000	1.200701
1302.000000	1.200747
1300.000000	1.200805
1298.000000	1.200549
1296.000000	1.200294
1294.000000	1.200392
1292.000000	1.200179
1290.000000	1.199944
1288.000000	1.199918
1286.000000	1.200059
1284.000000	1.200050
1282.000000	1.199989
1280.000000	1.200091
1278.000000	1.200289
1276.000000	1.200335
1274.000000	1.200289
1272.000000	1.200416
1270.000000	1.200706
1268.000000	1.201142
1266.000000	1.202450
1264.000000	1.204327
1262.000000	1.206514
1260.000000	1.208476
1258.000000	1.209103
1256.000000	1.208106
1254.000000	1.206008
1252.000000	1.203166
1250.000000	1.202189
1248.000000	1.202967
1246.000000	1.203328
1244.000000	1.203483
1242.000000	1.203635
1240.000000	1.203889
1238.000000	1.204225
1236.000000	1.204436
1234.000000	1.204753
1232.000000	1.205065
1230.000000	1.205438
1228.000000	1.205801
1226.000000	1.205817
1224.000000	1.205854
1222.000000	1.206112
1220.000000	1.206178
1218.000000	1.206326
1216.000000	1.206768
1214.000000	1.207330
1212.000000	1.207406
1210.000000	1.207552
1208.000000	1.208314
1206.000000	1.208690
1204.000000	1.208674
1202.000000	1.208766
1200.000000	1.208821
1198.000000	1.209372
1196.000000	1.210265
1194.000000	1.210491
1192.000000	1.210465
1190.000000	1.210587
1188.000000	1.210812
1186.000000	1.211390
1184.000000	1.211642
1182.000000	1.211744
1180.000000	1.212813
1178.000000	1.213782
1176.000000	1.213781
1174.000000	1.213905
1172.000000	1.214490
1170.000000	1.215077
1168.000000	1.215047
1166.000000	1.215014
1164.000000	1.215529
1162.000000	1.216010
1160.000000	1.216680
1158.000000	1.217168
1156.000000	1.217476
1154.000000	1.217692
1152.000000	1.217787
1150.000000	1.218013
1148.000000	1.218296
1146.000000	1.218677
1144.000000	1.218896
1142.000000	1.219463
1140.000000	1.220129
1138.000000	1.220152
1136.000000	1.220122
1134.000000	1.220415
1132.000000	1.221337
1130.000000	1.222047
1128.000000	1.223540
1126.000000	1.225939
1124.000000	1.223829
1122.000000	1.221953
1120.000000	1.222217
1118.000000	1.222204
1116.000000	1.222819
1114.000000	1.222979
1112.000000	1.222852
1110.000000	1.223279
1108.000000	1.224084
1106.000000	1.224608
1104.000000	1.224852
1102.000000	1.225131
1100.000000	1.225865
1098.000000	1.226514
1096.000000	1.226775
1094.000000	1.227337
1092.000000	1.228558
1090.000000	1.230388
1088.000000	1.230452
1086.000000	1.227707
1084.000000	1.232077
1082.000000	1.234436
1080.000000	1.228663
1078.000000	1.225441
1076.000000	1.225440
1074.000000	1.226210
1072.000000	1.225541
1070.000000	1.225299
1068.000000	1.224741
1066.000000	1.224721
1064.000000	1.225231
1062.000000	1.225712
1060.000000	1.224632
1058.000000	1.222410
1056.000000	1.220485
1054.000000	1.220376
1052.000000	1.220804
1050.000000	1.220831
1048.000000	1.220580
1046.000000	1.220834
1044.000000	1.220654
1042.000000	1.219407
1040.000000	1.218681
1038.000000	1.218248
1036.000000	1.217066
1034.000000	1.215752
1032.000000	1.215118
1030.000000	1.215336
1028.000000	1.214985
1026.000000	1.214895
1024.000000	1.215494
1022.000000	1.218290
1020.000000	1.219283
1018.000000	1.215810
1016.000000	1.212552
1014.000000	1.211431
1012.000000	1.210256
1010.000000	1.206646
1008.000000	1.204288
1006.000000	1.203764
1004.000000	1.200973
1002.000000	1.198498
1000.000000	1.200335
