PE IR       SUBTECH     SPECTRUM    ASCII       PEDS        4.00        
   -1
TE110A_015_90K_SB.ASC
20/05/14
12:04:00.00
20/05/14
12:04:00.00
Administrator
TE110A.Thursday, May 14 2020, 003.
1000.000000
#HDR
-1
-1
#GR
cm-1
EGY
1.0
0.0
6000.000000
-2.000000
2501
8
6.087240
0.616596
#DATA
6000.000000	0.940532
5998.000000	0.943092
5996.000000	0.945836
5994.000000	0.947460
5992.000000	0.948208
5990.000000	0.950606
5988.000000	0.953500
5986.000000	0.956687
5984.000000	0.958636
5982.000000	0.959173
5980.000000	0.960131
5978.000000	0.962428
5976.000000	0.965657
5974.000000	0.967833
5972.000000	0.969282
5970.000000	0.969889
5968.000000	0.971598
5966.000000	0.974092
5964.000000	0.976699
5962.000000	0.979947
5960.000000	0.982011
5958.000000	0.983184
5956.000000	0.984917
5954.000000	0.987349
5952.000000	0.990305
5950.000000	0.992302
5948.000000	0.993799
5946.000000	0.996681
5944.000000	0.999288
5942.000000	1.001236
5940.000000	1.002597
5938.000000	1.003465
5936.000000	1.004664
5934.000000	1.006213
5932.000000	1.008672
5930.000000	1.011724
5928.000000	1.013536
5926.000000	1.015014
5924.000000	1.016575
5922.000000	1.018716
5920.000000	1.020540
5918.000000	1.022689
5916.000000	1.025617
5914.000000	1.028258
5912.000000	1.030213
5910.000000	1.031423
5908.000000	1.033290
5906.000000	1.035366
5904.000000	1.037641
5902.000000	1.039641
5900.000000	1.041540
5898.000000	1.043411
5896.000000	1.045050
5894.000000	1.047282
5892.000000	1.050268
5890.000000	1.053549
5888.000000	1.056243
5886.000000	1.058358
5884.000000	1.059997
5882.000000	1.061623
5880.000000	1.063721
5878.000000	1.066107
5876.000000	1.069378
5874.000000	1.071917
5872.000000	1.074395
5870.000000	1.077387
5868.000000	1.080220
5866.000000	1.082585
5864.000000	1.084166
5862.000000	1.086152
5860.000000	1.087895
5858.000000	1.089914
5856.000000	1.091998
5854.000000	1.094233
5852.000000	1.096602
5850.000000	1.098496
5848.000000	1.100905
5846.000000	1.103961
5844.000000	1.106555
5842.000000	1.108992
5840.000000	1.110613
5838.000000	1.111663
5836.000000	1.113673
5834.000000	1.116304
5832.000000	1.118736
5830.000000	1.120836
5828.000000	1.123087
5826.000000	1.126523
5824.000000	1.130304
5822.000000	1.132917
5820.000000	1.134887
5818.000000	1.136372
5816.000000	1.138719
5814.000000	1.141395
5812.000000	1.143622
5810.000000	1.145897
5808.000000	1.148180
5806.000000	1.150646
5804.000000	1.152358
5802.000000	1.153713
5800.000000	1.156607
5798.000000	1.159963
5796.000000	1.162545
5794.000000	1.164386
5792.000000	1.166395
5790.000000	1.169589
5788.000000	1.172254
5786.000000	1.174159
5784.000000	1.175607
5782.000000	1.178181
5780.000000	1.182042
5778.000000	1.185365
5776.000000	1.187701
5774.000000	1.189515
5772.000000	1.191254
5770.000000	1.193746
5768.000000	1.196654
5766.000000	1.200122
5764.000000	1.203023
5762.000000	1.205132
5760.000000	1.207673
5758.000000	1.210125
5756.000000	1.211606
5754.000000	1.212823
5752.000000	1.214310
5750.000000	1.217035
5748.000000	1.221055
5746.000000	1.224745
5744.000000	1.226724
5742.000000	1.227788
5740.000000	1.229331
5738.000000	1.232107
5736.000000	1.235292
5734.000000	1.237531
5732.000000	1.239979
5730.000000	1.241667
5728.000000	1.243142
5726.000000	1.245949
5724.000000	1.250017
5722.000000	1.253938
5720.000000	1.256292
5718.000000	1.257784
5716.000000	1.259727
5714.000000	1.262418
5712.000000	1.265040
5710.000000	1.267747
5708.000000	1.270366
5706.000000	1.272956
5704.000000	1.276009
5702.000000	1.278522
5700.000000	1.280267
5698.000000	1.281883
5696.000000	1.284702
5694.000000	1.288018
5692.000000	1.290910
5690.000000	1.293052
5688.000000	1.295164
5686.000000	1.297809
5684.000000	1.301257
5682.000000	1.304768
5680.000000	1.308275
5678.000000	1.311360
5676.000000	1.313516
5674.000000	1.314931
5672.000000	1.317140
5670.000000	1.320719
5668.000000	1.324543
5666.000000	1.327750
5664.000000	1.330220
5662.000000	1.332557
5660.000000	1.334022
5658.000000	1.335681
5656.000000	1.338867
5654.000000	1.342900
5652.000000	1.346882
5650.000000	1.349160
5648.000000	1.351387
5646.000000	1.353819
5644.000000	1.357029
5642.000000	1.359504
5640.000000	1.360602
5638.000000	1.361813
5636.000000	1.364067
5634.000000	1.367140
5632.000000	1.370824
5630.000000	1.373957
5628.000000	1.377532
5626.000000	1.380454
5624.000000	1.382189
5622.000000	1.384855
5620.000000	1.387944
5618.000000	1.391059
5616.000000	1.393270
5614.000000	1.394977
5612.000000	1.397697
5610.000000	1.400840
5608.000000	1.403964
5606.000000	1.407034
5604.000000	1.409315
5602.000000	1.411866
5600.000000	1.415605
5598.000000	1.419703
5596.000000	1.423000
5594.000000	1.425120
5592.000000	1.426940
5590.000000	1.429266
5588.000000	1.431969
5586.000000	1.435061
5584.000000	1.437546
5582.000000	1.439440
5580.000000	1.441509
5578.000000	1.443854
5576.000000	1.446859
5574.000000	1.450020
5572.000000	1.453552
5570.000000	1.456940
5568.000000	1.460086
5566.000000	1.463429
5564.000000	1.466688
5562.000000	1.470143
5560.000000	1.473868
5558.000000	1.476666
5556.000000	1.478833
5554.000000	1.480309
5552.000000	1.481935
5550.000000	1.483998
5548.000000	1.486676
5546.000000	1.489684
5544.000000	1.492220
5542.000000	1.494951
5540.000000	1.498596
5538.000000	1.502576
5536.000000	1.505595
5534.000000	1.508181
5532.000000	1.511141
5530.000000	1.513812
5528.000000	1.515466
5526.000000	1.517652
5524.000000	1.521015
5522.000000	1.524299
5520.000000	1.526866
5518.000000	1.530247
5516.000000	1.533635
5514.000000	1.536019
5512.000000	1.537556
5510.000000	1.540284
5508.000000	1.543448
5506.000000	1.545736
5504.000000	1.548169
5502.000000	1.551579
5500.000000	1.555607
5498.000000	1.558019
5496.000000	1.559427
5494.000000	1.561356
5492.000000	1.563639
5490.000000	1.566785
5488.000000	1.570512
5486.000000	1.575533
5484.000000	1.580345
5482.000000	1.584299
5480.000000	1.586995
5478.000000	1.588161
5476.000000	1.588948
5474.000000	1.590376
5472.000000	1.593478
5470.000000	1.597376
5468.000000	1.601402
5466.000000	1.605238
5464.000000	1.608515
5462.000000	1.611492
5460.000000	1.614017
5458.000000	1.616533
5456.000000	1.619520
5454.000000	1.622657
5452.000000	1.625359
5450.000000	1.627772
5448.000000	1.630783
5446.000000	1.632907
5444.000000	1.634375
5442.000000	1.636046
5440.000000	1.639263
5438.000000	1.643031
5436.000000	1.645615
5434.000000	1.647837
5432.000000	1.650887
5430.000000	1.654656
5428.000000	1.657998
5426.000000	1.661232
5424.000000	1.665143
5422.000000	1.669357
5420.000000	1.673058
5418.000000	1.675670
5416.000000	1.677568
5414.000000	1.678137
5412.000000	1.679005
5410.000000	1.681728
5408.000000	1.685647
5406.000000	1.690029
5404.000000	1.694582
5402.000000	1.698847
5400.000000	1.702537
5398.000000	1.705339
5396.000000	1.707650
5394.000000	1.709315
5392.000000	1.711365
5390.000000	1.714750
5388.000000	1.718317
5386.000000	1.720718
5384.000000	1.723098
5382.000000	1.726831
5380.000000	1.731152
5378.000000	1.734795
5376.000000	1.737384
5374.000000	1.739776
5372.000000	1.742991
5370.000000	1.747019
5368.000000	1.750652
5366.000000	1.752816
5364.000000	1.755283
5362.000000	1.757695
5360.000000	1.760940
5358.000000	1.764070
5356.000000	1.767020
5354.000000	1.768554
5352.000000	1.769673
5350.000000	1.772826
5348.000000	1.776582
5346.000000	1.779253
5344.000000	1.780695
5342.000000	1.782643
5340.000000	1.785483
5338.000000	1.788459
5336.000000	1.792284
5334.000000	1.797880
5332.000000	1.802905
5330.000000	1.805789
5328.000000	1.807069
5326.000000	1.809079
5324.000000	1.812580
5322.000000	1.816406
5320.000000	1.820643
5318.000000	1.824392
5316.000000	1.827407
5314.000000	1.830248
5312.000000	1.833521
5310.000000	1.837170
5308.000000	1.840453
5306.000000	1.843013
5304.000000	1.845348
5302.000000	1.848001
5300.000000	1.851247
5298.000000	1.854627
5296.000000	1.858091
5294.000000	1.861044
5292.000000	1.863846
5290.000000	1.866153
5288.000000	1.868682
5286.000000	1.871640
5284.000000	1.875186
5282.000000	1.879044
5280.000000	1.883034
5278.000000	1.886395
5276.000000	1.889100
5274.000000	1.891481
5272.000000	1.894814
5270.000000	1.898110
5268.000000	1.900086
5266.000000	1.900736
5264.000000	1.902654
5262.000000	1.906003
5260.000000	1.910438
5258.000000	1.914821
5256.000000	1.918916
5254.000000	1.921763
5252.000000	1.924078
5250.000000	1.926722
5248.000000	1.928979
5246.000000	1.930821
5244.000000	1.933530
5242.000000	1.938271
5240.000000	1.944438
5238.000000	1.949331
5236.000000	1.952097
5234.000000	1.952758
5232.000000	1.954595
5230.000000	1.957768
5228.000000	1.960735
5226.000000	1.962899
5224.000000	1.965729
5222.000000	1.969857
5220.000000	1.973866
5218.000000	1.976904
5216.000000	1.979582
5214.000000	1.983276
5212.000000	1.986644
5210.000000	1.988593
5208.000000	1.989614
5206.000000	1.992183
5204.000000	1.996369
5202.000000	2.000123
5200.000000	2.003554
5198.000000	2.007298
5196.000000	2.011904
5194.000000	2.015670
5192.000000	2.018554
5190.000000	2.020536
5188.000000	2.023651
5186.000000	2.027293
5184.000000	2.030168
5182.000000	2.032918
5180.000000	2.037092
5178.000000	2.041580
5176.000000	2.043991
5174.000000	2.045686
5172.000000	2.048941
5170.000000	2.053138
5168.000000	2.057063
5166.000000	2.060189
5164.000000	2.062872
5162.000000	2.065196
5160.000000	2.067711
5158.000000	2.070854
5156.000000	2.074729
5154.000000	2.078266
5152.000000	2.081150
5150.000000	2.083900
5148.000000	2.087593
5146.000000	2.091621
5144.000000	2.094945
5142.000000	2.097232
5140.000000	2.099879
5138.000000	2.103559
5136.000000	2.106551
5134.000000	2.108272
5132.000000	2.111077
5130.000000	2.114958
5128.000000	2.118497
5126.000000	2.121744
5124.000000	2.126202
5122.000000	2.130556
5120.000000	2.133659
5118.000000	2.136086
5116.000000	2.138362
5114.000000	2.140889
5112.000000	2.144383
5110.000000	2.148695
5108.000000	2.152827
5106.000000	2.156157
5104.000000	2.159284
5102.000000	2.162055
5100.000000	2.164650
5098.000000	2.167862
5096.000000	2.171733
5094.000000	2.175258
5092.000000	2.178793
5090.000000	2.182164
5088.000000	2.185389
5086.000000	2.187894
5084.000000	2.190504
5082.000000	2.193728
5080.000000	2.197369
5078.000000	2.200802
5076.000000	2.203885
5074.000000	2.207811
5072.000000	2.211078
5070.000000	2.213353
5068.000000	2.216214
5066.000000	2.219532
5064.000000	2.222680
5062.000000	2.225393
5060.000000	2.228630
5058.000000	2.231621
5056.000000	2.234990
5054.000000	2.238816
5052.000000	2.242757
5050.000000	2.246592
5048.000000	2.249687
5046.000000	2.251899
5044.000000	2.254627
5042.000000	2.258626
5040.000000	2.262677
5038.000000	2.265524
5036.000000	2.268142
5034.000000	2.271349
5032.000000	2.275256
5030.000000	2.278527
5028.000000	2.281511
5026.000000	2.284204
5024.000000	2.287293
5022.000000	2.290185
5020.000000	2.293258
5018.000000	2.296812
5016.000000	2.300096
5014.000000	2.303028
5012.000000	2.306228
5010.000000	2.310059
5008.000000	2.314018
5006.000000	2.317471
5004.000000	2.320753
5002.000000	2.324040
5000.000000	2.327495
4998.000000	2.330840
4996.000000	2.333850
4994.000000	2.337049
4992.000000	2.340932
4990.000000	2.345020
4988.000000	2.348507
4986.000000	2.351898
4984.000000	2.355280
4982.000000	2.357865
4980.000000	2.360821
4978.000000	2.365584
4976.000000	2.370324
4974.000000	2.373242
4972.000000	2.375080
4970.000000	2.377980
4968.000000	2.381540
4966.000000	2.384920
4964.000000	2.388193
4962.000000	2.392141
4960.000000	2.396260
4958.000000	2.399654
4956.000000	2.402851
4954.000000	2.405214
4952.000000	2.407256
4950.000000	2.409914
4948.000000	2.414113
4946.000000	2.418753
4944.000000	2.422258
4942.000000	2.424316
4940.000000	2.426474
4938.000000	2.429571
4936.000000	2.432786
4934.000000	2.436257
4932.000000	2.440677
4930.000000	2.445029
4928.000000	2.447932
4926.000000	2.449709
4924.000000	2.451710
4922.000000	2.454758
4920.000000	2.458638
4918.000000	2.463061
4916.000000	2.467309
4914.000000	2.470495
4912.000000	2.473152
4910.000000	2.475805
4908.000000	2.478940
4906.000000	2.482255
4904.000000	2.485630
4902.000000	2.488872
4900.000000	2.492284
4898.000000	2.496503
4896.000000	2.501561
4894.000000	2.506455
4892.000000	2.510722
4890.000000	2.513729
4888.000000	2.516292
4886.000000	2.519710
4884.000000	2.524081
4882.000000	2.527479
4880.000000	2.530358
4878.000000	2.534087
4876.000000	2.537580
4874.000000	2.540054
4872.000000	2.542862
4870.000000	2.546621
4868.000000	2.549860
4866.000000	2.551989
4864.000000	2.554429
4862.000000	2.558200
4860.000000	2.561676
4858.000000	2.564164
4856.000000	2.567549
4854.000000	2.572396
4852.000000	2.576513
4850.000000	2.579070
4848.000000	2.581730
4846.000000	2.585131
4844.000000	2.589228
4842.000000	2.593523
4840.000000	2.597190
4838.000000	2.600095
4836.000000	2.603159
4834.000000	2.606831
4832.000000	2.610367
4830.000000	2.613612
4828.000000	2.617061
4826.000000	2.620805
4824.000000	2.623980
4822.000000	2.626877
4820.000000	2.630182
4818.000000	2.633622
4816.000000	2.637002
4814.000000	2.640550
4812.000000	2.643843
4810.000000	2.647100
4808.000000	2.651280
4806.000000	2.655339
4804.000000	2.658345
4802.000000	2.661225
4800.000000	2.664921
4798.000000	2.668733
4796.000000	2.671832
4794.000000	2.675017
4792.000000	2.679289
4790.000000	2.684535
4788.000000	2.688531
4786.000000	2.690798
4784.000000	2.693712
4782.000000	2.698298
4780.000000	2.702703
4778.000000	2.705313
4776.000000	2.707556
4774.000000	2.710440
4772.000000	2.713522
4770.000000	2.716874
4768.000000	2.721212
4766.000000	2.725491
4764.000000	2.727998
4762.000000	2.730053
4760.000000	2.733563
4758.000000	2.737087
4756.000000	2.740154
4754.000000	2.744260
4752.000000	2.748714
4750.000000	2.751583
4748.000000	2.754020
4746.000000	2.757118
4744.000000	2.760447
4742.000000	2.763789
4740.000000	2.766761
4738.000000	2.770183
4736.000000	2.774277
4734.000000	2.778281
4732.000000	2.781979
4730.000000	2.786296
4728.000000	2.790738
4726.000000	2.794441
4724.000000	2.797029
4722.000000	2.799411
4720.000000	2.803709
4718.000000	2.808653
4716.000000	2.811943
4714.000000	2.813951
4712.000000	2.817196
4710.000000	2.820911
4708.000000	2.824977
4706.000000	2.829111
4704.000000	2.832662
4702.000000	2.836027
4700.000000	2.840201
4698.000000	2.844334
4696.000000	2.847680
4694.000000	2.850958
4692.000000	2.854402
4690.000000	2.858280
4688.000000	2.862257
4686.000000	2.866076
4684.000000	2.869849
4682.000000	2.873478
4680.000000	2.876540
4678.000000	2.879070
4676.000000	2.882050
4674.000000	2.885999
4672.000000	2.890683
4670.000000	2.895241
4668.000000	2.899166
4666.000000	2.901459
4664.000000	2.902911
4662.000000	2.905086
4660.000000	2.908280
4658.000000	2.912325
4656.000000	2.917206
4654.000000	2.922148
4652.000000	2.926095
4650.000000	2.929172
4648.000000	2.932335
4646.000000	2.936015
4644.000000	2.939781
4642.000000	2.943291
4640.000000	2.947190
4638.000000	2.951142
4636.000000	2.954332
4634.000000	2.956946
4632.000000	2.960083
4630.000000	2.964313
4628.000000	2.968463
4626.000000	2.972239
4624.000000	2.975888
4622.000000	2.979202
4620.000000	2.982378
4618.000000	2.986347
4616.000000	2.990656
4614.000000	2.994783
4612.000000	2.999188
4610.000000	3.003208
4608.000000	3.006587
4606.000000	3.009641
4604.000000	3.013540
4602.000000	3.017821
4600.000000	3.020973
4598.000000	3.023509
4596.000000	3.027692
4594.000000	3.032570
4592.000000	3.036622
4590.000000	3.040253
4588.000000	3.043602
4586.000000	3.046852
4584.000000	3.050160
4582.000000	3.053954
4580.000000	3.058512
4578.000000	3.062892
4576.000000	3.065784
4574.000000	3.068879
4572.000000	3.072952
4570.000000	3.076276
4568.000000	3.078765
4566.000000	3.081744
4564.000000	3.085505
4562.000000	3.089824
4560.000000	3.094273
4558.000000	3.097812
4556.000000	3.100445
4554.000000	3.103980
4552.000000	3.109370
4550.000000	3.114390
4548.000000	3.117605
4546.000000	3.120099
4544.000000	3.123144
4542.000000	3.126594
4540.000000	3.130935
4538.000000	3.135513
4536.000000	3.139400
4534.000000	3.143329
4532.000000	3.147070
4530.000000	3.149720
4528.000000	3.152731
4526.000000	3.157331
4524.000000	3.161027
4522.000000	3.163586
4520.000000	3.167354
4518.000000	3.172148
4516.000000	3.176227
4514.000000	3.180377
4512.000000	3.185118
4510.000000	3.188741
4508.000000	3.191983
4506.000000	3.196065
4504.000000	3.200311
4502.000000	3.204505
4500.000000	3.208560
4498.000000	3.212054
4496.000000	3.215335
4494.000000	3.219043
4492.000000	3.222866
4490.000000	3.225764
4488.000000	3.227662
4486.000000	3.231360
4484.000000	3.236397
4482.000000	3.240046
4480.000000	3.243201
4478.000000	3.247374
4476.000000	3.251135
4474.000000	3.254227
4472.000000	3.258028
4470.000000	3.262828
4468.000000	3.267321
4466.000000	3.270182
4464.000000	3.272141
4462.000000	3.274543
4460.000000	3.278390
4458.000000	3.283199
4456.000000	3.287315
4454.000000	3.290243
4452.000000	3.293990
4450.000000	3.298889
4448.000000	3.303242
4446.000000	3.306468
4444.000000	3.309499
4442.000000	3.313194
4440.000000	3.317896
4438.000000	3.322637
4436.000000	3.327051
4434.000000	3.331328
4432.000000	3.335315
4430.000000	3.338119
4428.000000	3.340317
4426.000000	3.343249
4424.000000	3.347957
4422.000000	3.352500
4420.000000	3.355757
4418.000000	3.358551
4416.000000	3.362230
4414.000000	3.367034
4412.000000	3.371948
4410.000000	3.375626
4408.000000	3.378416
4406.000000	3.381475
4404.000000	3.384592
4402.000000	3.388620
4400.000000	3.393840
4398.000000	3.398421
4396.000000	3.401711
4394.000000	3.405807
4392.000000	3.410097
4390.000000	3.412725
4388.000000	3.414949
4386.000000	3.418699
4384.000000	3.423331
4382.000000	3.427710
4380.000000	3.430988
4378.000000	3.433410
4376.000000	3.436792
4374.000000	3.441324
4372.000000	3.445248
4370.000000	3.448008
4368.000000	3.450237
4366.000000	3.452751
4364.000000	3.456640
4362.000000	3.462097
4360.000000	3.467029
4358.000000	3.470116
4356.000000	3.473174
4354.000000	3.476293
4352.000000	3.478763
4350.000000	3.482398
4348.000000	3.487249
4346.000000	3.491290
4344.000000	3.494458
4342.000000	3.497412
4340.000000	3.501058
4338.000000	3.505657
4336.000000	3.510386
4334.000000	3.514633
4332.000000	3.518439
4330.000000	3.521481
4328.000000	3.525000
4326.000000	3.529984
4324.000000	3.534591
4322.000000	3.537618
4320.000000	3.541483
4318.000000	3.546710
4316.000000	3.552080
4314.000000	3.556326
4312.000000	3.559048
4310.000000	3.561841
4308.000000	3.565751
4306.000000	3.569843
4304.000000	3.573203
4302.000000	3.576037
4300.000000	3.579705
4298.000000	3.585490
4296.000000	3.591754
4294.000000	3.596416
4292.000000	3.599992
4290.000000	3.603514
4288.000000	3.606201
4286.000000	3.609027
4284.000000	3.613408
4282.000000	3.617583
4280.000000	3.620693
4278.000000	3.624217
4276.000000	3.627759
4274.000000	3.630742
4272.000000	3.634213
4270.000000	3.637983
4268.000000	3.641135
4266.000000	3.643374
4264.000000	3.646331
4262.000000	3.650635
4260.000000	3.655188
4258.000000	3.659235
4256.000000	3.663027
4254.000000	3.666870
4252.000000	3.670721
4250.000000	3.674345
4248.000000	3.678621
4246.000000	3.683130
4244.000000	3.687310
4242.000000	3.691305
4240.000000	3.694760
4238.000000	3.698061
4236.000000	3.702303
4234.000000	3.706313
4232.000000	3.709674
4230.000000	3.713821
4228.000000	3.718800
4226.000000	3.722898
4224.000000	3.726087
4222.000000	3.730045
4220.000000	3.734263
4218.000000	3.737340
4216.000000	3.741176
4214.000000	3.745979
4212.000000	3.750117
4210.000000	3.754417
4208.000000	3.759204
4206.000000	3.762812
4204.000000	3.766011
4202.000000	3.770414
4200.000000	3.775212
4198.000000	3.779596
4196.000000	3.783610
4194.000000	3.786643
4192.000000	3.790230
4190.000000	3.794793
4188.000000	3.797753
4186.000000	3.800429
4184.000000	3.805003
4182.000000	3.809349
4180.000000	3.813632
4178.000000	3.818518
4176.000000	3.822521
4174.000000	3.826581
4172.000000	3.831025
4170.000000	3.834130
4168.000000	3.837371
4166.000000	3.842144
4164.000000	3.846732
4162.000000	3.850766
4160.000000	3.854909
4158.000000	3.858941
4156.000000	3.862999
4154.000000	3.867392
4152.000000	3.871314
4150.000000	3.875111
4148.000000	3.879433
4146.000000	3.882771
4144.000000	3.885452
4142.000000	3.890197
4140.000000	3.895327
4138.000000	3.899049
4136.000000	3.902902
4134.000000	3.907621
4132.000000	3.912131
4130.000000	3.916241
4128.000000	3.920355
4126.000000	3.924777
4124.000000	3.929608
4122.000000	3.933966
4120.000000	3.937396
4118.000000	3.941099
4116.000000	3.945587
4114.000000	3.950404
4112.000000	3.955200
4110.000000	3.959255
4108.000000	3.962234
4106.000000	3.965076
4104.000000	3.969416
4102.000000	3.974196
4100.000000	3.977779
4098.000000	3.981219
4096.000000	3.984882
4094.000000	3.988419
4092.000000	3.992814
4090.000000	3.997511
4088.000000	4.001491
4086.000000	4.005232
4084.000000	4.009291
4082.000000	4.013738
4080.000000	4.018500
4078.000000	4.023137
4076.000000	4.027549
4074.000000	4.031784
4072.000000	4.035587
4070.000000	4.039177
4068.000000	4.042997
4066.000000	4.047123
4064.000000	4.051514
4062.000000	4.056042
4060.000000	4.060837
4058.000000	4.065956
4056.000000	4.070692
4054.000000	4.074288
4052.000000	4.076962
4050.000000	4.080385
4048.000000	4.085295
4046.000000	4.089547
4044.000000	4.092026
4042.000000	4.095339
4040.000000	4.101114
4038.000000	4.106909
4036.000000	4.111320
4034.000000	4.115685
4032.000000	4.119735
4030.000000	4.123474
4028.000000	4.127807
4026.000000	4.131686
4024.000000	4.135071
4022.000000	4.139205
4020.000000	4.143726
4018.000000	4.148249
4016.000000	4.152805
4014.000000	4.157381
4012.000000	4.162378
4010.000000	4.167323
4008.000000	4.171803
4006.000000	4.176605
4004.000000	4.181017
4002.000000	4.184591
4000.000000	4.188364
3998.000000	4.192541
3996.000000	4.196955
3994.000000	4.200796
3992.000000	4.203650
3990.000000	4.206740
3988.000000	4.211259
3986.000000	4.216035
3984.000000	4.220148
3982.000000	4.224575
3980.000000	4.229327
3978.000000	4.233435
3976.000000	4.237083
3974.000000	4.240975
3972.000000	4.244885
3970.000000	4.248275
3968.000000	4.251355
3966.000000	4.254776
3964.000000	4.258831
3962.000000	4.262556
3960.000000	4.266421
3958.000000	4.271352
3956.000000	4.276204
3954.000000	4.279773
3952.000000	4.283027
3950.000000	4.285745
3948.000000	4.288406
3946.000000	4.292833
3944.000000	4.296615
3942.000000	4.299634
3940.000000	4.305953
3938.000000	4.313291
3936.000000	4.318374
3934.000000	4.320245
3932.000000	4.318999
3930.000000	4.320696
3928.000000	4.328377
3926.000000	4.334266
3924.000000	4.336131
3922.000000	4.339403
3920.000000	4.342398
3918.000000	4.342554
3916.000000	4.345126
3914.000000	4.355205
3912.000000	4.367953
3910.000000	4.375076
3908.000000	4.376478
3906.000000	4.368969
3904.000000	4.350724
3902.000000	4.337798
3900.000000	4.342247
3898.000000	4.359913
3896.000000	4.382873
3894.000000	4.395885
3892.000000	4.389984
3890.000000	4.384143
3888.000000	4.390474
3886.000000	4.388513
3884.000000	4.383001
3882.000000	4.393475
3880.000000	4.404686
3878.000000	4.414966
3876.000000	4.428863
3874.000000	4.429924
3872.000000	4.418382
3870.000000	4.402085
3868.000000	4.398630
3866.000000	4.414866
3864.000000	4.425275
3862.000000	4.431864
3860.000000	4.447909
3858.000000	4.457932
3856.000000	4.432692
3854.000000	4.365245
3852.000000	4.329652
3850.000000	4.383990
3848.000000	4.463000
3846.000000	4.496774
3844.000000	4.494500
3842.000000	4.484014
3840.000000	4.467830
3838.000000	4.441265
3836.000000	4.433189
3834.000000	4.461180
3832.000000	4.490928
3830.000000	4.506953
3828.000000	4.521435
3826.000000	4.529723
3824.000000	4.526535
3822.000000	4.507701
3820.000000	4.490253
3818.000000	4.494338
3816.000000	4.494595
3814.000000	4.502335
3812.000000	4.542177
3810.000000	4.569424
3808.000000	4.556159
3806.000000	4.535509
3804.000000	4.535550
3802.000000	4.528293
3800.000000	4.516828
3798.000000	4.541722
3796.000000	4.575209
3794.000000	4.592301
3792.000000	4.605796
3790.000000	4.613995
3788.000000	4.617599
3786.000000	4.619924
3784.000000	4.622106
3782.000000	4.625333
3780.000000	4.623900
3778.000000	4.622361
3776.000000	4.631804
3774.000000	4.643077
3772.000000	4.642731
3770.000000	4.632645
3768.000000	4.628816
3766.000000	4.637006
3764.000000	4.646629
3762.000000	4.654500
3760.000000	4.654613
3758.000000	4.651099
3756.000000	4.655510
3754.000000	4.644253
3752.000000	4.599177
3750.000000	4.562256
3748.000000	4.573104
3746.000000	4.588311
3744.000000	4.571490
3742.000000	4.591968
3740.000000	4.658626
3738.000000	4.682178
3736.000000	4.658904
3734.000000	4.645423
3732.000000	4.657593
3730.000000	4.685047
3728.000000	4.712233
3726.000000	4.721830
3724.000000	4.723076
3722.000000	4.729341
3720.000000	4.737190
3718.000000	4.747179
3716.000000	4.756858
3714.000000	4.749392
3712.000000	4.721706
3710.000000	4.709555
3708.000000	4.730581
3706.000000	4.758257
3704.000000	4.772791
3702.000000	4.773166
3700.000000	4.774926
3698.000000	4.789575
3696.000000	4.801514
3694.000000	4.801559
3692.000000	4.788718
3690.000000	4.757495
3688.000000	4.730611
3686.000000	4.751171
3684.000000	4.801781
3682.000000	4.827392
3680.000000	4.823987
3678.000000	4.802050
3676.000000	4.760979
3674.000000	4.741424
3672.000000	4.760633
3670.000000	4.769306
3668.000000	4.781279
3666.000000	4.823296
3664.000000	4.856693
3662.000000	4.867775
3660.000000	4.868586
3658.000000	4.857984
3656.000000	4.840462
3654.000000	4.838587
3652.000000	4.839084
3650.000000	4.808586
3648.000000	4.783737
3646.000000	4.809230
3644.000000	4.855790
3642.000000	4.881760
3640.000000	4.888732
3638.000000	4.892536
3636.000000	4.894393
3634.000000	4.891035
3632.000000	4.879823
3630.000000	4.849046
3628.000000	4.820679
3626.000000	4.843057
3624.000000	4.887310
3622.000000	4.898670
3620.000000	4.882149
3618.000000	4.869829
3616.000000	4.877956
3614.000000	4.886901
3612.000000	4.883517
3610.000000	4.877536
3608.000000	4.876552
3606.000000	4.889156
3604.000000	4.908361
3602.000000	4.915384
3600.000000	4.910808
3598.000000	4.906229
3596.000000	4.905402
3594.000000	4.906024
3592.000000	4.908706
3590.000000	4.906159
3588.000000	4.891477
3586.000000	4.885276
3584.000000	4.900447
3582.000000	4.916419
3580.000000	4.921344
3578.000000	4.921571
3576.000000	4.921296
3574.000000	4.920750
3572.000000	4.920612
3570.000000	4.916055
3568.000000	4.900394
3566.000000	4.888800
3564.000000	4.896963
3562.000000	4.910070
3560.000000	4.915897
3558.000000	4.917541
3556.000000	4.917651
3554.000000	4.916504
3552.000000	4.913190
3550.000000	4.911019
3548.000000	4.908482
3546.000000	4.903310
3544.000000	4.902277
3542.000000	4.905320
3540.000000	4.907445
3538.000000	4.907081
3536.000000	4.903968
3534.000000	4.902021
3532.000000	4.901873
3530.000000	4.898502
3528.000000	4.892469
3526.000000	4.887128
3524.000000	4.883154
3522.000000	4.880302
3520.000000	4.879824
3518.000000	4.878487
3516.000000	4.874746
3514.000000	4.871412
3512.000000	4.867375
3510.000000	4.862098
3508.000000	4.856995
3506.000000	4.852362
3504.000000	4.845363
3502.000000	4.837841
3500.000000	4.833237
3498.000000	4.829524
3496.000000	4.825362
3494.000000	4.821172
3492.000000	4.816017
3490.000000	4.809841
3488.000000	4.803742
3486.000000	4.797403
3484.000000	4.791128
3482.000000	4.785537
3480.000000	4.781072
3478.000000	4.777844
3476.000000	4.775902
3474.000000	4.773493
3472.000000	4.770055
3470.000000	4.767912
3468.000000	4.765769
3466.000000	4.762208
3464.000000	4.759728
3462.000000	4.757743
3460.000000	4.755548
3458.000000	4.753588
3456.000000	4.751974
3454.000000	4.750055
3452.000000	4.747010
3450.000000	4.743897
3448.000000	4.739071
3446.000000	4.733472
3444.000000	4.730594
3442.000000	4.728994
3440.000000	4.728313
3438.000000	4.729654
3436.000000	4.731829
3434.000000	4.734262
3432.000000	4.736661
3430.000000	4.739254
3428.000000	4.744063
3426.000000	4.748938
3424.000000	4.752008
3422.000000	4.753822
3420.000000	4.754804
3418.000000	4.756988
3416.000000	4.759827
3414.000000	4.761021
3412.000000	4.761599
3410.000000	4.762667
3408.000000	4.764126
3406.000000	4.765426
3404.000000	4.765305
3402.000000	4.764992
3400.000000	4.766422
3398.000000	4.767833
3396.000000	4.768881
3394.000000	4.771073
3392.000000	4.773057
3390.000000	4.774979
3388.000000	4.778190
3386.000000	4.781143
3384.000000	4.782760
3382.000000	4.784359
3380.000000	4.785988
3378.000000	4.787120
3376.000000	4.788187
3374.000000	4.788793
3372.000000	4.788734
3370.000000	4.789380
3368.000000	4.790925
3366.000000	4.792387
3364.000000	4.794330
3362.000000	4.796857
3360.000000	4.798833
3358.000000	4.799488
3356.000000	4.799756
3354.000000	4.801365
3352.000000	4.803530
3350.000000	4.804437
3348.000000	4.805403
3346.000000	4.807193
3344.000000	4.809971
3342.000000	4.812169
3340.000000	4.812378
3338.000000	4.812619
3336.000000	4.814123
3334.000000	4.816186
3332.000000	4.818401
3330.000000	4.820570
3328.000000	4.821982
3326.000000	4.822659
3324.000000	4.823169
3322.000000	4.824059
3320.000000	4.826010
3318.000000	4.827772
3316.000000	4.828711
3314.000000	4.830474
3312.000000	4.832106
3310.000000	4.832436
3308.000000	4.833272
3306.000000	4.834325
3304.000000	4.834703
3302.000000	4.835814
3300.000000	4.838174
3298.000000	4.840011
3296.000000	4.841281
3294.000000	4.842318
3292.000000	4.842945
3290.000000	4.845086
3288.000000	4.848438
3286.000000	4.851020
3284.000000	4.851999
3282.000000	4.853306
3280.000000	4.854656
3278.000000	4.855346
3276.000000	4.856956
3274.000000	4.858098
3272.000000	4.859204
3270.000000	4.861358
3268.000000	4.863552
3266.000000	4.865129
3264.000000	4.866962
3262.000000	4.869801
3260.000000	4.872237
3258.000000	4.874161
3256.000000	4.876051
3254.000000	4.878079
3252.000000	4.880838
3250.000000	4.883453
3248.000000	4.885041
3246.000000	4.886837
3244.000000	4.888328
3242.000000	4.890502
3240.000000	4.893935
3238.000000	4.896365
3236.000000	4.897325
3234.000000	4.898521
3232.000000	4.900781
3230.000000	4.902990
3228.000000	4.905215
3226.000000	4.907555
3224.000000	4.909897
3222.000000	4.912111
3220.000000	4.913615
3218.000000	4.915136
3216.000000	4.918026
3214.000000	4.921700
3212.000000	4.925241
3210.000000	4.928096
3208.000000	4.930972
3206.000000	4.934874
3204.000000	4.938538
3202.000000	4.942339
3200.000000	4.946083
3198.000000	4.948691
3196.000000	4.951457
3194.000000	4.955410
3192.000000	4.960284
3190.000000	4.965572
3188.000000	4.970983
3186.000000	4.975250
3184.000000	4.978930
3182.000000	4.982881
3180.000000	4.986067
3178.000000	4.989059
3176.000000	4.993762
3174.000000	4.998511
3172.000000	5.002671
3170.000000	5.006745
3168.000000	5.009732
3166.000000	5.013133
3164.000000	5.018111
3162.000000	5.022643
3160.000000	5.026196
3158.000000	5.030330
3156.000000	5.034760
3154.000000	5.039556
3152.000000	5.043617
3150.000000	5.045943
3148.000000	5.048852
3146.000000	5.053431
3144.000000	5.058194
3142.000000	5.063171
3140.000000	5.067209
3138.000000	5.070164
3136.000000	5.072801
3134.000000	5.075305
3132.000000	5.078675
3130.000000	5.081912
3128.000000	5.085127
3126.000000	5.089175
3124.000000	5.092431
3122.000000	5.095385
3120.000000	5.099536
3118.000000	5.101849
3116.000000	5.103255
3114.000000	5.107285
3112.000000	5.112070
3110.000000	5.115776
3108.000000	5.118692
3106.000000	5.121347
3104.000000	5.123829
3102.000000	5.127206
3100.000000	5.131105
3098.000000	5.135953
3096.000000	5.140221
3094.000000	5.144112
3092.000000	5.149319
3090.000000	5.153276
3088.000000	5.155964
3086.000000	5.159617
3084.000000	5.162915
3082.000000	5.166055
3080.000000	5.170915
3078.000000	5.174971
3076.000000	5.177090
3074.000000	5.179165
3072.000000	5.180705
3070.000000	5.182225
3068.000000	5.184365
3066.000000	5.185693
3064.000000	5.187628
3062.000000	5.191025
3060.000000	5.195161
3058.000000	5.198391
3056.000000	5.201171
3054.000000	5.205348
3052.000000	5.210527
3050.000000	5.215146
3048.000000	5.218971
3046.000000	5.222345
3044.000000	5.225329
3042.000000	5.227307
3040.000000	5.228295
3038.000000	5.229700
3036.000000	5.232244
3034.000000	5.234160
3032.000000	5.234238
3030.000000	5.233239
3028.000000	5.231195
3026.000000	5.227039
3024.000000	5.220938
3022.000000	5.213171
3020.000000	5.206866
3018.000000	5.206434
3016.000000	5.212087
3014.000000	5.223362
3012.000000	5.239364
3010.000000	5.256510
3008.000000	5.272379
3006.000000	5.285550
3004.000000	5.293953
3002.000000	5.300121
3000.000000	5.304916
2998.000000	5.307892
2996.000000	5.310261
2994.000000	5.312298
2992.000000	5.314677
2990.000000	5.316135
2988.000000	5.314941
2986.000000	5.312879
2984.000000	5.309854
2982.000000	5.305524
2980.000000	5.299499
2978.000000	5.291508
2976.000000	5.280091
2974.000000	5.263169
2972.000000	5.241358
2970.000000	5.214286
2968.000000	5.181070
2966.000000	5.147157
2964.000000	5.117915
2962.000000	5.099757
2960.000000	5.097595
2958.000000	5.107061
2956.000000	5.121736
2954.000000	5.137615
2952.000000	5.151591
2950.000000	5.160889
2948.000000	5.164955
2946.000000	5.162084
2944.000000	5.151701
2942.000000	5.133565
2940.000000	5.107847
2938.000000	5.079546
2936.000000	5.052065
2934.000000	5.026433
2932.000000	5.003447
2930.000000	4.980873
2928.000000	4.957837
2926.000000	4.941763
2924.000000	4.939869
2922.000000	4.954184
2920.000000	4.984972
2918.000000	5.028414
2916.000000	5.077619
2914.000000	5.126064
2912.000000	5.170045
2910.000000	5.207739
2908.000000	5.237091
2906.000000	5.259435
2904.000000	5.278442
2902.000000	5.295345
2900.000000	5.310874
2898.000000	5.326128
2896.000000	5.340540
2894.000000	5.353429
2892.000000	5.365797
2890.000000	5.379200
2888.000000	5.391379
2886.000000	5.400558
2884.000000	5.407328
2882.000000	5.412116
2880.000000	5.414028
2878.000000	5.413629
2876.000000	5.410659
2874.000000	5.403807
2872.000000	5.392236
2870.000000	5.375633
2868.000000	5.352340
2866.000000	5.322639
2864.000000	5.290885
2862.000000	5.263704
2860.000000	5.250030
2858.000000	5.252619
2856.000000	5.266420
2854.000000	5.285703
2852.000000	5.307641
2850.000000	5.334033
2848.000000	5.366279
2846.000000	5.402497
2844.000000	5.437081
2842.000000	5.464894
2840.000000	5.487708
2838.000000	5.506246
2836.000000	5.520720
2834.000000	5.531738
2832.000000	5.540242
2830.000000	5.548182
2828.000000	5.556092
2826.000000	5.563958
2824.000000	5.571032
2822.000000	5.577265
2820.000000	5.582817
2818.000000	5.588372
2816.000000	5.593692
2814.000000	5.598376
2812.000000	5.602383
2810.000000	5.605525
2808.000000	5.608561
2806.000000	5.612090
2804.000000	5.615699
2802.000000	5.618425
2800.000000	5.620501
2798.000000	5.623091
2796.000000	5.626789
2794.000000	5.630229
2792.000000	5.633016
2790.000000	5.635874
2788.000000	5.638678
2786.000000	5.643242
2784.000000	5.649347
2782.000000	5.654498
2780.000000	5.658200
2778.000000	5.662173
2776.000000	5.667551
2774.000000	5.672201
2772.000000	5.675330
2770.000000	5.678787
2768.000000	5.682154
2766.000000	5.684818
2764.000000	5.687105
2762.000000	5.689378
2760.000000	5.691766
2758.000000	5.694774
2756.000000	5.696980
2754.000000	5.698919
2752.000000	5.702128
2750.000000	5.704662
2748.000000	5.706207
2746.000000	5.707921
2744.000000	5.709689
2742.000000	5.710784
2740.000000	5.712431
2738.000000	5.714702
2736.000000	5.716943
2734.000000	5.719139
2732.000000	5.721479
2730.000000	5.723111
2728.000000	5.724395
2726.000000	5.725048
2724.000000	5.726010
2722.000000	5.728123
2720.000000	5.729380
2718.000000	5.728926
2716.000000	5.729381
2714.000000	5.729880
2712.000000	5.730841
2710.000000	5.731925
2708.000000	5.732473
2706.000000	5.734581
2704.000000	5.735616
2702.000000	5.735945
2700.000000	5.737101
2698.000000	5.738720
2696.000000	5.740466
2694.000000	5.741360
2692.000000	5.742193
2690.000000	5.743950
2688.000000	5.745730
2686.000000	5.747017
2684.000000	5.748401
2682.000000	5.749692
2680.000000	5.750523
2678.000000	5.751581
2676.000000	5.752934
2674.000000	5.754136
2672.000000	5.755486
2670.000000	5.756598
2668.000000	5.757542
2666.000000	5.758337
2664.000000	5.758172
2662.000000	5.757387
2660.000000	5.756647
2658.000000	5.757817
2656.000000	5.760147
2654.000000	5.761500
2652.000000	5.761681
2650.000000	5.762341
2648.000000	5.763625
2646.000000	5.765202
2644.000000	5.765958
2642.000000	5.766296
2640.000000	5.768142
2638.000000	5.770524
2636.000000	5.772873
2634.000000	5.774637
2632.000000	5.775747
2630.000000	5.776535
2628.000000	5.776971
2626.000000	5.777685
2624.000000	5.778789
2622.000000	5.780228
2620.000000	5.781375
2618.000000	5.782468
2616.000000	5.783659
2614.000000	5.784035
2612.000000	5.784664
2610.000000	5.785480
2608.000000	5.786915
2606.000000	5.787110
2604.000000	5.785548
2602.000000	5.785743
2600.000000	5.787245
2598.000000	5.787734
2596.000000	5.788382
2594.000000	5.789774
2592.000000	5.790461
2590.000000	5.790317
2588.000000	5.791755
2586.000000	5.793901
2584.000000	5.796257
2582.000000	5.799209
2580.000000	5.802994
2578.000000	5.807281
2576.000000	5.809990
2574.000000	5.812543
2572.000000	5.814795
2570.000000	5.816968
2568.000000	5.819316
2566.000000	5.822080
2564.000000	5.824258
2562.000000	5.824939
2560.000000	5.824985
2558.000000	5.825510
2556.000000	5.827450
2554.000000	5.829775
2552.000000	5.831613
2550.000000	5.833009
2548.000000	5.834204
2546.000000	5.835732
2544.000000	5.837253
2542.000000	5.838261
2540.000000	5.840089
2538.000000	5.842713
2536.000000	5.843793
2534.000000	5.845049
2532.000000	5.846487
2530.000000	5.848199
2528.000000	5.849659
2526.000000	5.850713
2524.000000	5.851419
2522.000000	5.853279
2520.000000	5.855823
2518.000000	5.857940
2516.000000	5.859646
2514.000000	5.861089
2512.000000	5.863180
2510.000000	5.864891
2508.000000	5.866192
2506.000000	5.867282
2504.000000	5.867339
2502.000000	5.867656
2500.000000	5.868658
2498.000000	5.870108
2496.000000	5.872864
2494.000000	5.875948
2492.000000	5.877809
2490.000000	5.879152
2488.000000	5.880376
2486.000000	5.881409
2484.000000	5.883135
2482.000000	5.885647
2480.000000	5.887574
2478.000000	5.889183
2476.000000	5.890782
2474.000000	5.891865
2472.000000	5.893104
2470.000000	5.894637
2468.000000	5.894971
2466.000000	5.894911
2464.000000	5.895276
2462.000000	5.896021
2460.000000	5.897491
2458.000000	5.897994
2456.000000	5.898533
2454.000000	5.899958
2452.000000	5.901536
2450.000000	5.902424
2448.000000	5.904011
2446.000000	5.906052
2444.000000	5.907308
2442.000000	5.907297
2440.000000	5.907987
2438.000000	5.910416
2436.000000	5.912631
2434.000000	5.913587
2432.000000	5.913455
2430.000000	5.913697
2428.000000	5.914657
2426.000000	5.915324
2424.000000	5.914938
2422.000000	5.915925
2420.000000	5.918597
2418.000000	5.920858
2416.000000	5.922501
2414.000000	5.924117
2412.000000	5.925062
2410.000000	5.926359
2408.000000	5.928591
2406.000000	5.929759
2404.000000	5.930661
2402.000000	5.932077
2400.000000	5.933669
2398.000000	5.936093
2396.000000	5.938346
2394.000000	5.939475
2392.000000	5.940592
2390.000000	5.942484
2388.000000	5.943862
2386.000000	5.944678
2384.000000	5.944905
2382.000000	5.941607
2380.000000	5.930904
2378.000000	5.913102
2376.000000	5.893776
2374.000000	5.875475
2372.000000	5.855950
2370.000000	5.835476
2368.000000	5.816690
2366.000000	5.799949
2364.000000	5.787050
2362.000000	5.779812
2360.000000	5.776930
2358.000000	5.781297
2356.000000	5.794606
2354.000000	5.815007
2352.000000	5.838372
2350.000000	5.859412
2348.000000	5.865851
2346.000000	5.851382
2344.000000	5.827658
2342.000000	5.805959
2340.000000	5.789221
2338.000000	5.782961
2336.000000	5.786730
2334.000000	5.794424
2332.000000	5.802185
2330.000000	5.811261
2328.000000	5.822800
2326.000000	5.834366
2324.000000	5.844176
2322.000000	5.853917
2320.000000	5.863962
2318.000000	5.874262
2316.000000	5.883829
2314.000000	5.890796
2312.000000	5.896582
2310.000000	5.903487
2308.000000	5.908926
2306.000000	5.912728
2304.000000	5.917258
2302.000000	5.919841
2300.000000	5.921686
2298.000000	5.924131
2296.000000	5.925051
2294.000000	5.925440
2292.000000	5.926851
2290.000000	5.929255
2288.000000	5.931761
2286.000000	5.932705
2284.000000	5.931116
2282.000000	5.928409
2280.000000	5.926950
2278.000000	5.927887
2276.000000	5.929542
2274.000000	5.930768
2272.000000	5.930913
2270.000000	5.930557
2268.000000	5.931372
2266.000000	5.932609
2264.000000	5.932927
2262.000000	5.933467
2260.000000	5.933920
2258.000000	5.933974
2256.000000	5.934532
2254.000000	5.935847
2252.000000	5.936941
2250.000000	5.938137
2248.000000	5.939483
2246.000000	5.939850
2244.000000	5.941123
2242.000000	5.943720
2240.000000	5.945439
2238.000000	5.947226
2236.000000	5.948456
2234.000000	5.948560
2232.000000	5.949894
2230.000000	5.951715
2228.000000	5.954103
2226.000000	5.957024
2224.000000	5.960611
2222.000000	5.962756
2220.000000	5.962645
2218.000000	5.962576
2216.000000	5.963828
2214.000000	5.965324
2212.000000	5.966624
2210.000000	5.967834
2208.000000	5.969390
2206.000000	5.970889
2204.000000	5.972015
2202.000000	5.972979
2200.000000	5.972783
2198.000000	5.973732
2196.000000	5.975763
2194.000000	5.977496
2192.000000	5.977085
2190.000000	5.975897
2188.000000	5.976205
2186.000000	5.977275
2184.000000	5.978974
2182.000000	5.980751
2180.000000	5.980647
2178.000000	5.981013
2176.000000	5.983593
2174.000000	5.985844
2172.000000	5.986236
2170.000000	5.984092
2168.000000	5.982688
2166.000000	5.983751
2164.000000	5.985755
2162.000000	5.986321
2160.000000	5.987975
2158.000000	5.991611
2156.000000	5.993507
2154.000000	5.992804
2152.000000	5.992597
2150.000000	5.991842
2148.000000	5.992369
2146.000000	5.992440
2144.000000	5.991304
2142.000000	5.993883
2140.000000	5.997328
2138.000000	5.997927
2136.000000	5.998765
2134.000000	5.999226
2132.000000	6.000084
2130.000000	6.000916
2128.000000	6.001193
2126.000000	5.998476
2124.000000	5.997287
2122.000000	6.003096
2120.000000	6.007070
2118.000000	6.007391
2116.000000	6.005431
2114.000000	6.005546
2112.000000	6.008831
2110.000000	6.010833
2108.000000	6.011272
2106.000000	6.010511
2104.000000	6.014024
2102.000000	6.018294
2100.000000	6.017274
2098.000000	6.015723
2096.000000	6.017113
2094.000000	6.016235
2092.000000	6.017222
2090.000000	6.019106
2088.000000	6.022423
2086.000000	6.026540
2084.000000	6.028427
2082.000000	6.031994
2080.000000	6.034949
2078.000000	6.032906
2076.000000	6.028676
2074.000000	6.028470
2072.000000	6.030603
2070.000000	6.036242
2068.000000	6.039634
2066.000000	6.036277
2064.000000	6.035240
2062.000000	6.041296
2060.000000	6.045421
2058.000000	6.045336
2056.000000	6.049289
2054.000000	6.053462
2052.000000	6.052938
2050.000000	6.051227
2048.000000	6.051897
2046.000000	6.054599
2044.000000	6.056914
2042.000000	6.057871
2040.000000	6.057304
2038.000000	6.058830
2036.000000	6.063224
2034.000000	6.066030
2032.000000	6.064383
2030.000000	6.063419
2028.000000	6.064090
2026.000000	6.067419
2024.000000	6.072686
2022.000000	6.075806
2020.000000	6.075094
2018.000000	6.072347
2016.000000	6.071989
2014.000000	6.075493
2012.000000	6.079420
2010.000000	6.080089
2008.000000	6.079646
2006.000000	6.079630
2004.000000	6.079331
2002.000000	6.080772
2000.000000	6.083002
1998.000000	6.082902
1996.000000	6.083754
1994.000000	6.083928
1992.000000	6.081059
1990.000000	6.081923
1988.000000	6.085559
1986.000000	6.086700
1984.000000	6.087191
1982.000000	6.087240
1980.000000	6.086198
1978.000000	6.086209
1976.000000	6.086967
1974.000000	6.086072
1972.000000	6.083843
1970.000000	6.081152
1968.000000	6.076381
1966.000000	6.073744
1964.000000	6.076412
1962.000000	6.076351
1960.000000	6.068945
1958.000000	6.063123
1956.000000	6.068550
1954.000000	6.072078
1952.000000	6.071051
1950.000000	6.069020
1948.000000	6.067937
1946.000000	6.066440
1944.000000	6.061098
1942.000000	6.054564
1940.000000	6.057561
1938.000000	6.062864
1936.000000	6.062702
1934.000000	6.059513
1932.000000	6.055931
1930.000000	6.052711
1928.000000	6.050034
1926.000000	6.046786
1924.000000	6.040973
1922.000000	6.035449
1920.000000	6.032274
1918.000000	6.021808
1916.000000	6.022578
1914.000000	6.032806
1912.000000	6.031874
1910.000000	6.025330
1908.000000	6.020869
1906.000000	6.020661
1904.000000	6.019141
1902.000000	6.015163
1900.000000	6.011359
1898.000000	6.008790
1896.000000	6.003842
1894.000000	6.000807
1892.000000	6.000301
1890.000000	5.992302
1888.000000	5.989378
1886.000000	5.995497
1884.000000	5.996839
1882.000000	5.996404
1880.000000	5.994618
1878.000000	5.992037
1876.000000	5.990356
1874.000000	5.989436
1872.000000	5.983943
1870.000000	5.964017
1868.000000	5.949988
1866.000000	5.964224
1864.000000	5.978385
1862.000000	5.980603
1860.000000	5.977326
1858.000000	5.975119
1856.000000	5.974260
1854.000000	5.972362
1852.000000	5.968548
1850.000000	5.965441
1848.000000	5.958891
1846.000000	5.936270
1844.000000	5.903442
1842.000000	5.916683
1840.000000	5.945749
1838.000000	5.947540
1836.000000	5.942608
1834.000000	5.939621
1832.000000	5.927985
1830.000000	5.904307
1828.000000	5.902002
1826.000000	5.904658
1824.000000	5.899640
1822.000000	5.909835
1820.000000	5.914117
1818.000000	5.909155
1816.000000	5.903560
1814.000000	5.899415
1812.000000	5.888695
1810.000000	5.880147
1808.000000	5.879431
1806.000000	5.878372
1804.000000	5.870103
1802.000000	5.852055
1800.000000	5.836084
1798.000000	5.837046
1796.000000	5.836821
1794.000000	5.809171
1792.000000	5.774859
1790.000000	5.788832
1788.000000	5.812568
1786.000000	5.805718
1784.000000	5.791659
1782.000000	5.787332
1780.000000	5.780313
1778.000000	5.778043
1776.000000	5.768203
1774.000000	5.724875
1772.000000	5.676385
1770.000000	5.692393
1768.000000	5.714532
1766.000000	5.727992
1764.000000	5.732807
1762.000000	5.705424
1760.000000	5.699131
1758.000000	5.702833
1756.000000	5.690792
1754.000000	5.685361
1752.000000	5.646201
1750.000000	5.612967
1748.000000	5.625514
1746.000000	5.637834
1744.000000	5.634002
1742.000000	5.615957
1740.000000	5.589132
1738.000000	5.584044
1736.000000	5.553550
1734.000000	5.468345
1732.000000	5.489733
1730.000000	5.563804
1728.000000	5.587870
1726.000000	5.591914
1724.000000	5.584215
1722.000000	5.576994
1720.000000	5.541687
1718.000000	5.455123
1716.000000	5.431006
1714.000000	5.490765
1712.000000	5.532661
1710.000000	5.540160
1708.000000	5.521558
1706.000000	5.493438
1704.000000	5.477316
1702.000000	5.430557
1700.000000	5.342915
1698.000000	5.354502
1696.000000	5.354124
1694.000000	5.390896
1692.000000	5.476203
1690.000000	5.487751
1688.000000	5.469885
1686.000000	5.389278
1684.000000	5.302420
1682.000000	5.366198
1680.000000	5.446391
1678.000000	5.452952
1676.000000	5.413468
1674.000000	5.392662
1672.000000	5.408621
1670.000000	5.383009
1668.000000	5.381488
1666.000000	5.414904
1664.000000	5.406611
1662.000000	5.383385
1660.000000	5.398569
1658.000000	5.404073
1656.000000	5.355351
1654.000000	5.202978
1652.000000	5.133151
1650.000000	5.258782
1648.000000	5.298264
1646.000000	5.256048
1644.000000	5.288352
1642.000000	5.333294
1640.000000	5.329423
1638.000000	5.287904
1636.000000	5.208385
1634.000000	5.202846
1632.000000	5.265414
1630.000000	5.275649
1628.000000	5.249422
1626.000000	5.226125
1624.000000	5.191446
1622.000000	5.165152
1620.000000	5.158607
1618.000000	5.096628
1616.000000	5.034083
1614.000000	5.057720
1612.000000	5.063333
1610.000000	5.024907
1608.000000	4.998957
1606.000000	4.995571
1604.000000	5.004635
1602.000000	5.016901
1600.000000	5.031899
1598.000000	5.043955
1596.000000	5.051879
1594.000000	5.057661
1592.000000	5.064309
1590.000000	5.065720
1588.000000	5.063856
1586.000000	5.059894
1584.000000	5.055009
1582.000000	5.051398
1580.000000	5.047532
1578.000000	5.004345
1576.000000	4.937606
1574.000000	4.969817
1572.000000	5.016804
1570.000000	4.987480
1568.000000	4.980966
1566.000000	4.994944
1564.000000	4.985091
1562.000000	4.931827
1560.000000	4.796704
1558.000000	4.740143
1556.000000	4.834016
1554.000000	4.900245
1552.000000	4.940455
1550.000000	4.966398
1548.000000	4.981393
1546.000000	4.978124
1544.000000	4.948761
1542.000000	4.898803
1540.000000	4.845894
1538.000000	4.896372
1536.000000	5.006004
1534.000000	5.022704
1532.000000	5.030685
1530.000000	5.061530
1528.000000	5.057111
1526.000000	5.033545
1524.000000	5.014448
1522.000000	4.965919
1520.000000	4.951474
1518.000000	4.988735
1516.000000	4.994898
1514.000000	4.999240
1512.000000	4.992181
1510.000000	4.966185
1508.000000	4.880075
1506.000000	4.800379
1504.000000	4.839043
1502.000000	4.854758
1500.000000	4.738739
1498.000000	4.546216
1496.000000	4.370583
1494.000000	4.324650
1492.000000	4.375564
1490.000000	4.457048
1488.000000	4.567410
1486.000000	4.674265
1484.000000	4.751151
1482.000000	4.789526
1480.000000	4.806553
1478.000000	4.804844
1476.000000	4.779863
1474.000000	4.738093
1472.000000	4.711625
1470.000000	4.741075
1468.000000	4.756057
1466.000000	4.719228
1464.000000	4.685823
1462.000000	4.681930
1460.000000	4.639885
1458.000000	4.525154
1456.000000	4.438262
1454.000000	4.445692
1452.000000	4.438192
1450.000000	4.428783
1448.000000	4.463139
1446.000000	4.524908
1444.000000	4.567375
1442.000000	4.577960
1440.000000	4.573198
1438.000000	4.541412
1436.000000	4.519154
1434.000000	4.557751
1432.000000	4.579199
1430.000000	4.572587
1428.000000	4.574794
1426.000000	4.580295
1424.000000	4.572841
1422.000000	4.560511
1420.000000	4.518864
1418.000000	4.501566
1416.000000	4.528962
1414.000000	4.535760
1412.000000	4.519609
1410.000000	4.492508
1408.000000	4.454563
1406.000000	4.404115
1404.000000	4.367030
1402.000000	4.364180
1400.000000	4.371353
1398.000000	4.388856
1396.000000	4.411507
1394.000000	4.428304
1392.000000	4.457338
1390.000000	4.467881
1388.000000	4.447042
1386.000000	4.429155
1384.000000	4.428125
1382.000000	4.433663
1380.000000	4.440646
1378.000000	4.439364
1376.000000	4.430067
1374.000000	4.418041
1372.000000	4.418623
1370.000000	4.418947
1368.000000	4.411264
1366.000000	4.401980
1364.000000	4.385097
1362.000000	4.370030
1360.000000	4.368984
1358.000000	4.367341
1356.000000	4.357415
1354.000000	4.345234
1352.000000	4.334101
1350.000000	4.321784
1348.000000	4.309785
1346.000000	4.297569
1344.000000	4.284124
1342.000000	4.268195
1340.000000	4.249577
1338.000000	4.238925
1336.000000	4.238199
1334.000000	4.236875
1332.000000	4.229984
1330.000000	4.218809
1328.000000	4.205916
1326.000000	4.193151
1324.000000	4.181174
1322.000000	4.166010
1320.000000	4.147685
1318.000000	4.129936
1316.000000	4.113006
1314.000000	4.095172
1312.000000	4.077889
1310.000000	4.061376
1308.000000	4.043958
1306.000000	4.025425
1304.000000	4.007031
1302.000000	3.987883
1300.000000	3.967902
1298.000000	3.947632
1296.000000	3.927158
1294.000000	3.907359
1292.000000	3.887253
1290.000000	3.863856
1288.000000	3.840046
1286.000000	3.817091
1284.000000	3.793615
1282.000000	3.767940
1280.000000	3.740546
1278.000000	3.711555
1276.000000	3.680028
1274.000000	3.644092
1272.000000	3.602075
1270.000000	3.549445
1268.000000	3.480814
1266.000000	3.395542
1264.000000	3.302168
1262.000000	3.219311
1260.000000	3.171506
1258.000000	3.167321
1256.000000	3.191047
1254.000000	3.218578
1252.000000	3.232050
1250.000000	3.226866
1248.000000	3.206951
1246.000000	3.179877
1244.000000	3.150479
1242.000000	3.120613
1240.000000	3.090688
1238.000000	3.060302
1236.000000	3.031088
1234.000000	3.002923
1232.000000	2.975129
1230.000000	2.946244
1228.000000	2.918080
1226.000000	2.890928
1224.000000	2.863364
1222.000000	2.835053
1220.000000	2.805972
1218.000000	2.775459
1216.000000	2.744829
1214.000000	2.714376
1212.000000	2.684596
1210.000000	2.656374
1208.000000	2.630544
1206.000000	2.606206
1204.000000	2.582470
1202.000000	2.558612
1200.000000	2.534396
1198.000000	2.510315
1196.000000	2.486136
1194.000000	2.461308
1192.000000	2.436760
1190.000000	2.409938
1188.000000	2.382591
1186.000000	2.355907
1184.000000	2.323411
1182.000000	2.281223
1180.000000	2.243949
1178.000000	2.224439
1176.000000	2.210483
1174.000000	2.190287
1172.000000	2.165335
1170.000000	2.138578
1168.000000	2.110308
1166.000000	2.082805
1164.000000	2.056256
1162.000000	2.029303
1160.000000	2.002501
1158.000000	1.976370
1156.000000	1.950721
1154.000000	1.925155
1152.000000	1.899823
1150.000000	1.875614
1148.000000	1.851629
1146.000000	1.826240
1144.000000	1.800082
1142.000000	1.776081
1140.000000	1.757429
1138.000000	1.739923
1136.000000	1.720011
1134.000000	1.697263
1132.000000	1.673028
1130.000000	1.648897
1128.000000	1.624951
1126.000000	1.601828
1124.000000	1.579138
1122.000000	1.554329
1120.000000	1.528549
1118.000000	1.502867
1116.000000	1.475853
1114.000000	1.448113
1112.000000	1.420894
1110.000000	1.394777
1108.000000	1.368681
1106.000000	1.342222
1104.000000	1.318903
1102.000000	1.296578
1100.000000	1.272112
1098.000000	1.247695
1096.000000	1.226590
1094.000000	1.205590
1092.000000	1.184636
1090.000000	1.165556
1088.000000	1.146927
1086.000000	1.129411
1084.000000	1.112361
1082.000000	1.094345
1080.000000	1.075521
1078.000000	1.058652
1076.000000	1.044396
1074.000000	1.032746
1072.000000	1.021586
1070.000000	1.010381
1068.000000	0.999893
1066.000000	0.987078
1064.000000	0.975534
1062.000000	0.964059
1060.000000	0.952323
1058.000000	0.939064
1056.000000	0.920763
1054.000000	0.895652
1052.000000	0.868312
1050.000000	0.848807
1048.000000	0.844362
1046.000000	0.849590
1044.000000	0.852218
1042.000000	0.847486
1040.000000	0.838164
1038.000000	0.826966
1036.000000	0.815294
1034.000000	0.803553
1032.000000	0.790130
1030.000000	0.776362
1028.000000	0.763143
1026.000000	0.748515
1024.000000	0.734895
1022.000000	0.721202
1020.000000	0.707264
1018.000000	0.694704
1016.000000	0.685061
1014.000000	0.677403
1012.000000	0.669943
1010.000000	0.663019
1008.000000	0.655385
1006.000000	0.647211
1004.000000	0.638715
1002.000000	0.628125
1000.000000	0.616596
