PE IR       SUBTECH     SPECTRUM    ASCII       PEDS        4.00        
   -1
TE110A_096_160K_2MIN.ASC
20/05/14
17:07:50.00
20/05/14
17:07:50.00
Administrator
TE110A.Thursday, May 14 2020, 006.
1000.000000
#HDR
-1
-1
#GR
cm-1
A
1.0
0.0
6000.000000
-2.000000
2501
8
1.143237
1.088429
#DATA
6000.000000	1.104889
5998.000000	1.105130
5996.000000	1.105118
5994.000000	1.105142
5992.000000	1.104934
5990.000000	1.104686
5988.000000	1.104475
5986.000000	1.104314
5984.000000	1.104524
5982.000000	1.104986
5980.000000	1.105447
5978.000000	1.105564
5976.000000	1.105303
5974.000000	1.104955
5972.000000	1.104790
5970.000000	1.104675
5968.000000	1.104503
5966.000000	1.104500
5964.000000	1.104533
5962.000000	1.104276
5960.000000	1.104010
5958.000000	1.104183
5956.000000	1.104760
5954.000000	1.105090
5952.000000	1.104619
5950.000000	1.104284
5948.000000	1.104359
5946.000000	1.104536
5944.000000	1.104358
5942.000000	1.104057
5940.000000	1.104368
5938.000000	1.104686
5936.000000	1.104761
5934.000000	1.104408
5932.000000	1.104378
5930.000000	1.104425
5928.000000	1.104249
5926.000000	1.104028
5924.000000	1.104076
5922.000000	1.104379
5920.000000	1.104156
5918.000000	1.103839
5916.000000	1.103862
5914.000000	1.104064
5912.000000	1.104309
5910.000000	1.104029
5908.000000	1.103781
5906.000000	1.103689
5904.000000	1.103794
5902.000000	1.103978
5900.000000	1.104141
5898.000000	1.104212
5896.000000	1.104101
5894.000000	1.103951
5892.000000	1.103823
5890.000000	1.104053
5888.000000	1.104392
5886.000000	1.104435
5884.000000	1.104241
5882.000000	1.103907
5880.000000	1.103689
5878.000000	1.103787
5876.000000	1.103793
5874.000000	1.103655
5872.000000	1.103387
5870.000000	1.103153
5868.000000	1.103096
5866.000000	1.103072
5864.000000	1.102974
5862.000000	1.102935
5860.000000	1.103087
5858.000000	1.103246
5856.000000	1.103436
5854.000000	1.103324
5852.000000	1.103065
5850.000000	1.103206
5848.000000	1.103385
5846.000000	1.103422
5844.000000	1.103308
5842.000000	1.103322
5840.000000	1.103538
5838.000000	1.103309
5836.000000	1.103249
5834.000000	1.103487
5832.000000	1.103779
5830.000000	1.103795
5828.000000	1.103568
5826.000000	1.103570
5824.000000	1.103721
5822.000000	1.103621
5820.000000	1.103657
5818.000000	1.103636
5816.000000	1.103475
5814.000000	1.103441
5812.000000	1.103635
5810.000000	1.104113
5808.000000	1.104256
5806.000000	1.103858
5804.000000	1.103519
5802.000000	1.103506
5800.000000	1.103596
5798.000000	1.103453
5796.000000	1.103281
5794.000000	1.103312
5792.000000	1.103440
5790.000000	1.103341
5788.000000	1.102971
5786.000000	1.102910
5784.000000	1.103149
5782.000000	1.103446
5780.000000	1.103321
5778.000000	1.103018
5776.000000	1.103004
5774.000000	1.103246
5772.000000	1.103179
5770.000000	1.103323
5768.000000	1.103516
5766.000000	1.103362
5764.000000	1.102905
5762.000000	1.102603
5760.000000	1.103093
5758.000000	1.103643
5756.000000	1.103499
5754.000000	1.103114
5752.000000	1.102734
5750.000000	1.102494
5748.000000	1.102588
5746.000000	1.102893
5744.000000	1.103168
5742.000000	1.103059
5740.000000	1.102832
5738.000000	1.102731
5736.000000	1.102809
5734.000000	1.102768
5732.000000	1.102792
5730.000000	1.102862
5728.000000	1.102795
5726.000000	1.102684
5724.000000	1.102778
5722.000000	1.102826
5720.000000	1.102839
5718.000000	1.102943
5716.000000	1.103125
5714.000000	1.103019
5712.000000	1.102691
5710.000000	1.102745
5708.000000	1.103123
5706.000000	1.103152
5704.000000	1.102874
5702.000000	1.102803
5700.000000	1.102980
5698.000000	1.102951
5696.000000	1.102758
5694.000000	1.102550
5692.000000	1.102547
5690.000000	1.102588
5688.000000	1.102724
5686.000000	1.102621
5684.000000	1.102496
5682.000000	1.102549
5680.000000	1.102752
5678.000000	1.102819
5676.000000	1.102786
5674.000000	1.102617
5672.000000	1.102394
5670.000000	1.102307
5668.000000	1.102470
5666.000000	1.102692
5664.000000	1.102686
5662.000000	1.102674
5660.000000	1.102577
5658.000000	1.102474
5656.000000	1.102429
5654.000000	1.102565
5652.000000	1.102611
5650.000000	1.102444
5648.000000	1.102373
5646.000000	1.102443
5644.000000	1.102612
5642.000000	1.102765
5640.000000	1.102836
5638.000000	1.102794
5636.000000	1.102593
5634.000000	1.102282
5632.000000	1.102194
5630.000000	1.102327
5628.000000	1.102611
5626.000000	1.102849
5624.000000	1.102906
5622.000000	1.102656
5620.000000	1.102201
5618.000000	1.102007
5616.000000	1.102175
5614.000000	1.102350
5612.000000	1.102474
5610.000000	1.102364
5608.000000	1.102083
5606.000000	1.101833
5604.000000	1.101951
5602.000000	1.102375
5600.000000	1.102633
5598.000000	1.102638
5596.000000	1.102512
5594.000000	1.102364
5592.000000	1.102134
5590.000000	1.101966
5588.000000	1.102003
5586.000000	1.102266
5584.000000	1.102578
5582.000000	1.102507
5580.000000	1.102259
5578.000000	1.102188
5576.000000	1.102325
5574.000000	1.102332
5572.000000	1.102020
5570.000000	1.101747
5568.000000	1.101550
5566.000000	1.101542
5564.000000	1.101722
5562.000000	1.102007
5560.000000	1.102202
5558.000000	1.102114
5556.000000	1.101868
5554.000000	1.101607
5552.000000	1.101513
5550.000000	1.101529
5548.000000	1.101555
5546.000000	1.101539
5544.000000	1.101621
5542.000000	1.101793
5540.000000	1.101751
5538.000000	1.101568
5536.000000	1.101516
5534.000000	1.101683
5532.000000	1.101863
5530.000000	1.101838
5528.000000	1.101605
5526.000000	1.101617
5524.000000	1.101759
5522.000000	1.102013
5520.000000	1.101986
5518.000000	1.101775
5516.000000	1.101782
5514.000000	1.101934
5512.000000	1.102156
5510.000000	1.102141
5508.000000	1.101949
5506.000000	1.101682
5504.000000	1.101519
5502.000000	1.101587
5500.000000	1.101599
5498.000000	1.101412
5496.000000	1.101295
5494.000000	1.101442
5492.000000	1.101498
5490.000000	1.101392
5488.000000	1.101404
5486.000000	1.101634
5484.000000	1.101657
5482.000000	1.101317
5480.000000	1.100996
5478.000000	1.100874
5476.000000	1.101024
5474.000000	1.101205
5472.000000	1.101241
5470.000000	1.101178
5468.000000	1.101094
5466.000000	1.101054
5464.000000	1.100897
5462.000000	1.100821
5460.000000	1.100919
5458.000000	1.101266
5456.000000	1.101703
5454.000000	1.101828
5452.000000	1.101491
5450.000000	1.100894
5448.000000	1.100637
5446.000000	1.100664
5444.000000	1.100828
5442.000000	1.101044
5440.000000	1.101266
5438.000000	1.101207
5436.000000	1.101071
5434.000000	1.101007
5432.000000	1.101088
5430.000000	1.101179
5428.000000	1.101374
5426.000000	1.101641
5424.000000	1.101717
5422.000000	1.101626
5420.000000	1.101407
5418.000000	1.101012
5416.000000	1.100676
5414.000000	1.100538
5412.000000	1.100656
5410.000000	1.100880
5408.000000	1.101097
5406.000000	1.101091
5404.000000	1.100982
5402.000000	1.101043
5400.000000	1.101159
5398.000000	1.100911
5396.000000	1.100664
5394.000000	1.100718
5392.000000	1.100925
5390.000000	1.100862
5388.000000	1.100600
5386.000000	1.100577
5384.000000	1.100784
5382.000000	1.100931
5380.000000	1.100678
5378.000000	1.100481
5376.000000	1.100649
5374.000000	1.101014
5372.000000	1.101034
5370.000000	1.100840
5368.000000	1.100638
5366.000000	1.100577
5364.000000	1.100601
5362.000000	1.100671
5360.000000	1.100717
5358.000000	1.100629
5356.000000	1.100363
5354.000000	1.100298
5352.000000	1.100493
5350.000000	1.100765
5348.000000	1.100494
5346.000000	1.100221
5344.000000	1.100380
5342.000000	1.100509
5340.000000	1.100379
5338.000000	1.100280
5336.000000	1.100539
5334.000000	1.100791
5332.000000	1.100683
5330.000000	1.100520
5328.000000	1.100477
5326.000000	1.100649
5324.000000	1.100937
5322.000000	1.101167
5320.000000	1.101163
5318.000000	1.101050
5316.000000	1.101095
5314.000000	1.101177
5312.000000	1.101062
5310.000000	1.100806
5308.000000	1.100596
5306.000000	1.100455
5304.000000	1.100364
5302.000000	1.100373
5300.000000	1.100548
5298.000000	1.100706
5296.000000	1.100819
5294.000000	1.100605
5292.000000	1.100431
5290.000000	1.100410
5288.000000	1.100526
5286.000000	1.100548
5284.000000	1.100618
5282.000000	1.100661
5280.000000	1.100622
5278.000000	1.100502
5276.000000	1.100379
5274.000000	1.100230
5272.000000	1.100153
5270.000000	1.100137
5268.000000	1.100041
5266.000000	1.100012
5264.000000	1.100131
5262.000000	1.100367
5260.000000	1.100416
5258.000000	1.100212
5256.000000	1.100151
5254.000000	1.100293
5252.000000	1.100255
5250.000000	1.100034
5248.000000	1.099972
5246.000000	1.100309
5244.000000	1.100620
5242.000000	1.100667
5240.000000	1.100551
5238.000000	1.100365
5236.000000	1.100317
5234.000000	1.100320
5232.000000	1.100415
5230.000000	1.100483
5228.000000	1.100412
5226.000000	1.100265
5224.000000	1.100261
5222.000000	1.100409
5220.000000	1.100489
5218.000000	1.100517
5216.000000	1.100523
5214.000000	1.100483
5212.000000	1.100395
5210.000000	1.100146
5208.000000	1.100073
5206.000000	1.100332
5204.000000	1.100713
5202.000000	1.100883
5200.000000	1.100739
5198.000000	1.100661
5196.000000	1.100595
5194.000000	1.100607
5192.000000	1.100571
5190.000000	1.100462
5188.000000	1.100215
5186.000000	1.100117
5184.000000	1.100207
5182.000000	1.100362
5180.000000	1.100386
5178.000000	1.100396
5176.000000	1.100517
5174.000000	1.100520
5172.000000	1.100393
5170.000000	1.100191
5168.000000	1.100191
5166.000000	1.100358
5164.000000	1.100512
5162.000000	1.100536
5160.000000	1.100546
5158.000000	1.100580
5156.000000	1.100629
5154.000000	1.100529
5152.000000	1.100426
5150.000000	1.100445
5148.000000	1.100533
5146.000000	1.100593
5144.000000	1.100621
5142.000000	1.100627
5140.000000	1.100549
5138.000000	1.100486
5136.000000	1.100531
5134.000000	1.100583
5132.000000	1.100670
5130.000000	1.100746
5128.000000	1.100824
5126.000000	1.100777
5124.000000	1.100697
5122.000000	1.100593
5120.000000	1.100573
5118.000000	1.100582
5116.000000	1.100549
5114.000000	1.100439
5112.000000	1.100386
5110.000000	1.100487
5108.000000	1.100578
5106.000000	1.100635
5104.000000	1.100712
5102.000000	1.100749
5100.000000	1.100695
5098.000000	1.100559
5096.000000	1.100481
5094.000000	1.100277
5092.000000	1.100227
5090.000000	1.100361
5088.000000	1.100609
5086.000000	1.100673
5084.000000	1.100632
5082.000000	1.100525
5080.000000	1.100472
5078.000000	1.100545
5076.000000	1.100586
5074.000000	1.100548
5072.000000	1.100587
5070.000000	1.100677
5068.000000	1.100692
5066.000000	1.100609
5064.000000	1.100590
5062.000000	1.100600
5060.000000	1.100593
5058.000000	1.100647
5056.000000	1.100727
5054.000000	1.100845
5052.000000	1.100955
5050.000000	1.101016
5048.000000	1.101056
5046.000000	1.101020
5044.000000	1.100861
5042.000000	1.100604
5040.000000	1.100531
5038.000000	1.100722
5036.000000	1.100960
5034.000000	1.101087
5032.000000	1.101152
5030.000000	1.101127
5028.000000	1.101041
5026.000000	1.100936
5024.000000	1.100924
5022.000000	1.100952
5020.000000	1.100940
5018.000000	1.101001
5016.000000	1.101032
5014.000000	1.101082
5012.000000	1.101129
5010.000000	1.101210
5008.000000	1.101214
5006.000000	1.101277
5004.000000	1.101228
5002.000000	1.101043
5000.000000	1.100924
4998.000000	1.100947
4996.000000	1.100994
4994.000000	1.101045
4992.000000	1.101073
4990.000000	1.100940
4988.000000	1.100854
4986.000000	1.101030
4984.000000	1.101128
4982.000000	1.100958
4980.000000	1.100801
4978.000000	1.100999
4976.000000	1.101116
4974.000000	1.100984
4972.000000	1.100881
4970.000000	1.101006
4968.000000	1.101097
4966.000000	1.101134
4964.000000	1.101254
4962.000000	1.101282
4960.000000	1.101170
4958.000000	1.101135
4956.000000	1.101244
4954.000000	1.101248
4952.000000	1.101232
4950.000000	1.101330
4948.000000	1.101385
4946.000000	1.101286
4944.000000	1.101185
4942.000000	1.101247
4940.000000	1.101293
4938.000000	1.101295
4936.000000	1.101266
4934.000000	1.101260
4932.000000	1.101278
4930.000000	1.101380
4928.000000	1.101486
4926.000000	1.101427
4924.000000	1.101349
4922.000000	1.101381
4920.000000	1.101428
4918.000000	1.101293
4916.000000	1.101161
4914.000000	1.101269
4912.000000	1.101485
4910.000000	1.101581
4908.000000	1.101546
4906.000000	1.101433
4904.000000	1.101321
4902.000000	1.101317
4900.000000	1.101292
4898.000000	1.101338
4896.000000	1.101479
4894.000000	1.101573
4892.000000	1.101493
4890.000000	1.101407
4888.000000	1.101368
4886.000000	1.101317
4884.000000	1.101310
4882.000000	1.101374
4880.000000	1.101465
4878.000000	1.101575
4876.000000	1.101599
4874.000000	1.101538
4872.000000	1.101509
4870.000000	1.101558
4868.000000	1.101530
4866.000000	1.101528
4864.000000	1.101661
4862.000000	1.101811
4860.000000	1.101868
4858.000000	1.101829
4856.000000	1.101708
4854.000000	1.101695
4852.000000	1.101777
4850.000000	1.101802
4848.000000	1.101779
4846.000000	1.101708
4844.000000	1.101612
4842.000000	1.101649
4840.000000	1.101788
4838.000000	1.101843
4836.000000	1.101798
4834.000000	1.101735
4832.000000	1.101654
4830.000000	1.101601
4828.000000	1.101583
4826.000000	1.101744
4824.000000	1.101972
4822.000000	1.102002
4820.000000	1.101862
4818.000000	1.101816
4816.000000	1.101802
4814.000000	1.101739
4812.000000	1.101707
4810.000000	1.101728
4808.000000	1.101772
4806.000000	1.101825
4804.000000	1.101801
4802.000000	1.101772
4800.000000	1.101810
4798.000000	1.101876
4796.000000	1.101895
4794.000000	1.101899
4792.000000	1.101865
4790.000000	1.101753
4788.000000	1.101698
4786.000000	1.101795
4784.000000	1.101901
4782.000000	1.101833
4780.000000	1.101751
4778.000000	1.101809
4776.000000	1.101934
4774.000000	1.101959
4772.000000	1.101869
4770.000000	1.101852
4768.000000	1.101905
4766.000000	1.101980
4764.000000	1.102006
4762.000000	1.101969
4760.000000	1.101889
4758.000000	1.101876
4756.000000	1.101919
4754.000000	1.102040
4752.000000	1.102179
4750.000000	1.102181
4748.000000	1.102042
4746.000000	1.102020
4744.000000	1.102089
4742.000000	1.102042
4740.000000	1.101931
4738.000000	1.101906
4736.000000	1.101976
4734.000000	1.101978
4732.000000	1.101908
4730.000000	1.101849
4728.000000	1.101839
4726.000000	1.101835
4724.000000	1.101840
4722.000000	1.101829
4720.000000	1.101812
4718.000000	1.101872
4716.000000	1.102028
4714.000000	1.102070
4712.000000	1.101937
4710.000000	1.101861
4708.000000	1.101908
4706.000000	1.101914
4704.000000	1.101866
4702.000000	1.101992
4700.000000	1.102074
4698.000000	1.101910
4696.000000	1.101768
4694.000000	1.101862
4692.000000	1.101943
4690.000000	1.101889
4688.000000	1.101851
4686.000000	1.101903
4684.000000	1.101996
4682.000000	1.102046
4680.000000	1.102025
4678.000000	1.102031
4676.000000	1.102084
4674.000000	1.102152
4672.000000	1.102210
4670.000000	1.102171
4668.000000	1.102033
4666.000000	1.101960
4664.000000	1.102061
4662.000000	1.102267
4660.000000	1.102454
4658.000000	1.102485
4656.000000	1.102434
4654.000000	1.102399
4652.000000	1.102348
4650.000000	1.102278
4648.000000	1.102295
4646.000000	1.102320
4644.000000	1.102319
4642.000000	1.102314
4640.000000	1.102326
4638.000000	1.102323
4636.000000	1.102290
4634.000000	1.102141
4632.000000	1.102117
4630.000000	1.102205
4628.000000	1.102253
4626.000000	1.102236
4624.000000	1.102234
4622.000000	1.102243
4620.000000	1.102293
4618.000000	1.102330
4616.000000	1.102346
4614.000000	1.102463
4612.000000	1.102513
4610.000000	1.102368
4608.000000	1.102254
4606.000000	1.102325
4604.000000	1.102394
4602.000000	1.102300
4600.000000	1.102204
4598.000000	1.102297
4596.000000	1.102463
4594.000000	1.102458
4592.000000	1.102431
4590.000000	1.102493
4588.000000	1.102443
4586.000000	1.102303
4584.000000	1.102323
4582.000000	1.102462
4580.000000	1.102518
4578.000000	1.102488
4576.000000	1.102474
4574.000000	1.102476
4572.000000	1.102469
4570.000000	1.102547
4568.000000	1.102633
4566.000000	1.102609
4564.000000	1.102584
4562.000000	1.102666
4560.000000	1.102772
4558.000000	1.102810
4556.000000	1.102771
4554.000000	1.102749
4552.000000	1.102779
4550.000000	1.102734
4548.000000	1.102637
4546.000000	1.102573
4544.000000	1.102548
4542.000000	1.102597
4540.000000	1.102696
4538.000000	1.102658
4536.000000	1.102632
4534.000000	1.102755
4532.000000	1.102906
4530.000000	1.102893
4528.000000	1.102732
4526.000000	1.102556
4524.000000	1.102596
4522.000000	1.102813
4520.000000	1.102895
4518.000000	1.102780
4516.000000	1.102645
4514.000000	1.102620
4512.000000	1.102659
4510.000000	1.102729
4508.000000	1.102761
4506.000000	1.102739
4504.000000	1.102695
4502.000000	1.102622
4500.000000	1.102511
4498.000000	1.102511
4496.000000	1.102623
4494.000000	1.102629
4492.000000	1.102552
4490.000000	1.102594
4488.000000	1.102740
4486.000000	1.102847
4484.000000	1.102788
4482.000000	1.102681
4480.000000	1.102722
4478.000000	1.102882
4476.000000	1.102962
4474.000000	1.102915
4472.000000	1.102843
4470.000000	1.102857
4468.000000	1.102877
4466.000000	1.102863
4464.000000	1.102856
4462.000000	1.102879
4460.000000	1.102928
4458.000000	1.102952
4456.000000	1.102820
4454.000000	1.102770
4452.000000	1.102922
4450.000000	1.103042
4448.000000	1.102972
4446.000000	1.102874
4444.000000	1.102822
4442.000000	1.102822
4440.000000	1.102864
4438.000000	1.102911
4436.000000	1.102878
4434.000000	1.102809
4432.000000	1.102837
4430.000000	1.102906
4428.000000	1.102981
4426.000000	1.103068
4424.000000	1.103087
4422.000000	1.102972
4420.000000	1.102917
4418.000000	1.102951
4416.000000	1.102983
4414.000000	1.102943
4412.000000	1.102946
4410.000000	1.103018
4408.000000	1.103032
4406.000000	1.102953
4404.000000	1.102895
4402.000000	1.102892
4400.000000	1.102914
4398.000000	1.102925
4396.000000	1.102930
4394.000000	1.102924
4392.000000	1.102887
4390.000000	1.102911
4388.000000	1.103040
4386.000000	1.103143
4384.000000	1.103160
4382.000000	1.103102
4380.000000	1.103048
4378.000000	1.103081
4376.000000	1.103150
4374.000000	1.103184
4372.000000	1.103220
4370.000000	1.103267
4368.000000	1.103235
4366.000000	1.103160
4364.000000	1.103178
4362.000000	1.103295
4360.000000	1.103301
4358.000000	1.103194
4356.000000	1.103158
4354.000000	1.103205
4352.000000	1.103240
4350.000000	1.103207
4348.000000	1.103106
4346.000000	1.103102
4344.000000	1.103201
4342.000000	1.103250
4340.000000	1.103218
4338.000000	1.103203
4336.000000	1.103243
4334.000000	1.103273
4332.000000	1.103163
4330.000000	1.103049
4328.000000	1.103145
4326.000000	1.103343
4324.000000	1.103378
4322.000000	1.103258
4320.000000	1.103177
4318.000000	1.103212
4316.000000	1.103212
4314.000000	1.103112
4312.000000	1.103028
4310.000000	1.103005
4308.000000	1.103074
4306.000000	1.103202
4304.000000	1.103246
4302.000000	1.103219
4300.000000	1.103195
4298.000000	1.103160
4296.000000	1.103163
4294.000000	1.103225
4292.000000	1.103268
4290.000000	1.103280
4288.000000	1.103257
4286.000000	1.103204
4284.000000	1.103150
4282.000000	1.103142
4280.000000	1.103196
4278.000000	1.103255
4276.000000	1.103217
4274.000000	1.103175
4272.000000	1.103192
4270.000000	1.103203
4268.000000	1.103142
4266.000000	1.103048
4264.000000	1.103068
4262.000000	1.103176
4260.000000	1.103173
4258.000000	1.103106
4256.000000	1.103129
4254.000000	1.103182
4252.000000	1.103195
4250.000000	1.103202
4248.000000	1.103195
4246.000000	1.103164
4244.000000	1.103135
4242.000000	1.103151
4240.000000	1.103192
4238.000000	1.103195
4236.000000	1.103185
4234.000000	1.103183
4232.000000	1.103106
4230.000000	1.103068
4228.000000	1.103082
4226.000000	1.103010
4224.000000	1.102945
4222.000000	1.103019
4220.000000	1.103110
4218.000000	1.103073
4216.000000	1.102945
4214.000000	1.102972
4212.000000	1.103120
4210.000000	1.103159
4208.000000	1.103104
4206.000000	1.103063
4204.000000	1.102980
4202.000000	1.102889
4200.000000	1.102900
4198.000000	1.103016
4196.000000	1.103075
4194.000000	1.103032
4192.000000	1.103007
4190.000000	1.103030
4188.000000	1.103023
4186.000000	1.103005
4184.000000	1.102985
4182.000000	1.102967
4180.000000	1.102932
4178.000000	1.102872
4176.000000	1.102870
4174.000000	1.102971
4172.000000	1.103052
4170.000000	1.103064
4168.000000	1.103025
4166.000000	1.102978
4164.000000	1.102983
4162.000000	1.102955
4160.000000	1.102854
4158.000000	1.102828
4156.000000	1.102864
4154.000000	1.102899
4152.000000	1.102876
4150.000000	1.102760
4148.000000	1.102717
4146.000000	1.102834
4144.000000	1.102840
4142.000000	1.102628
4140.000000	1.102505
4138.000000	1.102617
4136.000000	1.102700
4134.000000	1.102720
4132.000000	1.102766
4130.000000	1.102752
4128.000000	1.102716
4126.000000	1.102708
4124.000000	1.102599
4122.000000	1.102490
4120.000000	1.102537
4118.000000	1.102624
4116.000000	1.102569
4114.000000	1.102485
4112.000000	1.102520
4110.000000	1.102568
4108.000000	1.102537
4106.000000	1.102529
4104.000000	1.102547
4102.000000	1.102511
4100.000000	1.102457
4098.000000	1.102472
4096.000000	1.102487
4094.000000	1.102451
4092.000000	1.102447
4090.000000	1.102488
4088.000000	1.102460
4086.000000	1.102401
4084.000000	1.102410
4082.000000	1.102435
4080.000000	1.102431
4078.000000	1.102448
4076.000000	1.102421
4074.000000	1.102326
4072.000000	1.102266
4070.000000	1.102300
4068.000000	1.102376
4066.000000	1.102437
4064.000000	1.102439
4062.000000	1.102380
4060.000000	1.102248
4058.000000	1.102134
4056.000000	1.102139
4054.000000	1.102144
4052.000000	1.102119
4050.000000	1.102147
4048.000000	1.102127
4046.000000	1.102013
4044.000000	1.101920
4042.000000	1.101912
4040.000000	1.101942
4038.000000	1.101972
4036.000000	1.101999
4034.000000	1.102014
4032.000000	1.101953
4030.000000	1.101858
4028.000000	1.101809
4026.000000	1.101805
4024.000000	1.101830
4022.000000	1.101853
4020.000000	1.101865
4018.000000	1.101867
4016.000000	1.101821
4014.000000	1.101792
4012.000000	1.101748
4010.000000	1.101654
4008.000000	1.101641
4006.000000	1.101724
4004.000000	1.101771
4002.000000	1.101786
4000.000000	1.101754
3998.000000	1.101657
3996.000000	1.101610
3994.000000	1.101636
3992.000000	1.101561
3990.000000	1.101527
3988.000000	1.101627
3986.000000	1.101593
3984.000000	1.101483
3982.000000	1.101498
3980.000000	1.101479
3978.000000	1.101383
3976.000000	1.101367
3974.000000	1.101445
3972.000000	1.101445
3970.000000	1.101421
3968.000000	1.101481
3966.000000	1.101422
3964.000000	1.101225
3962.000000	1.101180
3960.000000	1.101263
3958.000000	1.101280
3956.000000	1.101220
3954.000000	1.101046
3952.000000	1.100719
3950.000000	1.100561
3948.000000	1.100746
3946.000000	1.100789
3944.000000	1.100572
3942.000000	1.100732
3940.000000	1.101065
3938.000000	1.101022
3936.000000	1.100602
3934.000000	1.100047
3932.000000	1.100057
3930.000000	1.100607
3928.000000	1.100595
3926.000000	1.100122
3924.000000	1.099997
3922.000000	1.099860
3920.000000	1.099399
3918.000000	1.099387
3916.000000	1.100162
3914.000000	1.100790
3912.000000	1.100748
3910.000000	1.100380
3908.000000	1.099247
3906.000000	1.097461
3904.000000	1.096840
3902.000000	1.097690
3900.000000	1.098975
3898.000000	1.100348
3896.000000	1.100495
3894.000000	1.098884
3892.000000	1.098196
3890.000000	1.098982
3888.000000	1.098183
3886.000000	1.097521
3884.000000	1.098754
3882.000000	1.098927
3880.000000	1.099025
3878.000000	1.099679
3876.000000	1.098926
3874.000000	1.097591
3872.000000	1.096189
3870.000000	1.096455
3868.000000	1.098123
3866.000000	1.098137
3864.000000	1.098197
3862.000000	1.099288
3860.000000	1.099352
3858.000000	1.096014
3856.000000	1.089657
3854.000000	1.088999
3852.000000	1.096412
3850.000000	1.101303
3848.000000	1.100550
3846.000000	1.098799
3844.000000	1.097832
3842.000000	1.096424
3840.000000	1.093972
3838.000000	1.094125
3836.000000	1.097239
3834.000000	1.098668
3832.000000	1.098682
3830.000000	1.099032
3828.000000	1.098855
3826.000000	1.098086
3824.000000	1.096049
3822.000000	1.094799
3820.000000	1.095853
3818.000000	1.095351
3816.000000	1.095961
3814.000000	1.099500
3812.000000	1.100001
3810.000000	1.097193
3808.000000	1.095572
3806.000000	1.096448
3804.000000	1.095445
3802.000000	1.094343
3800.000000	1.097171
3798.000000	1.098909
3796.000000	1.098855
3794.000000	1.099441
3792.000000	1.099528
3790.000000	1.099208
3788.000000	1.098873
3786.000000	1.098605
3784.000000	1.098578
3782.000000	1.098148
3780.000000	1.097828
3778.000000	1.098560
3776.000000	1.099050
3774.000000	1.098374
3772.000000	1.097109
3770.000000	1.096929
3768.000000	1.097642
3766.000000	1.097899
3764.000000	1.097996
3762.000000	1.097410
3760.000000	1.096837
3758.000000	1.097283
3756.000000	1.095993
3754.000000	1.091878
3752.000000	1.089727
3750.000000	1.092242
3748.000000	1.093208
3746.000000	1.090332
3744.000000	1.092768
3742.000000	1.098042
3740.000000	1.096811
3738.000000	1.093301
3736.000000	1.092916
3734.000000	1.094394
3732.000000	1.096158
3730.000000	1.097377
3728.000000	1.096761
3726.000000	1.096207
3724.000000	1.096539
3722.000000	1.096922
3720.000000	1.097401
3718.000000	1.097485
3716.000000	1.096093
3714.000000	1.093531
3712.000000	1.093253
3710.000000	1.095701
3708.000000	1.097521
3706.000000	1.097466
3704.000000	1.096373
3702.000000	1.096183
3700.000000	1.097123
3698.000000	1.097399
3696.000000	1.096848
3694.000000	1.095526
3692.000000	1.092953
3690.000000	1.091267
3688.000000	1.093859
3686.000000	1.097399
3684.000000	1.097421
3682.000000	1.095968
3680.000000	1.094058
3678.000000	1.090755
3676.000000	1.090084
3674.000000	1.092601
3672.000000	1.092351
3670.000000	1.092852
3668.000000	1.095991
3666.000000	1.096894
3664.000000	1.096209
3662.000000	1.095778
3660.000000	1.094786
3658.000000	1.093248
3656.000000	1.093529
3654.000000	1.093617
3652.000000	1.090481
3650.000000	1.089045
3648.000000	1.092197
3646.000000	1.095203
3644.000000	1.095475
3642.000000	1.094865
3640.000000	1.094607
3638.000000	1.094408
3636.000000	1.093991
3634.000000	1.093143
3632.000000	1.090526
3630.000000	1.088429
3628.000000	1.091374
3626.000000	1.094688
3624.000000	1.093999
3622.000000	1.091811
3620.000000	1.090939
3618.000000	1.092043
3616.000000	1.092498
3614.000000	1.091755
3612.000000	1.091284
3610.000000	1.091170
3608.000000	1.092135
3606.000000	1.093379
3604.000000	1.093274
3602.000000	1.092647
3600.000000	1.092467
3598.000000	1.092320
3596.000000	1.092093
3594.000000	1.092322
3592.000000	1.092025
3590.000000	1.090607
3588.000000	1.090385
3586.000000	1.091896
3584.000000	1.092721
3582.000000	1.092515
3580.000000	1.092303
3578.000000	1.092247
3576.000000	1.092241
3574.000000	1.092222
3572.000000	1.091692
3570.000000	1.090439
3568.000000	1.089953
3566.000000	1.091062
3564.000000	1.092000
3562.000000	1.092010
3560.000000	1.091956
3558.000000	1.092005
3556.000000	1.091840
3554.000000	1.091582
3552.000000	1.091639
3550.000000	1.091658
3548.000000	1.091312
3546.000000	1.091330
3544.000000	1.091844
3542.000000	1.092211
3540.000000	1.092237
3538.000000	1.092128
3536.000000	1.092148
3534.000000	1.092234
3532.000000	1.092152
3530.000000	1.091981
3528.000000	1.091893
3526.000000	1.091976
3524.000000	1.092180
3522.000000	1.092520
3520.000000	1.092759
3518.000000	1.092870
3516.000000	1.092974
3514.000000	1.092967
3512.000000	1.092904
3510.000000	1.093039
3508.000000	1.093317
3506.000000	1.093299
3504.000000	1.093255
3502.000000	1.093638
3500.000000	1.093983
3498.000000	1.094032
3496.000000	1.094149
3494.000000	1.094413
3492.000000	1.094610
3490.000000	1.094713
3488.000000	1.094825
3486.000000	1.094950
3484.000000	1.095055
3482.000000	1.095198
3480.000000	1.095481
3478.000000	1.095768
3476.000000	1.096024
3474.000000	1.096332
3472.000000	1.096511
3470.000000	1.096601
3468.000000	1.096825
3466.000000	1.097256
3464.000000	1.097577
3462.000000	1.097798
3460.000000	1.098132
3458.000000	1.098417
3456.000000	1.098624
3454.000000	1.098865
3452.000000	1.099145
3450.000000	1.099325
3448.000000	1.099461
3446.000000	1.099925
3444.000000	1.100404
3442.000000	1.100713
3440.000000	1.101105
3438.000000	1.101432
3436.000000	1.101651
3434.000000	1.101998
3432.000000	1.102434
3430.000000	1.102858
3428.000000	1.103205
3426.000000	1.103441
3424.000000	1.103638
3422.000000	1.103893
3420.000000	1.104176
3418.000000	1.104399
3416.000000	1.104562
3414.000000	1.104716
3412.000000	1.104879
3410.000000	1.105098
3408.000000	1.105365
3406.000000	1.105588
3404.000000	1.105691
3402.000000	1.105712
3400.000000	1.105790
3398.000000	1.105981
3396.000000	1.106177
3394.000000	1.106263
3392.000000	1.106322
3390.000000	1.106533
3388.000000	1.106732
3386.000000	1.106853
3384.000000	1.107027
3382.000000	1.107136
3380.000000	1.107190
3378.000000	1.107293
3376.000000	1.107389
3374.000000	1.107473
3372.000000	1.107519
3370.000000	1.107525
3368.000000	1.107598
3366.000000	1.107745
3364.000000	1.107882
3362.000000	1.107932
3360.000000	1.108007
3358.000000	1.108155
3356.000000	1.108295
3354.000000	1.108401
3352.000000	1.108458
3350.000000	1.108517
3348.000000	1.108578
3346.000000	1.108604
3344.000000	1.108695
3342.000000	1.108828
3340.000000	1.108871
3338.000000	1.108903
3336.000000	1.109050
3334.000000	1.109196
3332.000000	1.109245
3330.000000	1.109336
3328.000000	1.109437
3326.000000	1.109520
3324.000000	1.109662
3322.000000	1.109816
3320.000000	1.109896
3318.000000	1.109988
3316.000000	1.110152
3314.000000	1.110247
3312.000000	1.110254
3310.000000	1.110291
3308.000000	1.110329
3306.000000	1.110356
3304.000000	1.110506
3302.000000	1.110675
3300.000000	1.110746
3298.000000	1.110762
3296.000000	1.110825
3294.000000	1.110886
3292.000000	1.110923
3290.000000	1.111036
3288.000000	1.111136
3286.000000	1.111195
3284.000000	1.111221
3282.000000	1.111264
3280.000000	1.111290
3278.000000	1.111297
3276.000000	1.111366
3274.000000	1.111443
3272.000000	1.111462
3270.000000	1.111484
3268.000000	1.111517
3266.000000	1.111601
3264.000000	1.111634
3262.000000	1.111621
3260.000000	1.111696
3258.000000	1.111742
3256.000000	1.111691
3254.000000	1.111694
3252.000000	1.111727
3250.000000	1.111713
3248.000000	1.111731
3246.000000	1.111791
3244.000000	1.111924
3242.000000	1.112035
3240.000000	1.111990
3238.000000	1.111894
3236.000000	1.111855
3234.000000	1.111859
3232.000000	1.111943
3230.000000	1.111987
3228.000000	1.111970
3226.000000	1.112081
3224.000000	1.112159
3222.000000	1.112127
3220.000000	1.112063
3218.000000	1.112095
3216.000000	1.112140
3214.000000	1.112157
3212.000000	1.112219
3210.000000	1.112213
3208.000000	1.112148
3206.000000	1.112121
3204.000000	1.112139
3202.000000	1.112201
3200.000000	1.112267
3198.000000	1.112277
3196.000000	1.112263
3194.000000	1.112311
3192.000000	1.112370
3190.000000	1.112421
3188.000000	1.112515
3186.000000	1.112621
3184.000000	1.112660
3182.000000	1.112617
3180.000000	1.112556
3178.000000	1.112586
3176.000000	1.112696
3174.000000	1.112717
3172.000000	1.112773
3170.000000	1.112906
3168.000000	1.112962
3166.000000	1.112947
3164.000000	1.112941
3162.000000	1.112991
3160.000000	1.113055
3158.000000	1.113087
3156.000000	1.113116
3154.000000	1.113170
3152.000000	1.113265
3150.000000	1.113378
3148.000000	1.113474
3146.000000	1.113511
3144.000000	1.113528
3142.000000	1.113536
3140.000000	1.113557
3138.000000	1.113604
3136.000000	1.113659
3134.000000	1.113776
3132.000000	1.113942
3130.000000	1.114028
3128.000000	1.114060
3126.000000	1.114073
3124.000000	1.114061
3122.000000	1.114072
3120.000000	1.114136
3118.000000	1.114154
3116.000000	1.114172
3114.000000	1.114240
3112.000000	1.114283
3110.000000	1.114255
3108.000000	1.114229
3106.000000	1.114272
3104.000000	1.114332
3102.000000	1.114330
3100.000000	1.114384
3098.000000	1.114469
3096.000000	1.114415
3094.000000	1.114345
3092.000000	1.114416
3090.000000	1.114501
3088.000000	1.114494
3086.000000	1.114406
3084.000000	1.114335
3082.000000	1.114366
3080.000000	1.114349
3078.000000	1.114261
3076.000000	1.114249
3074.000000	1.114274
3072.000000	1.114287
3070.000000	1.114284
3068.000000	1.114247
3066.000000	1.114247
3064.000000	1.114290
3062.000000	1.114303
3060.000000	1.114332
3058.000000	1.114325
3056.000000	1.114293
3054.000000	1.114334
3052.000000	1.114332
3050.000000	1.114282
3048.000000	1.114286
3046.000000	1.114251
3044.000000	1.114179
3042.000000	1.114128
3040.000000	1.114140
3038.000000	1.114176
3036.000000	1.114147
3034.000000	1.114042
3032.000000	1.113987
3030.000000	1.114034
3028.000000	1.114009
3026.000000	1.113864
3024.000000	1.113879
3022.000000	1.114070
3020.000000	1.114246
3018.000000	1.114397
3016.000000	1.114589
3014.000000	1.114740
3012.000000	1.114790
3010.000000	1.114788
3008.000000	1.114701
3006.000000	1.114531
3004.000000	1.114401
3002.000000	1.114340
3000.000000	1.114306
2998.000000	1.114303
2996.000000	1.114226
2994.000000	1.114123
2992.000000	1.114126
2990.000000	1.114170
2988.000000	1.114170
2986.000000	1.114104
2984.000000	1.114014
2982.000000	1.113986
2980.000000	1.114002
2978.000000	1.113991
2976.000000	1.113998
2974.000000	1.113973
2972.000000	1.113920
2970.000000	1.114037
2968.000000	1.114390
2966.000000	1.114892
2964.000000	1.115493
2962.000000	1.116080
2960.000000	1.116407
2958.000000	1.116330
2956.000000	1.116009
2954.000000	1.115618
2952.000000	1.115166
2950.000000	1.114708
2948.000000	1.114295
2946.000000	1.113918
2944.000000	1.113547
2942.000000	1.113247
2940.000000	1.113063
2938.000000	1.112992
2936.000000	1.113122
2934.000000	1.113251
2932.000000	1.113277
2930.000000	1.113322
2928.000000	1.113571
2926.000000	1.114022
2924.000000	1.114721
2922.000000	1.115454
2920.000000	1.115963
2918.000000	1.116241
2916.000000	1.116268
2914.000000	1.116039
2912.000000	1.115725
2910.000000	1.115433
2908.000000	1.115171
2906.000000	1.114968
2904.000000	1.114892
2902.000000	1.114791
2900.000000	1.114689
2898.000000	1.114637
2896.000000	1.114548
2894.000000	1.114474
2892.000000	1.114419
2890.000000	1.114342
2888.000000	1.114220
2886.000000	1.114107
2884.000000	1.114005
2882.000000	1.113868
2880.000000	1.113740
2878.000000	1.113604
2876.000000	1.113417
2874.000000	1.113191
2872.000000	1.112998
2870.000000	1.112768
2868.000000	1.112404
2866.000000	1.112183
2864.000000	1.112342
2862.000000	1.112774
2860.000000	1.113357
2858.000000	1.113834
2856.000000	1.114142
2854.000000	1.114309
2852.000000	1.114410
2850.000000	1.114629
2848.000000	1.114842
2846.000000	1.114797
2844.000000	1.114547
2842.000000	1.114260
2840.000000	1.114073
2838.000000	1.114008
2836.000000	1.113934
2834.000000	1.113826
2832.000000	1.113746
2830.000000	1.113620
2828.000000	1.113518
2826.000000	1.113483
2824.000000	1.113522
2822.000000	1.113532
2820.000000	1.113466
2818.000000	1.113432
2816.000000	1.113393
2814.000000	1.113384
2812.000000	1.113343
2810.000000	1.113279
2808.000000	1.113293
2806.000000	1.113302
2804.000000	1.113271
2802.000000	1.113257
2800.000000	1.113248
2798.000000	1.113202
2796.000000	1.113160
2794.000000	1.113138
2792.000000	1.113154
2790.000000	1.113176
2788.000000	1.113181
2786.000000	1.113152
2784.000000	1.113171
2782.000000	1.113251
2780.000000	1.113306
2778.000000	1.113269
2776.000000	1.113163
2774.000000	1.113116
2772.000000	1.113121
2770.000000	1.113088
2768.000000	1.113083
2766.000000	1.113112
2764.000000	1.113091
2762.000000	1.113058
2760.000000	1.113063
2758.000000	1.113077
2756.000000	1.113125
2754.000000	1.113158
2752.000000	1.113135
2750.000000	1.113032
2748.000000	1.112983
2746.000000	1.113051
2744.000000	1.113087
2742.000000	1.113030
2740.000000	1.113065
2738.000000	1.113199
2736.000000	1.113231
2734.000000	1.113223
2732.000000	1.113261
2730.000000	1.113302
2728.000000	1.113364
2726.000000	1.113392
2724.000000	1.113426
2722.000000	1.113447
2720.000000	1.113482
2718.000000	1.113543
2716.000000	1.113661
2714.000000	1.113787
2712.000000	1.113802
2710.000000	1.113796
2708.000000	1.113868
2706.000000	1.113983
2704.000000	1.114134
2702.000000	1.114246
2700.000000	1.114308
2698.000000	1.114365
2696.000000	1.114458
2694.000000	1.114549
2692.000000	1.114629
2690.000000	1.114713
2688.000000	1.114833
2686.000000	1.114924
2684.000000	1.114986
2682.000000	1.115019
2680.000000	1.115045
2678.000000	1.115130
2676.000000	1.115244
2674.000000	1.115356
2672.000000	1.115438
2670.000000	1.115461
2668.000000	1.115563
2666.000000	1.115680
2664.000000	1.115753
2662.000000	1.115789
2660.000000	1.115836
2658.000000	1.115879
2656.000000	1.115944
2654.000000	1.116075
2652.000000	1.116138
2650.000000	1.116187
2648.000000	1.116257
2646.000000	1.116284
2644.000000	1.116356
2642.000000	1.116436
2640.000000	1.116477
2638.000000	1.116472
2636.000000	1.116456
2634.000000	1.116469
2632.000000	1.116523
2630.000000	1.116530
2628.000000	1.116532
2626.000000	1.116564
2624.000000	1.116617
2622.000000	1.116679
2620.000000	1.116734
2618.000000	1.116734
2616.000000	1.116718
2614.000000	1.116753
2612.000000	1.116797
2610.000000	1.116815
2608.000000	1.116812
2606.000000	1.116756
2604.000000	1.116699
2602.000000	1.116646
2600.000000	1.116693
2598.000000	1.116764
2596.000000	1.116814
2594.000000	1.116879
2592.000000	1.116965
2590.000000	1.116952
2588.000000	1.116926
2586.000000	1.117017
2584.000000	1.117179
2582.000000	1.117235
2580.000000	1.117177
2578.000000	1.117145
2576.000000	1.117195
2574.000000	1.117228
2572.000000	1.117231
2570.000000	1.117226
2568.000000	1.117261
2566.000000	1.117319
2564.000000	1.117288
2562.000000	1.117222
2560.000000	1.117186
2558.000000	1.117234
2556.000000	1.117336
2554.000000	1.117408
2552.000000	1.117390
2550.000000	1.117337
2548.000000	1.117384
2546.000000	1.117408
2544.000000	1.117420
2542.000000	1.117438
2540.000000	1.117386
2538.000000	1.117342
2536.000000	1.117357
2534.000000	1.117320
2532.000000	1.117284
2530.000000	1.117296
2528.000000	1.117353
2526.000000	1.117379
2524.000000	1.117360
2522.000000	1.117368
2520.000000	1.117415
2518.000000	1.117404
2516.000000	1.117408
2514.000000	1.117410
2512.000000	1.117417
2510.000000	1.117391
2508.000000	1.117366
2506.000000	1.117413
2504.000000	1.117464
2502.000000	1.117465
2500.000000	1.117465
2498.000000	1.117419
2496.000000	1.117401
2494.000000	1.117440
2492.000000	1.117503
2490.000000	1.117514
2488.000000	1.117507
2486.000000	1.117500
2484.000000	1.117443
2482.000000	1.117458
2480.000000	1.117526
2478.000000	1.117530
2476.000000	1.117540
2474.000000	1.117513
2472.000000	1.117505
2470.000000	1.117532
2468.000000	1.117633
2466.000000	1.117695
2464.000000	1.117701
2462.000000	1.117787
2460.000000	1.117863
2458.000000	1.117844
2456.000000	1.117848
2454.000000	1.117871
2452.000000	1.117900
2450.000000	1.117922
2448.000000	1.117942
2446.000000	1.117932
2444.000000	1.117976
2442.000000	1.118075
2440.000000	1.118138
2438.000000	1.118160
2436.000000	1.118268
2434.000000	1.118386
2432.000000	1.118436
2430.000000	1.118493
2428.000000	1.118622
2426.000000	1.118748
2424.000000	1.118840
2422.000000	1.118923
2420.000000	1.118999
2418.000000	1.119030
2416.000000	1.118965
2414.000000	1.118806
2412.000000	1.118756
2410.000000	1.118790
2408.000000	1.118825
2406.000000	1.118772
2404.000000	1.118673
2402.000000	1.118559
2400.000000	1.118539
2398.000000	1.118591
2396.000000	1.118613
2394.000000	1.118581
2392.000000	1.118496
2390.000000	1.118400
2388.000000	1.118335
2386.000000	1.118345
2384.000000	1.118302
2382.000000	1.118058
2380.000000	1.117769
2378.000000	1.117521
2376.000000	1.117212
2374.000000	1.116820
2372.000000	1.116463
2370.000000	1.116055
2368.000000	1.115630
2366.000000	1.115340
2364.000000	1.115253
2362.000000	1.115402
2360.000000	1.115656
2358.000000	1.115980
2356.000000	1.116469
2354.000000	1.116989
2352.000000	1.117509
2350.000000	1.117648
2348.000000	1.117154
2346.000000	1.116575
2344.000000	1.116272
2342.000000	1.116207
2340.000000	1.116172
2338.000000	1.116078
2336.000000	1.116111
2334.000000	1.116187
2332.000000	1.116288
2330.000000	1.116412
2328.000000	1.116601
2326.000000	1.116755
2324.000000	1.116867
2322.000000	1.117036
2320.000000	1.117286
2318.000000	1.117508
2316.000000	1.117678
2314.000000	1.117779
2312.000000	1.117867
2310.000000	1.117898
2308.000000	1.117894
2306.000000	1.117879
2304.000000	1.117908
2302.000000	1.117993
2300.000000	1.118068
2298.000000	1.118073
2296.000000	1.118073
2294.000000	1.118071
2292.000000	1.117998
2290.000000	1.117893
2288.000000	1.117943
2286.000000	1.118068
2284.000000	1.118145
2282.000000	1.118144
2280.000000	1.118103
2278.000000	1.118141
2276.000000	1.118218
2274.000000	1.118178
2272.000000	1.118122
2270.000000	1.118159
2268.000000	1.118234
2266.000000	1.118223
2264.000000	1.118227
2262.000000	1.118290
2260.000000	1.118277
2258.000000	1.118174
2256.000000	1.118176
2254.000000	1.118227
2252.000000	1.118266
2250.000000	1.118253
2248.000000	1.118224
2246.000000	1.118220
2244.000000	1.118273
2242.000000	1.118276
2240.000000	1.118383
2238.000000	1.118419
2236.000000	1.118356
2234.000000	1.118253
2232.000000	1.118163
2230.000000	1.118038
2228.000000	1.117974
2226.000000	1.117983
2224.000000	1.118035
2222.000000	1.118021
2220.000000	1.118060
2218.000000	1.118068
2216.000000	1.118053
2214.000000	1.118035
2212.000000	1.117969
2210.000000	1.117947
2208.000000	1.117964
2206.000000	1.117959
2204.000000	1.117932
2202.000000	1.117905
2200.000000	1.117951
2198.000000	1.117926
2196.000000	1.117844
2194.000000	1.117802
2192.000000	1.117767
2190.000000	1.117735
2188.000000	1.117758
2186.000000	1.117748
2184.000000	1.117681
2182.000000	1.117651
2180.000000	1.117665
2178.000000	1.117648
2176.000000	1.117644
2174.000000	1.117562
2172.000000	1.117494
2170.000000	1.117488
2168.000000	1.117526
2166.000000	1.117562
2164.000000	1.117557
2162.000000	1.117507
2160.000000	1.117376
2158.000000	1.117262
2156.000000	1.117211
2154.000000	1.117076
2152.000000	1.117038
2150.000000	1.117081
2148.000000	1.117082
2146.000000	1.117056
2144.000000	1.117029
2142.000000	1.116951
2140.000000	1.116922
2138.000000	1.116887
2136.000000	1.116884
2134.000000	1.116854
2132.000000	1.116787
2130.000000	1.116700
2128.000000	1.116605
2126.000000	1.116525
2124.000000	1.116465
2122.000000	1.116402
2120.000000	1.116416
2118.000000	1.116471
2116.000000	1.116442
2114.000000	1.116406
2112.000000	1.116441
2110.000000	1.116343
2108.000000	1.116224
2106.000000	1.116160
2104.000000	1.116164
2102.000000	1.116144
2100.000000	1.116055
2098.000000	1.115958
2096.000000	1.115924
2094.000000	1.115910
2092.000000	1.115939
2090.000000	1.115932
2088.000000	1.115882
2086.000000	1.115844
2084.000000	1.115829
2082.000000	1.115711
2080.000000	1.115639
2078.000000	1.115648
2076.000000	1.115660
2074.000000	1.115606
2072.000000	1.115473
2070.000000	1.115387
2068.000000	1.115436
2066.000000	1.115448
2064.000000	1.115390
2062.000000	1.115259
2060.000000	1.115148
2058.000000	1.115146
2056.000000	1.115198
2054.000000	1.115151
2052.000000	1.115164
2050.000000	1.115195
2048.000000	1.115186
2046.000000	1.115155
2044.000000	1.115098
2042.000000	1.114917
2040.000000	1.114889
2038.000000	1.114845
2036.000000	1.114805
2034.000000	1.114801
2032.000000	1.114773
2030.000000	1.114709
2028.000000	1.114631
2026.000000	1.114426
2024.000000	1.114383
2022.000000	1.114454
2020.000000	1.114332
2018.000000	1.114167
2016.000000	1.114324
2014.000000	1.114489
2012.000000	1.114406
2010.000000	1.114404
2008.000000	1.114539
2006.000000	1.114443
2004.000000	1.114316
2002.000000	1.114348
2000.000000	1.114344
1998.000000	1.114248
1996.000000	1.114221
1994.000000	1.113953
1992.000000	1.113811
1990.000000	1.113986
1988.000000	1.114057
1986.000000	1.114164
1984.000000	1.114111
1982.000000	1.114015
1980.000000	1.114035
1978.000000	1.113998
1976.000000	1.113960
1974.000000	1.113946
1972.000000	1.113998
1970.000000	1.113916
1968.000000	1.113690
1966.000000	1.113787
1964.000000	1.113942
1962.000000	1.113878
1960.000000	1.113837
1958.000000	1.114061
1956.000000	1.114231
1954.000000	1.114152
1952.000000	1.114061
1950.000000	1.113966
1948.000000	1.113873
1946.000000	1.113738
1944.000000	1.113480
1942.000000	1.113624
1940.000000	1.113976
1938.000000	1.114005
1936.000000	1.114075
1934.000000	1.114102
1932.000000	1.114092
1930.000000	1.114015
1928.000000	1.113982
1926.000000	1.113762
1924.000000	1.113544
1922.000000	1.113651
1920.000000	1.113352
1918.000000	1.113294
1916.000000	1.114162
1914.000000	1.114288
1912.000000	1.114023
1910.000000	1.113899
1908.000000	1.114087
1906.000000	1.114111
1904.000000	1.114138
1902.000000	1.114233
1900.000000	1.114284
1898.000000	1.114085
1896.000000	1.114024
1894.000000	1.114167
1892.000000	1.113982
1890.000000	1.113688
1888.000000	1.114217
1886.000000	1.114415
1884.000000	1.114404
1882.000000	1.114353
1880.000000	1.114400
1878.000000	1.114383
1876.000000	1.114411
1874.000000	1.114274
1872.000000	1.113621
1870.000000	1.112662
1868.000000	1.113245
1866.000000	1.114140
1864.000000	1.114309
1862.000000	1.114163
1860.000000	1.114175
1858.000000	1.114158
1856.000000	1.114234
1854.000000	1.114156
1852.000000	1.114181
1850.000000	1.114048
1848.000000	1.113560
1846.000000	1.111948
1844.000000	1.112011
1842.000000	1.113978
1840.000000	1.114290
1838.000000	1.114037
1836.000000	1.114118
1834.000000	1.114002
1832.000000	1.113033
1830.000000	1.112690
1828.000000	1.113500
1826.000000	1.113332
1824.000000	1.113876
1822.000000	1.114378
1820.000000	1.114334
1818.000000	1.114271
1816.000000	1.114417
1814.000000	1.114231
1812.000000	1.113862
1810.000000	1.113960
1808.000000	1.114343
1806.000000	1.114270
1804.000000	1.113819
1802.000000	1.113219
1800.000000	1.113502
1798.000000	1.113993
1796.000000	1.113529
1794.000000	1.111685
1792.000000	1.111914
1790.000000	1.113814
1788.000000	1.114070
1786.000000	1.113470
1784.000000	1.113664
1782.000000	1.113612
1780.000000	1.113811
1778.000000	1.114067
1776.000000	1.113026
1774.000000	1.110489
1772.000000	1.110864
1770.000000	1.112827
1768.000000	1.113365
1766.000000	1.114310
1764.000000	1.113364
1762.000000	1.112816
1760.000000	1.113847
1758.000000	1.113606
1756.000000	1.113895
1754.000000	1.113236
1752.000000	1.111245
1750.000000	1.112109
1748.000000	1.113427
1746.000000	1.113866
1744.000000	1.113715
1742.000000	1.112929
1740.000000	1.112722
1738.000000	1.113251
1736.000000	1.109346
1734.000000	1.108481
1732.000000	1.113412
1730.000000	1.114949
1728.000000	1.115293
1726.000000	1.115343
1724.000000	1.115196
1722.000000	1.114526
1720.000000	1.111087
1718.000000	1.108413
1716.000000	1.111620
1714.000000	1.114387
1712.000000	1.115405
1710.000000	1.115054
1708.000000	1.114158
1706.000000	1.113375
1704.000000	1.113107
1702.000000	1.108403
1700.000000	1.108057
1698.000000	1.109817
1696.000000	1.109713
1694.000000	1.114807
1692.000000	1.116100
1690.000000	1.115244
1688.000000	1.113357
1686.000000	1.108087
1684.000000	1.109370
1682.000000	1.114969
1680.000000	1.115829
1678.000000	1.114546
1676.000000	1.112644
1674.000000	1.114185
1672.000000	1.113936
1670.000000	1.112972
1668.000000	1.115223
1666.000000	1.116167
1664.000000	1.114684
1662.000000	1.115265
1660.000000	1.116568
1658.000000	1.115976
1656.000000	1.110511
1654.000000	1.103583
1652.000000	1.109563
1650.000000	1.115170
1648.000000	1.112268
1646.000000	1.112957
1644.000000	1.116493
1642.000000	1.117200
1640.000000	1.116296
1638.000000	1.113088
1636.000000	1.111201
1634.000000	1.115400
1632.000000	1.117608
1630.000000	1.116619
1628.000000	1.116089
1626.000000	1.115659
1624.000000	1.114837
1622.000000	1.116047
1620.000000	1.115585
1618.000000	1.112203
1616.000000	1.113815
1614.000000	1.117251
1612.000000	1.117161
1610.000000	1.117236
1608.000000	1.117744
1606.000000	1.118330
1604.000000	1.118464
1602.000000	1.118655
1600.000000	1.118746
1598.000000	1.118677
1596.000000	1.118469
1594.000000	1.118489
1592.000000	1.118517
1590.000000	1.118518
1588.000000	1.118523
1586.000000	1.118566
1584.000000	1.118599
1582.000000	1.118666
1580.000000	1.117770
1578.000000	1.113900
1576.000000	1.113518
1574.000000	1.117781
1572.000000	1.116998
1570.000000	1.115781
1568.000000	1.117416
1566.000000	1.117945
1564.000000	1.117035
1562.000000	1.111970
1560.000000	1.105777
1558.000000	1.110175
1556.000000	1.115167
1554.000000	1.116517
1552.000000	1.117834
1550.000000	1.117995
1548.000000	1.117915
1546.000000	1.116263
1544.000000	1.113845
1542.000000	1.110005
1540.000000	1.109335
1538.000000	1.115408
1536.000000	1.117348
1534.000000	1.115921
1532.000000	1.117560
1530.000000	1.117930
1528.000000	1.116499
1526.000000	1.115510
1524.000000	1.113902
1522.000000	1.111771
1520.000000	1.114215
1518.000000	1.115660
1516.000000	1.116387
1514.000000	1.117166
1512.000000	1.116733
1510.000000	1.114388
1508.000000	1.109281
1506.000000	1.110544
1504.000000	1.116142
1502.000000	1.116250
1500.000000	1.113423
1498.000000	1.111076
1496.000000	1.113398
1494.000000	1.118362
1492.000000	1.119219
1490.000000	1.118765
1488.000000	1.119379
1486.000000	1.119900
1484.000000	1.119799
1482.000000	1.119150
1480.000000	1.118858
1478.000000	1.117689
1476.000000	1.115968
1474.000000	1.113996
1472.000000	1.115256
1470.000000	1.118090
1468.000000	1.117929
1466.000000	1.116415
1464.000000	1.117127
1462.000000	1.117750
1460.000000	1.114441
1458.000000	1.110065
1456.000000	1.112571
1454.000000	1.116760
1452.000000	1.117721
1450.000000	1.118556
1448.000000	1.119061
1446.000000	1.119422
1444.000000	1.119010
1442.000000	1.118749
1440.000000	1.117606
1438.000000	1.114994
1436.000000	1.115775
1434.000000	1.118081
1432.000000	1.117664
1430.000000	1.117691
1428.000000	1.118247
1426.000000	1.118050
1424.000000	1.117590
1422.000000	1.116436
1420.000000	1.114358
1418.000000	1.116111
1416.000000	1.117966
1414.000000	1.118227
1412.000000	1.117946
1410.000000	1.117784
1408.000000	1.117393
1406.000000	1.117096
1404.000000	1.117756
1402.000000	1.118340
1400.000000	1.117867
1398.000000	1.117924
1396.000000	1.117254
1394.000000	1.117512
1392.000000	1.118353
1390.000000	1.117638
1388.000000	1.116627
1386.000000	1.117318
1384.000000	1.118240
1382.000000	1.118583
1380.000000	1.118321
1378.000000	1.118007
1376.000000	1.117486
1374.000000	1.117445
1372.000000	1.117958
1370.000000	1.117907
1368.000000	1.117831
1366.000000	1.117743
1364.000000	1.117018
1362.000000	1.116913
1360.000000	1.117426
1358.000000	1.117628
1356.000000	1.117531
1354.000000	1.117613
1352.000000	1.117607
1350.000000	1.117473
1348.000000	1.117443
1346.000000	1.117472
1344.000000	1.117323
1342.000000	1.116916
1340.000000	1.116643
1338.000000	1.116904
1336.000000	1.117133
1334.000000	1.117285
1332.000000	1.117258
1330.000000	1.117157
1328.000000	1.117031
1326.000000	1.116962
1324.000000	1.116891
1322.000000	1.116777
1320.000000	1.116466
1318.000000	1.116316
1316.000000	1.116342
1314.000000	1.116311
1312.000000	1.116249
1310.000000	1.116277
1308.000000	1.116179
1306.000000	1.116086
1304.000000	1.116062
1302.000000	1.116006
1300.000000	1.115863
1298.000000	1.115833
1296.000000	1.115805
1294.000000	1.115752
1292.000000	1.115606
1290.000000	1.115469
1288.000000	1.115394
1286.000000	1.115472
1284.000000	1.115479
1282.000000	1.115431
1280.000000	1.115409
1278.000000	1.115469
1276.000000	1.115490
1274.000000	1.115538
1272.000000	1.115583
1270.000000	1.115818
1268.000000	1.116289
1266.000000	1.117364
1264.000000	1.119065
1262.000000	1.121359
1260.000000	1.123311
1258.000000	1.123884
1256.000000	1.122993
1254.000000	1.121396
1252.000000	1.119721
1250.000000	1.118684
1248.000000	1.118374
1246.000000	1.118378
1244.000000	1.118516
1242.000000	1.118790
1240.000000	1.118979
1238.000000	1.119138
1236.000000	1.119432
1234.000000	1.119825
1232.000000	1.120111
1230.000000	1.120408
1228.000000	1.120626
1226.000000	1.120805
1224.000000	1.121085
1222.000000	1.121384
1220.000000	1.121666
1218.000000	1.121967
1216.000000	1.122094
1214.000000	1.122311
1212.000000	1.122525
1210.000000	1.122800
1208.000000	1.123163
1206.000000	1.123546
1204.000000	1.123969
1202.000000	1.124354
1200.000000	1.124621
1198.000000	1.124932
1196.000000	1.125047
1194.000000	1.125300
1192.000000	1.125669
1190.000000	1.125902
1188.000000	1.126122
1186.000000	1.126472
1184.000000	1.126588
1182.000000	1.127075
1180.000000	1.128140
1178.000000	1.128838
1176.000000	1.129048
1174.000000	1.129162
1172.000000	1.129288
1170.000000	1.129648
1168.000000	1.130108
1166.000000	1.130613
1164.000000	1.131079
1162.000000	1.131493
1160.000000	1.131856
1158.000000	1.132284
1156.000000	1.132652
1154.000000	1.132998
1152.000000	1.133289
1150.000000	1.133578
1148.000000	1.134000
1146.000000	1.134483
1144.000000	1.134743
1142.000000	1.135225
1140.000000	1.135621
1138.000000	1.135548
1136.000000	1.135468
1134.000000	1.135717
1132.000000	1.136098
1130.000000	1.136255
1128.000000	1.136309
1126.000000	1.136779
1124.000000	1.137070
1122.000000	1.137165
1120.000000	1.137530
1118.000000	1.137865
1116.000000	1.138063
1114.000000	1.138368
1112.000000	1.138806
1110.000000	1.139414
1108.000000	1.140386
1106.000000	1.141173
1104.000000	1.141200
1102.000000	1.141272
1100.000000	1.141756
1098.000000	1.142341
1096.000000	1.142524
1094.000000	1.142744
1092.000000	1.142966
1090.000000	1.143149
1088.000000	1.143237
1086.000000	1.142944
1084.000000	1.142489
1082.000000	1.142068
1080.000000	1.142076
1078.000000	1.141786
1076.000000	1.141505
1074.000000	1.141775
1072.000000	1.141557
1070.000000	1.141272
1068.000000	1.140988
1066.000000	1.140508
1064.000000	1.139804
1062.000000	1.139367
1060.000000	1.139391
1058.000000	1.138925
1056.000000	1.137365
1054.000000	1.136142
1052.000000	1.136055
1050.000000	1.136568
1048.000000	1.137085
1046.000000	1.137085
1044.000000	1.136674
1042.000000	1.135894
1040.000000	1.134756
1038.000000	1.134217
1036.000000	1.133726
1034.000000	1.133402
1032.000000	1.133223
1030.000000	1.132485
1028.000000	1.132140
1026.000000	1.132308
1024.000000	1.131845
1022.000000	1.130716
1020.000000	1.129286
1018.000000	1.128753
1016.000000	1.128566
1014.000000	1.127379
1012.000000	1.125969
1010.000000	1.124806
1008.000000	1.122995
1006.000000	1.121876
1004.000000	1.120800
1002.000000	1.118993
1000.000000	1.117759
