PE IR       SUBTECH     SPECTRUM    ASCII       PEDS        4.00        
   -1
TE110A_030_105K_SB.ASC
20/05/14
12:42:28.00
20/05/14
12:42:28.00
Administrator
TE110A.Thursday, May 14 2020, 013.
1000.000000
#HDR
-1
-1
#GR
cm-1
EGY
1.0
0.0
6000.000000
-2.000000
2501
8
6.217487
0.632858
#DATA
6000.000000	0.967920
5998.000000	0.970119
5996.000000	0.972824
5994.000000	0.975244
5992.000000	0.977166
5990.000000	0.979203
5988.000000	0.981125
5986.000000	0.982833
5984.000000	0.984870
5982.000000	0.987628
5980.000000	0.989848
5978.000000	0.991018
5976.000000	0.992685
5974.000000	0.994841
5972.000000	0.997288
5970.000000	0.999048
5968.000000	1.000790
5966.000000	1.003104
5964.000000	1.005993
5962.000000	1.008502
5960.000000	1.010055
5958.000000	1.011507
5956.000000	1.013003
5954.000000	1.015042
5952.000000	1.018003
5950.000000	1.020796
5948.000000	1.022340
5946.000000	1.022830
5944.000000	1.023575
5942.000000	1.025545
5940.000000	1.028708
5938.000000	1.032075
5936.000000	1.034520
5934.000000	1.036762
5932.000000	1.038460
5930.000000	1.039825
5928.000000	1.041647
5926.000000	1.043523
5924.000000	1.045616
5922.000000	1.047898
5920.000000	1.049661
5918.000000	1.051526
5916.000000	1.054172
5914.000000	1.056680
5912.000000	1.058887
5910.000000	1.061966
5908.000000	1.064607
5906.000000	1.067064
5904.000000	1.068444
5902.000000	1.069693
5900.000000	1.071815
5898.000000	1.073954
5896.000000	1.075726
5894.000000	1.078008
5892.000000	1.080699
5890.000000	1.083374
5888.000000	1.085662
5886.000000	1.087420
5884.000000	1.088677
5882.000000	1.090020
5880.000000	1.091416
5878.000000	1.093612
5876.000000	1.096901
5874.000000	1.100041
5872.000000	1.103023
5870.000000	1.105854
5868.000000	1.108351
5866.000000	1.110577
5864.000000	1.112323
5862.000000	1.113410
5860.000000	1.115476
5858.000000	1.117896
5856.000000	1.121122
5854.000000	1.124588
5852.000000	1.127292
5850.000000	1.128781
5848.000000	1.130169
5846.000000	1.132052
5844.000000	1.134824
5842.000000	1.137401
5840.000000	1.139425
5838.000000	1.142211
5836.000000	1.145110
5834.000000	1.147527
5832.000000	1.149217
5830.000000	1.151544
5828.000000	1.154971
5826.000000	1.158067
5824.000000	1.159880
5822.000000	1.161226
5820.000000	1.163315
5818.000000	1.166454
5816.000000	1.169430
5814.000000	1.171741
5812.000000	1.173351
5810.000000	1.175223
5808.000000	1.178193
5806.000000	1.180790
5804.000000	1.183055
5802.000000	1.185093
5800.000000	1.188217
5798.000000	1.191347
5796.000000	1.193488
5794.000000	1.195223
5792.000000	1.197514
5790.000000	1.200180
5788.000000	1.202737
5786.000000	1.205293
5784.000000	1.208113
5782.000000	1.211251
5780.000000	1.213726
5778.000000	1.215860
5776.000000	1.218234
5774.000000	1.220796
5772.000000	1.223534
5770.000000	1.225916
5768.000000	1.228308
5766.000000	1.230866
5764.000000	1.233443
5762.000000	1.235999
5760.000000	1.238694
5758.000000	1.241182
5756.000000	1.243438
5754.000000	1.245739
5752.000000	1.248498
5750.000000	1.251354
5748.000000	1.254141
5746.000000	1.256251
5744.000000	1.258376
5742.000000	1.260987
5740.000000	1.263370
5738.000000	1.265595
5736.000000	1.268004
5734.000000	1.271305
5732.000000	1.274762
5730.000000	1.277161
5728.000000	1.278797
5726.000000	1.280541
5724.000000	1.283092
5722.000000	1.285837
5720.000000	1.288067
5718.000000	1.290683
5716.000000	1.293579
5714.000000	1.296454
5712.000000	1.298863
5710.000000	1.301172
5708.000000	1.304594
5706.000000	1.307574
5704.000000	1.309575
5702.000000	1.311891
5700.000000	1.314406
5698.000000	1.317349
5696.000000	1.320487
5694.000000	1.323536
5692.000000	1.326652
5690.000000	1.329126
5688.000000	1.331599
5686.000000	1.334502
5684.000000	1.337243
5682.000000	1.339772
5680.000000	1.342167
5678.000000	1.344606
5676.000000	1.346993
5674.000000	1.350066
5672.000000	1.353387
5670.000000	1.356268
5668.000000	1.358538
5666.000000	1.360677
5664.000000	1.363359
5662.000000	1.365958
5660.000000	1.368746
5658.000000	1.371904
5656.000000	1.375081
5654.000000	1.377905
5652.000000	1.380649
5650.000000	1.383554
5648.000000	1.386658
5646.000000	1.389613
5644.000000	1.392761
5642.000000	1.395094
5640.000000	1.397325
5638.000000	1.399808
5636.000000	1.402624
5634.000000	1.405163
5632.000000	1.407553
5630.000000	1.410307
5628.000000	1.412821
5626.000000	1.415146
5624.000000	1.417830
5622.000000	1.421436
5620.000000	1.424016
5618.000000	1.426057
5616.000000	1.428619
5614.000000	1.432293
5612.000000	1.436092
5610.000000	1.438890
5608.000000	1.441127
5606.000000	1.443058
5604.000000	1.445161
5602.000000	1.447645
5600.000000	1.450525
5598.000000	1.453640
5596.000000	1.457360
5594.000000	1.461073
5592.000000	1.464410
5590.000000	1.466800
5588.000000	1.468948
5586.000000	1.471588
5584.000000	1.474701
5582.000000	1.478131
5580.000000	1.480809
5578.000000	1.483124
5576.000000	1.485596
5574.000000	1.488688
5572.000000	1.491794
5570.000000	1.494647
5568.000000	1.497887
5566.000000	1.501065
5564.000000	1.504035
5562.000000	1.506852
5560.000000	1.510060
5558.000000	1.512418
5556.000000	1.514280
5554.000000	1.516185
5552.000000	1.518822
5550.000000	1.522095
5548.000000	1.525359
5546.000000	1.528990
5544.000000	1.532394
5542.000000	1.535917
5540.000000	1.538913
5538.000000	1.541796
5536.000000	1.544289
5534.000000	1.546732
5532.000000	1.549606
5530.000000	1.552279
5528.000000	1.554618
5526.000000	1.556717
5524.000000	1.559700
5522.000000	1.563343
5520.000000	1.566380
5518.000000	1.568874
5516.000000	1.571243
5514.000000	1.574102
5512.000000	1.577437
5510.000000	1.580775
5508.000000	1.583720
5506.000000	1.586795
5504.000000	1.589782
5502.000000	1.592715
5500.000000	1.595499
5498.000000	1.599032
5496.000000	1.602712
5494.000000	1.604382
5492.000000	1.605022
5490.000000	1.606382
5488.000000	1.610097
5486.000000	1.614509
5484.000000	1.618357
5482.000000	1.622129
5480.000000	1.626004
5478.000000	1.629315
5476.000000	1.631261
5474.000000	1.633154
5472.000000	1.636340
5470.000000	1.640064
5468.000000	1.643115
5466.000000	1.644843
5464.000000	1.647252
5462.000000	1.650777
5460.000000	1.654151
5458.000000	1.657282
5456.000000	1.660353
5454.000000	1.664346
5452.000000	1.668196
5450.000000	1.670509
5448.000000	1.671629
5446.000000	1.673057
5444.000000	1.676326
5442.000000	1.680160
5440.000000	1.683355
5438.000000	1.686036
5436.000000	1.688315
5434.000000	1.690536
5432.000000	1.692677
5430.000000	1.695482
5428.000000	1.698083
5426.000000	1.701284
5424.000000	1.706079
5422.000000	1.711411
5420.000000	1.715951
5418.000000	1.718400
5416.000000	1.720340
5414.000000	1.721945
5412.000000	1.723695
5410.000000	1.725612
5408.000000	1.728892
5406.000000	1.733475
5404.000000	1.737625
5402.000000	1.741133
5400.000000	1.743696
5398.000000	1.745628
5396.000000	1.747132
5394.000000	1.748936
5392.000000	1.752296
5390.000000	1.757125
5388.000000	1.761983
5386.000000	1.765291
5384.000000	1.767642
5382.000000	1.771003
5380.000000	1.775155
5378.000000	1.778200
5376.000000	1.780060
5374.000000	1.782384
5372.000000	1.786207
5370.000000	1.789981
5368.000000	1.793101
5366.000000	1.796330
5364.000000	1.799884
5362.000000	1.803212
5360.000000	1.806388
5358.000000	1.809617
5356.000000	1.812261
5354.000000	1.813387
5352.000000	1.814607
5350.000000	1.817146
5348.000000	1.820769
5346.000000	1.823826
5344.000000	1.826270
5342.000000	1.829279
5340.000000	1.832667
5338.000000	1.835204
5336.000000	1.837185
5334.000000	1.841235
5332.000000	1.846464
5330.000000	1.850343
5328.000000	1.852377
5326.000000	1.854840
5324.000000	1.858786
5322.000000	1.862769
5320.000000	1.866213
5318.000000	1.869920
5316.000000	1.873153
5314.000000	1.876397
5312.000000	1.879558
5310.000000	1.882614
5308.000000	1.885611
5306.000000	1.888305
5304.000000	1.891308
5302.000000	1.894428
5300.000000	1.897845
5298.000000	1.901347
5296.000000	1.904702
5294.000000	1.908067
5292.000000	1.910885
5290.000000	1.912861
5288.000000	1.915085
5286.000000	1.918459
5284.000000	1.922383
5282.000000	1.925579
5280.000000	1.928256
5278.000000	1.931404
5276.000000	1.935491
5274.000000	1.939135
5272.000000	1.941731
5270.000000	1.943680
5268.000000	1.946310
5266.000000	1.948854
5264.000000	1.951357
5262.000000	1.954123
5260.000000	1.957794
5258.000000	1.962182
5256.000000	1.966030
5254.000000	1.968735
5252.000000	1.971039
5250.000000	1.973868
5248.000000	1.977000
5246.000000	1.979942
5244.000000	1.983143
5242.000000	1.986875
5240.000000	1.990730
5238.000000	1.994226
5236.000000	1.997416
5234.000000	2.000100
5232.000000	2.002970
5230.000000	2.006157
5228.000000	2.009831
5226.000000	2.012758
5224.000000	2.014803
5222.000000	2.017444
5220.000000	2.020767
5218.000000	2.024530
5216.000000	2.028302
5214.000000	2.032263
5212.000000	2.035941
5210.000000	2.038890
5208.000000	2.040568
5206.000000	2.041458
5204.000000	2.044323
5202.000000	2.049670
5200.000000	2.055139
5198.000000	2.058873
5196.000000	2.061741
5194.000000	2.064709
5192.000000	2.068069
5190.000000	2.071887
5188.000000	2.075458
5186.000000	2.078124
5184.000000	2.081049
5182.000000	2.084391
5180.000000	2.087445
5178.000000	2.090145
5176.000000	2.093954
5174.000000	2.098149
5172.000000	2.101793
5170.000000	2.104966
5168.000000	2.108055
5166.000000	2.110494
5164.000000	2.112952
5162.000000	2.116073
5160.000000	2.119618
5158.000000	2.123299
5156.000000	2.126738
5154.000000	2.130236
5152.000000	2.133502
5150.000000	2.136471
5148.000000	2.139246
5146.000000	2.142647
5144.000000	2.146334
5142.000000	2.149503
5140.000000	2.152499
5138.000000	2.156012
5136.000000	2.159184
5134.000000	2.161480
5132.000000	2.163710
5130.000000	2.167205
5128.000000	2.171271
5126.000000	2.175181
5124.000000	2.178220
5122.000000	2.181419
5120.000000	2.184900
5118.000000	2.188306
5116.000000	2.190894
5114.000000	2.193962
5112.000000	2.198360
5110.000000	2.202792
5108.000000	2.206174
5106.000000	2.208777
5104.000000	2.211848
5102.000000	2.215087
5100.000000	2.218380
5098.000000	2.221674
5096.000000	2.225099
5094.000000	2.228598
5092.000000	2.232192
5090.000000	2.235879
5088.000000	2.239441
5086.000000	2.242606
5084.000000	2.245796
5082.000000	2.249225
5080.000000	2.252676
5078.000000	2.256169
5076.000000	2.259522
5074.000000	2.262850
5072.000000	2.265930
5070.000000	2.268917
5068.000000	2.272306
5066.000000	2.275826
5064.000000	2.278581
5062.000000	2.280995
5060.000000	2.283793
5058.000000	2.287484
5056.000000	2.291345
5054.000000	2.295292
5052.000000	2.298777
5050.000000	2.301503
5048.000000	2.304607
5046.000000	2.308341
5044.000000	2.312371
5042.000000	2.316184
5040.000000	2.319179
5038.000000	2.322048
5036.000000	2.325270
5034.000000	2.328754
5032.000000	2.331869
5030.000000	2.335553
5028.000000	2.339592
5026.000000	2.342634
5024.000000	2.345289
5022.000000	2.348579
5020.000000	2.352042
5018.000000	2.355552
5016.000000	2.358932
5014.000000	2.362129
5012.000000	2.365475
5010.000000	2.368776
5008.000000	2.371715
5006.000000	2.375210
5004.000000	2.379259
5002.000000	2.382797
5000.000000	2.385590
4998.000000	2.388719
4996.000000	2.391926
4994.000000	2.395304
4992.000000	2.398646
4990.000000	2.402082
4988.000000	2.406053
4986.000000	2.410325
4984.000000	2.413881
4982.000000	2.416573
4980.000000	2.419393
4978.000000	2.423302
4976.000000	2.427588
4974.000000	2.431402
4972.000000	2.434292
4970.000000	2.437307
4968.000000	2.440494
4966.000000	2.443696
4964.000000	2.446848
4962.000000	2.450645
4960.000000	2.454831
4958.000000	2.458301
4956.000000	2.461222
4954.000000	2.464388
4952.000000	2.467886
4950.000000	2.470882
4948.000000	2.473924
4946.000000	2.477611
4944.000000	2.481427
4942.000000	2.484741
4940.000000	2.487856
4938.000000	2.490761
4936.000000	2.493846
4934.000000	2.497768
4932.000000	2.502258
4930.000000	2.506079
4928.000000	2.508955
4926.000000	2.512041
4924.000000	2.515459
4922.000000	2.519063
4920.000000	2.522561
4918.000000	2.526239
4916.000000	2.529587
4914.000000	2.532494
4912.000000	2.535375
4910.000000	2.538991
4908.000000	2.543340
4906.000000	2.547261
4904.000000	2.550237
4902.000000	2.552985
4900.000000	2.556110
4898.000000	2.559706
4896.000000	2.564049
4894.000000	2.568190
4892.000000	2.570993
4890.000000	2.573660
4888.000000	2.577408
4886.000000	2.581656
4884.000000	2.585278
4882.000000	2.588768
4880.000000	2.592516
4878.000000	2.596054
4876.000000	2.599420
4874.000000	2.603266
4872.000000	2.607305
4870.000000	2.610628
4868.000000	2.613224
4866.000000	2.615612
4864.000000	2.618273
4862.000000	2.621731
4860.000000	2.625814
4858.000000	2.629547
4856.000000	2.632780
4854.000000	2.635994
4852.000000	2.639111
4850.000000	2.642125
4848.000000	2.645778
4846.000000	2.649730
4844.000000	2.653561
4842.000000	2.657414
4840.000000	2.660616
4838.000000	2.663043
4836.000000	2.666028
4834.000000	2.669667
4832.000000	2.673117
4830.000000	2.676963
4828.000000	2.681084
4826.000000	2.684982
4824.000000	2.688818
4822.000000	2.692540
4820.000000	2.695638
4818.000000	2.698673
4816.000000	2.702627
4814.000000	2.706884
4812.000000	2.710653
4810.000000	2.713791
4808.000000	2.716750
4806.000000	2.719586
4804.000000	2.723062
4802.000000	2.727190
4800.000000	2.731247
4798.000000	2.735050
4796.000000	2.739153
4794.000000	2.743276
4792.000000	2.747023
4790.000000	2.750358
4788.000000	2.753663
4786.000000	2.757566
4784.000000	2.761540
4782.000000	2.764677
4780.000000	2.767590
4778.000000	2.770661
4776.000000	2.773647
4774.000000	2.776992
4772.000000	2.780985
4770.000000	2.784562
4768.000000	2.787927
4766.000000	2.791723
4764.000000	2.795494
4762.000000	2.798874
4760.000000	2.802227
4758.000000	2.805724
4756.000000	2.809237
4754.000000	2.812865
4752.000000	2.816541
4750.000000	2.819871
4748.000000	2.823334
4746.000000	2.826648
4744.000000	2.829938
4742.000000	2.833369
4740.000000	2.837192
4738.000000	2.840980
4736.000000	2.844703
4734.000000	2.847969
4732.000000	2.850821
4730.000000	2.854620
4728.000000	2.859138
4726.000000	2.862924
4724.000000	2.865927
4722.000000	2.869047
4720.000000	2.872552
4718.000000	2.876289
4716.000000	2.879929
4714.000000	2.883096
4712.000000	2.886488
4710.000000	2.890621
4708.000000	2.894970
4706.000000	2.899463
4704.000000	2.903904
4702.000000	2.907472
4700.000000	2.910595
4698.000000	2.914498
4696.000000	2.918399
4694.000000	2.921295
4692.000000	2.924204
4690.000000	2.927849
4688.000000	2.931583
4686.000000	2.935042
4684.000000	2.938847
4682.000000	2.942493
4680.000000	2.945861
4678.000000	2.949692
4676.000000	2.954038
4674.000000	2.957680
4672.000000	2.961093
4670.000000	2.964803
4668.000000	2.968370
4666.000000	2.972257
4664.000000	2.976029
4662.000000	2.978973
4660.000000	2.981906
4658.000000	2.985824
4656.000000	2.989273
4654.000000	2.991852
4652.000000	2.995264
4650.000000	2.999918
4648.000000	3.004320
4646.000000	3.008138
4644.000000	3.011877
4642.000000	3.015325
4640.000000	3.018593
4638.000000	3.022249
4636.000000	3.026028
4634.000000	3.030033
4632.000000	3.034115
4630.000000	3.038035
4628.000000	3.041477
4626.000000	3.044918
4624.000000	3.048792
4622.000000	3.052190
4620.000000	3.054964
4618.000000	3.058484
4616.000000	3.063076
4614.000000	3.067658
4612.000000	3.071914
4610.000000	3.075713
4608.000000	3.079345
4606.000000	3.082579
4604.000000	3.085694
4602.000000	3.089275
4600.000000	3.093922
4598.000000	3.098813
4596.000000	3.102929
4594.000000	3.106155
4592.000000	3.109990
4590.000000	3.114045
4588.000000	3.117550
4586.000000	3.121058
4584.000000	3.125260
4582.000000	3.129214
4580.000000	3.132203
4578.000000	3.134854
4576.000000	3.138463
4574.000000	3.143078
4572.000000	3.147828
4570.000000	3.151688
4568.000000	3.154700
4566.000000	3.157913
4564.000000	3.161450
4562.000000	3.164967
4560.000000	3.169200
4558.000000	3.173706
4556.000000	3.177593
4554.000000	3.181022
4552.000000	3.184203
4550.000000	3.186841
4548.000000	3.190142
4546.000000	3.194620
4544.000000	3.199252
4542.000000	3.203408
4540.000000	3.207327
4538.000000	3.211469
4536.000000	3.215389
4534.000000	3.218456
4532.000000	3.221592
4530.000000	3.225606
4528.000000	3.229957
4526.000000	3.234255
4524.000000	3.238125
4522.000000	3.241640
4520.000000	3.245336
4518.000000	3.248849
4516.000000	3.252731
4514.000000	3.256986
4512.000000	3.261058
4510.000000	3.264742
4508.000000	3.268459
4506.000000	3.272302
4504.000000	3.276486
4502.000000	3.280768
4500.000000	3.284975
4498.000000	3.288625
4496.000000	3.291739
4494.000000	3.295576
4492.000000	3.300100
4490.000000	3.304054
4488.000000	3.307262
4486.000000	3.311213
4484.000000	3.315616
4482.000000	3.318865
4480.000000	3.321930
4478.000000	3.325832
4476.000000	3.329321
4474.000000	3.332397
4472.000000	3.336097
4470.000000	3.339924
4468.000000	3.344182
4466.000000	3.348805
4464.000000	3.352887
4462.000000	3.356538
4460.000000	3.359742
4458.000000	3.362082
4456.000000	3.365174
4454.000000	3.369883
4452.000000	3.374938
4450.000000	3.378866
4448.000000	3.382018
4446.000000	3.385642
4444.000000	3.390344
4442.000000	3.395077
4440.000000	3.399123
4438.000000	3.402307
4436.000000	3.404865
4434.000000	3.407857
4432.000000	3.412087
4430.000000	3.416649
4428.000000	3.420293
4426.000000	3.423290
4424.000000	3.426715
4422.000000	3.430537
4420.000000	3.434303
4418.000000	3.438407
4416.000000	3.442885
4414.000000	3.446970
4412.000000	3.451131
4410.000000	3.455159
4408.000000	3.458464
4406.000000	3.461949
4404.000000	3.466089
4402.000000	3.469875
4400.000000	3.473661
4398.000000	3.477866
4396.000000	3.482094
4394.000000	3.485902
4392.000000	3.489168
4390.000000	3.492380
4388.000000	3.496165
4386.000000	3.500551
4384.000000	3.504715
4382.000000	3.508253
4380.000000	3.511494
4378.000000	3.514387
4376.000000	3.517322
4374.000000	3.520707
4372.000000	3.524296
4370.000000	3.528528
4368.000000	3.533160
4366.000000	3.536823
4364.000000	3.540049
4362.000000	3.543540
4360.000000	3.547498
4358.000000	3.551838
4356.000000	3.555410
4354.000000	3.558361
4352.000000	3.562265
4350.000000	3.566725
4348.000000	3.570814
4346.000000	3.574583
4344.000000	3.578328
4342.000000	3.582096
4340.000000	3.585488
4338.000000	3.589028
4336.000000	3.593370
4334.000000	3.597846
4332.000000	3.602019
4330.000000	3.605930
4328.000000	3.609445
4326.000000	3.613207
4324.000000	3.617546
4322.000000	3.621519
4320.000000	3.625282
4318.000000	3.629475
4316.000000	3.633333
4314.000000	3.636772
4312.000000	3.641124
4310.000000	3.646140
4308.000000	3.650304
4306.000000	3.653322
4304.000000	3.656898
4302.000000	3.661660
4300.000000	3.666191
4298.000000	3.669757
4296.000000	3.672996
4294.000000	3.676793
4292.000000	3.681056
4290.000000	3.685032
4288.000000	3.689241
4286.000000	3.693666
4284.000000	3.697499
4282.000000	3.701463
4280.000000	3.704676
4278.000000	3.706945
4276.000000	3.710647
4274.000000	3.715127
4272.000000	3.718335
4270.000000	3.721228
4268.000000	3.724664
4266.000000	3.728710
4264.000000	3.732709
4262.000000	3.736507
4260.000000	3.740561
4258.000000	3.744009
4256.000000	3.746932
4254.000000	3.751514
4252.000000	3.756838
4250.000000	3.760778
4248.000000	3.764618
4246.000000	3.769224
4244.000000	3.772890
4242.000000	3.775845
4240.000000	3.779447
4238.000000	3.783567
4236.000000	3.787383
4234.000000	3.791481
4232.000000	3.796819
4230.000000	3.802520
4228.000000	3.806370
4226.000000	3.808912
4224.000000	3.812571
4222.000000	3.817526
4220.000000	3.821966
4218.000000	3.825457
4216.000000	3.828905
4214.000000	3.832715
4212.000000	3.836525
4210.000000	3.840394
4208.000000	3.844397
4206.000000	3.848431
4204.000000	3.852721
4202.000000	3.856798
4200.000000	3.860559
4198.000000	3.864438
4196.000000	3.868601
4194.000000	3.873290
4192.000000	3.877695
4190.000000	3.881003
4188.000000	3.884273
4186.000000	3.888194
4184.000000	3.892786
4182.000000	3.897673
4180.000000	3.902373
4178.000000	3.906929
4176.000000	3.910967
4174.000000	3.914723
4172.000000	3.918899
4170.000000	3.923084
4168.000000	3.927100
4166.000000	3.930921
4164.000000	3.934640
4162.000000	3.938450
4160.000000	3.942777
4158.000000	3.947719
4156.000000	3.951906
4154.000000	3.954973
4152.000000	3.958568
4150.000000	3.963433
4148.000000	3.968450
4146.000000	3.972483
4144.000000	3.975742
4142.000000	3.978769
4140.000000	3.982502
4138.000000	3.987079
4136.000000	3.991574
4134.000000	3.996098
4132.000000	4.001238
4130.000000	4.006397
4128.000000	4.010718
4126.000000	4.014392
4124.000000	4.018125
4122.000000	4.022146
4120.000000	4.026755
4118.000000	4.031524
4116.000000	4.035660
4114.000000	4.039315
4112.000000	4.043010
4110.000000	4.047064
4108.000000	4.051363
4106.000000	4.055386
4104.000000	4.059469
4102.000000	4.063883
4100.000000	4.067928
4098.000000	4.071669
4096.000000	4.075554
4094.000000	4.079625
4092.000000	4.083352
4090.000000	4.086016
4088.000000	4.089366
4086.000000	4.094553
4084.000000	4.099434
4082.000000	4.103515
4080.000000	4.108293
4078.000000	4.113386
4076.000000	4.117833
4074.000000	4.121810
4072.000000	4.126212
4070.000000	4.130684
4068.000000	4.134465
4066.000000	4.138054
4064.000000	4.142076
4062.000000	4.146316
4060.000000	4.150606
4058.000000	4.154833
4056.000000	4.159012
4054.000000	4.163345
4052.000000	4.168062
4050.000000	4.172708
4048.000000	4.176170
4046.000000	4.179164
4044.000000	4.183693
4042.000000	4.188987
4040.000000	4.193652
4038.000000	4.198120
4036.000000	4.202318
4034.000000	4.205601
4032.000000	4.209158
4030.000000	4.214028
4028.000000	4.218889
4026.000000	4.223141
4024.000000	4.227628
4022.000000	4.232391
4020.000000	4.236552
4018.000000	4.240447
4016.000000	4.245659
4014.000000	4.251069
4012.000000	4.255189
4010.000000	4.258755
4008.000000	4.262832
4006.000000	4.267426
4004.000000	4.271909
4002.000000	4.276140
4000.000000	4.280657
3998.000000	4.285071
3996.000000	4.288331
3994.000000	4.290922
3992.000000	4.294879
3990.000000	4.299709
3988.000000	4.303824
3986.000000	4.308094
3984.000000	4.312894
3982.000000	4.316876
3980.000000	4.320837
3978.000000	4.325275
3976.000000	4.329386
3974.000000	4.333465
3972.000000	4.338209
3970.000000	4.342911
3968.000000	4.347073
3966.000000	4.351160
3964.000000	4.355016
3962.000000	4.358296
3960.000000	4.362473
3958.000000	4.367511
3956.000000	4.371551
3954.000000	4.374705
3952.000000	4.377624
3950.000000	4.379116
3948.000000	4.380340
3946.000000	4.384384
3944.000000	4.389241
3942.000000	4.392590
3940.000000	4.398441
3938.000000	4.406889
3936.000000	4.412292
3934.000000	4.412615
3932.000000	4.411543
3930.000000	4.414815
3928.000000	4.422889
3926.000000	4.428977
3924.000000	4.431332
3922.000000	4.434632
3920.000000	4.436856
3918.000000	4.435633
3916.000000	4.438738
3914.000000	4.451203
3912.000000	4.464899
3910.000000	4.471740
3908.000000	4.472096
3906.000000	4.463463
3904.000000	4.446032
3902.000000	4.434221
3900.000000	4.438120
3898.000000	4.454999
3896.000000	4.478257
3894.000000	4.492264
3892.000000	4.486675
3890.000000	4.480610
3888.000000	4.487010
3886.000000	4.484918
3884.000000	4.479430
3882.000000	4.491087
3880.000000	4.503218
3878.000000	4.512007
3876.000000	4.523485
3874.000000	4.523941
3872.000000	4.512036
3870.000000	4.495576
3868.000000	4.493669
3866.000000	4.511005
3864.000000	4.522482
3862.000000	4.531021
3860.000000	4.548130
3858.000000	4.557846
3856.000000	4.529698
3854.000000	4.459053
3852.000000	4.425355
3850.000000	4.483043
3848.000000	4.560136
3846.000000	4.591814
3844.000000	4.591886
3842.000000	4.582857
3840.000000	4.565370
3838.000000	4.538106
3836.000000	4.531457
3834.000000	4.561360
3832.000000	4.592367
3830.000000	4.608266
3828.000000	4.620444
3826.000000	4.627181
3824.000000	4.624806
3822.000000	4.607659
3820.000000	4.591263
3818.000000	4.594057
3816.000000	4.592336
3814.000000	4.600466
3812.000000	4.641298
3810.000000	4.667804
3808.000000	4.654199
3806.000000	4.634728
3804.000000	4.635136
3802.000000	4.627385
3800.000000	4.616180
3798.000000	4.641565
3796.000000	4.674474
3794.000000	4.690380
3792.000000	4.704571
3790.000000	4.714903
3788.000000	4.718848
3786.000000	4.719620
3784.000000	4.719901
3782.000000	4.721884
3780.000000	4.721275
3778.000000	4.722132
3776.000000	4.733476
3774.000000	4.745693
3772.000000	4.744852
3770.000000	4.733728
3768.000000	4.729730
3766.000000	4.738413
3764.000000	4.749505
3762.000000	4.757794
3760.000000	4.757458
3758.000000	4.753671
3756.000000	4.756403
3754.000000	4.744558
3752.000000	4.700170
3750.000000	4.663133
3748.000000	4.674281
3746.000000	4.689947
3744.000000	4.673176
3742.000000	4.694106
3740.000000	4.760219
3738.000000	4.782013
3736.000000	4.757967
3734.000000	4.745532
3732.000000	4.758788
3730.000000	4.786895
3728.000000	4.814435
3726.000000	4.823129
3724.000000	4.823930
3722.000000	4.830591
3720.000000	4.840043
3718.000000	4.851467
3716.000000	4.859789
3714.000000	4.851264
3712.000000	4.823913
3710.000000	4.812442
3708.000000	4.837170
3706.000000	4.870763
3704.000000	4.885970
3702.000000	4.882321
3700.000000	4.880586
3698.000000	4.891929
3696.000000	4.903435
3694.000000	4.905277
3692.000000	4.892587
3690.000000	4.861061
3688.000000	4.835034
3686.000000	4.856699
3684.000000	4.906745
3682.000000	4.931561
3680.000000	4.928885
3678.000000	4.907516
3676.000000	4.866318
3674.000000	4.846462
3672.000000	4.864372
3670.000000	4.872107
3668.000000	4.885734
3666.000000	4.929172
3664.000000	4.961650
3662.000000	4.971182
3660.000000	4.971874
3658.000000	4.962537
3656.000000	4.945572
3654.000000	4.943437
3652.000000	4.943989
3650.000000	4.913584
3648.000000	4.889097
3646.000000	4.914769
3644.000000	4.960806
3642.000000	4.986967
3640.000000	4.994345
3638.000000	4.996621
3636.000000	4.997327
3634.000000	4.994749
3632.000000	4.984110
3630.000000	4.952741
3628.000000	4.922826
3626.000000	4.945098
3624.000000	4.991200
3622.000000	5.004018
3620.000000	4.987180
3618.000000	4.973293
3616.000000	4.981064
3614.000000	4.990440
3612.000000	4.987030
3610.000000	4.980913
3608.000000	4.979541
3606.000000	4.991843
3604.000000	5.010595
3602.000000	5.018059
3600.000000	5.016651
3598.000000	5.015354
3596.000000	5.013332
3594.000000	5.010877
3592.000000	5.012628
3590.000000	5.009664
3588.000000	4.994772
3586.000000	4.988221
3584.000000	5.002385
3582.000000	5.018229
3580.000000	5.023584
3578.000000	5.023762
3576.000000	5.023229
3574.000000	5.023216
3572.000000	5.023685
3570.000000	5.018560
3568.000000	5.002452
3566.000000	4.990914
3564.000000	4.999214
3562.000000	5.012632
3560.000000	5.017313
3558.000000	5.018441
3556.000000	5.019292
3554.000000	5.017109
3552.000000	5.013286
3550.000000	5.011830
3548.000000	5.010013
3546.000000	5.004767
3544.000000	5.003062
3542.000000	5.006778
3540.000000	5.009577
3538.000000	5.009084
3536.000000	5.006694
3534.000000	5.004362
3532.000000	5.002003
3530.000000	4.997644
3528.000000	4.992259
3526.000000	4.987192
3524.000000	4.982826
3522.000000	4.979895
3520.000000	4.978162
3518.000000	4.976205
3516.000000	4.973923
3514.000000	4.971096
3512.000000	4.966301
3510.000000	4.959483
3508.000000	4.953559
3506.000000	4.949284
3504.000000	4.943137
3502.000000	4.936235
3500.000000	4.932066
3498.000000	4.928755
3496.000000	4.923537
3494.000000	4.917816
3492.000000	4.913171
3490.000000	4.907828
3488.000000	4.901463
3486.000000	4.895852
3484.000000	4.890687
3482.000000	4.884292
3480.000000	4.879532
3478.000000	4.877184
3476.000000	4.873651
3474.000000	4.869492
3472.000000	4.866570
3470.000000	4.863689
3468.000000	4.860645
3466.000000	4.858337
3464.000000	4.856402
3462.000000	4.854109
3460.000000	4.852722
3458.000000	4.851994
3456.000000	4.850607
3454.000000	4.848489
3452.000000	4.845752
3450.000000	4.841890
3448.000000	4.837143
3446.000000	4.833880
3444.000000	4.832846
3442.000000	4.831660
3440.000000	4.830667
3438.000000	4.831426
3436.000000	4.833115
3434.000000	4.835623
3432.000000	4.838978
3430.000000	4.842756
3428.000000	4.846417
3426.000000	4.850294
3424.000000	4.854608
3422.000000	4.857492
3420.000000	4.859773
3418.000000	4.863238
3416.000000	4.867382
3414.000000	4.870433
3412.000000	4.871633
3410.000000	4.872610
3408.000000	4.873944
3406.000000	4.875474
3404.000000	4.876866
3402.000000	4.877856
3400.000000	4.878558
3398.000000	4.878883
3396.000000	4.880329
3394.000000	4.883093
3392.000000	4.885345
3390.000000	4.887815
3388.000000	4.891370
3386.000000	4.894226
3384.000000	4.896219
3382.000000	4.897767
3380.000000	4.899433
3378.000000	4.901141
3376.000000	4.902600
3374.000000	4.903723
3372.000000	4.905222
3370.000000	4.906680
3368.000000	4.907546
3366.000000	4.908624
3364.000000	4.910078
3362.000000	4.912619
3360.000000	4.915199
3358.000000	4.916405
3356.000000	4.916991
3354.000000	4.918277
3352.000000	4.920527
3350.000000	4.922126
3348.000000	4.923741
3346.000000	4.925647
3344.000000	4.927370
3342.000000	4.928935
3340.000000	4.930234
3338.000000	4.931409
3336.000000	4.933244
3334.000000	4.935311
3332.000000	4.937069
3330.000000	4.938117
3328.000000	4.938352
3326.000000	4.939825
3324.000000	4.942362
3322.000000	4.943643
3320.000000	4.944534
3318.000000	4.946791
3316.000000	4.948551
3314.000000	4.948783
3312.000000	4.948810
3310.000000	4.949844
3308.000000	4.951623
3306.000000	4.952883
3304.000000	4.954404
3302.000000	4.956560
3300.000000	4.958734
3298.000000	4.960507
3296.000000	4.961674
3294.000000	4.963122
3292.000000	4.964587
3290.000000	4.966000
3288.000000	4.968016
3286.000000	4.970483
3284.000000	4.972768
3282.000000	4.974282
3280.000000	4.975550
3278.000000	4.977462
3276.000000	4.979071
3274.000000	4.980094
3272.000000	4.981441
3270.000000	4.983404
3268.000000	4.985272
3266.000000	4.987293
3264.000000	4.990135
3262.000000	4.992883
3260.000000	4.994848
3258.000000	4.996682
3256.000000	4.998695
3254.000000	5.000696
3252.000000	5.002992
3250.000000	5.005280
3248.000000	5.007934
3246.000000	5.009943
3244.000000	5.011560
3242.000000	5.014471
3240.000000	5.017583
3238.000000	5.019452
3236.000000	5.021431
3234.000000	5.024429
3232.000000	5.026779
3230.000000	5.028368
3228.000000	5.030201
3226.000000	5.032187
3224.000000	5.034820
3222.000000	5.038328
3220.000000	5.040857
3218.000000	5.042410
3216.000000	5.044744
3214.000000	5.047723
3212.000000	5.051037
3210.000000	5.053596
3208.000000	5.055912
3206.000000	5.060046
3204.000000	5.064326
3202.000000	5.067638
3200.000000	5.071457
3198.000000	5.075309
3196.000000	5.078987
3194.000000	5.083256
3192.000000	5.087855
3190.000000	5.092271
3188.000000	5.096342
3186.000000	5.100574
3184.000000	5.105314
3182.000000	5.109844
3180.000000	5.113700
3178.000000	5.116728
3176.000000	5.119862
3174.000000	5.123716
3172.000000	5.128122
3170.000000	5.132938
3168.000000	5.136592
3166.000000	5.139960
3164.000000	5.143852
3162.000000	5.148393
3160.000000	5.153836
3158.000000	5.158050
3156.000000	5.161499
3154.000000	5.166112
3152.000000	5.170775
3150.000000	5.174298
3148.000000	5.178541
3146.000000	5.183029
3144.000000	5.186738
3142.000000	5.190318
3140.000000	5.194598
3138.000000	5.198488
3136.000000	5.202016
3134.000000	5.205222
3132.000000	5.208639
3130.000000	5.212617
3128.000000	5.216020
3126.000000	5.219601
3124.000000	5.223134
3122.000000	5.225833
3120.000000	5.228251
3118.000000	5.230665
3116.000000	5.233831
3114.000000	5.238429
3112.000000	5.243264
3110.000000	5.246509
3108.000000	5.248983
3106.000000	5.252275
3104.000000	5.256276
3102.000000	5.259435
3100.000000	5.262396
3098.000000	5.266646
3096.000000	5.271214
3094.000000	5.275755
3092.000000	5.280680
3090.000000	5.285513
3088.000000	5.289612
3086.000000	5.292958
3084.000000	5.296344
3082.000000	5.299784
3080.000000	5.303046
3078.000000	5.306436
3076.000000	5.310131
3074.000000	5.313015
3072.000000	5.315185
3070.000000	5.317093
3068.000000	5.318314
3066.000000	5.319315
3064.000000	5.321152
3062.000000	5.324394
3060.000000	5.328491
3058.000000	5.333039
3056.000000	5.337019
3054.000000	5.340321
3052.000000	5.344369
3050.000000	5.348852
3048.000000	5.352754
3046.000000	5.355842
3044.000000	5.358628
3042.000000	5.360677
3040.000000	5.362913
3038.000000	5.365311
3036.000000	5.367330
3034.000000	5.368028
3032.000000	5.367396
3030.000000	5.366723
3028.000000	5.364685
3026.000000	5.359928
3024.000000	5.354021
3022.000000	5.347222
3020.000000	5.341427
3018.000000	5.340416
3016.000000	5.345350
3014.000000	5.356246
3012.000000	5.371572
3010.000000	5.388478
3008.000000	5.405164
3006.000000	5.418625
3004.000000	5.427510
3002.000000	5.433343
3000.000000	5.437769
2998.000000	5.441559
2996.000000	5.443612
2994.000000	5.444311
2992.000000	5.445590
2990.000000	5.446951
2988.000000	5.447717
2986.000000	5.447027
2984.000000	5.444646
2982.000000	5.439986
2980.000000	5.433164
2978.000000	5.423739
2976.000000	5.411303
2974.000000	5.394389
2972.000000	5.371347
2970.000000	5.342178
2968.000000	5.308030
2966.000000	5.272758
2964.000000	5.243217
2962.000000	5.224991
2960.000000	5.221004
2958.000000	5.230472
2956.000000	5.246937
2954.000000	5.263990
2952.000000	5.278834
2950.000000	5.289643
2948.000000	5.293807
2946.000000	5.289847
2944.000000	5.278366
2942.000000	5.259050
2940.000000	5.233239
2938.000000	5.203965
2936.000000	5.174498
2934.000000	5.147975
2932.000000	5.124636
2930.000000	5.101450
2928.000000	5.079292
2926.000000	5.063710
2924.000000	5.060560
2922.000000	5.075042
2920.000000	5.107837
2918.000000	5.152502
2916.000000	5.201527
2914.000000	5.250804
2912.000000	5.296260
2910.000000	5.333949
2908.000000	5.363219
2906.000000	5.385925
2904.000000	5.405601
2902.000000	5.424173
2900.000000	5.440595
2898.000000	5.455066
2896.000000	5.469265
2894.000000	5.482871
2892.000000	5.496429
2890.000000	5.509195
2888.000000	5.519982
2886.000000	5.528903
2884.000000	5.536720
2882.000000	5.542533
2880.000000	5.544074
2878.000000	5.542447
2876.000000	5.538664
2874.000000	5.531486
2872.000000	5.520975
2870.000000	5.504610
2868.000000	5.480625
2866.000000	5.449312
2864.000000	5.415265
2862.000000	5.387372
2860.000000	5.373557
2858.000000	5.375953
2856.000000	5.389826
2854.000000	5.409171
2852.000000	5.432052
2850.000000	5.459029
2848.000000	5.491806
2846.000000	5.528826
2844.000000	5.564314
2842.000000	5.593967
2840.000000	5.617206
2838.000000	5.635859
2836.000000	5.650129
2834.000000	5.661764
2832.000000	5.672152
2830.000000	5.680505
2828.000000	5.687590
2826.000000	5.695021
2824.000000	5.702254
2822.000000	5.708403
2820.000000	5.714094
2818.000000	5.719486
2816.000000	5.723743
2814.000000	5.726582
2812.000000	5.729666
2810.000000	5.734173
2808.000000	5.738675
2806.000000	5.742196
2804.000000	5.744948
2802.000000	5.747422
2800.000000	5.750522
2798.000000	5.753666
2796.000000	5.756013
2794.000000	5.758664
2792.000000	5.762037
2790.000000	5.765440
2788.000000	5.769603
2786.000000	5.774481
2784.000000	5.779021
2782.000000	5.783477
2780.000000	5.788797
2778.000000	5.793521
2776.000000	5.796988
2774.000000	5.800024
2772.000000	5.803994
2770.000000	5.807785
2768.000000	5.810574
2766.000000	5.813231
2764.000000	5.816216
2762.000000	5.819246
2760.000000	5.822583
2758.000000	5.825692
2756.000000	5.827730
2754.000000	5.829836
2752.000000	5.832104
2750.000000	5.833750
2748.000000	5.835006
2746.000000	5.836394
2744.000000	5.837801
2742.000000	5.839629
2740.000000	5.842533
2738.000000	5.845224
2736.000000	5.846747
2734.000000	5.847817
2732.000000	5.849831
2730.000000	5.851781
2728.000000	5.853195
2726.000000	5.854154
2724.000000	5.855069
2722.000000	5.855931
2720.000000	5.857395
2718.000000	5.859083
2716.000000	5.859879
2714.000000	5.860862
2712.000000	5.861324
2710.000000	5.861297
2708.000000	5.861642
2706.000000	5.862669
2704.000000	5.863753
2702.000000	5.864403
2700.000000	5.865182
2698.000000	5.866663
2696.000000	5.868067
2694.000000	5.869071
2692.000000	5.870658
2690.000000	5.872717
2688.000000	5.874734
2686.000000	5.875122
2684.000000	5.875373
2682.000000	5.877205
2680.000000	5.879917
2678.000000	5.881576
2676.000000	5.882351
2674.000000	5.883167
2672.000000	5.883695
2670.000000	5.883906
2668.000000	5.884690
2666.000000	5.885888
2664.000000	5.887113
2662.000000	5.888196
2660.000000	5.888116
2658.000000	5.887740
2656.000000	5.887680
2654.000000	5.888343
2652.000000	5.890954
2650.000000	5.893398
2648.000000	5.894616
2646.000000	5.895702
2644.000000	5.897207
2642.000000	5.898506
2640.000000	5.899634
2638.000000	5.901620
2636.000000	5.904003
2634.000000	5.905317
2632.000000	5.906377
2630.000000	5.908487
2628.000000	5.909860
2626.000000	5.910379
2624.000000	5.912207
2622.000000	5.914115
2620.000000	5.915197
2618.000000	5.915768
2616.000000	5.916600
2614.000000	5.917901
2612.000000	5.919215
2610.000000	5.919606
2608.000000	5.920224
2606.000000	5.921350
2604.000000	5.922560
2602.000000	5.923221
2600.000000	5.922794
2598.000000	5.922535
2596.000000	5.922607
2594.000000	5.922917
2592.000000	5.924138
2590.000000	5.924934
2588.000000	5.926785
2586.000000	5.929635
2584.000000	5.932934
2582.000000	5.936586
2580.000000	5.939485
2578.000000	5.941725
2576.000000	5.944925
2574.000000	5.948049
2572.000000	5.951367
2570.000000	5.953953
2568.000000	5.955243
2566.000000	5.956502
2564.000000	5.958136
2562.000000	5.959545
2560.000000	5.960915
2558.000000	5.961845
2556.000000	5.963168
2554.000000	5.965157
2552.000000	5.966716
2550.000000	5.967664
2548.000000	5.968355
2546.000000	5.970103
2544.000000	5.972905
2542.000000	5.974656
2540.000000	5.976590
2538.000000	5.979028
2536.000000	5.979793
2534.000000	5.981020
2532.000000	5.983615
2530.000000	5.984313
2528.000000	5.984861
2526.000000	5.986164
2524.000000	5.987482
2522.000000	5.989585
2520.000000	5.991985
2518.000000	5.993631
2516.000000	5.994928
2514.000000	5.995823
2512.000000	5.995649
2510.000000	5.996148
2508.000000	5.998543
2506.000000	6.000852
2504.000000	6.002449
2502.000000	6.003258
2500.000000	6.004167
2498.000000	6.006445
2496.000000	6.008220
2494.000000	6.009476
2492.000000	6.010939
2490.000000	6.012441
2488.000000	6.013986
2486.000000	6.014804
2484.000000	6.014949
2482.000000	6.016002
2480.000000	6.018671
2478.000000	6.021523
2476.000000	6.023414
2474.000000	6.024456
2472.000000	6.025247
2470.000000	6.024777
2468.000000	6.025442
2466.000000	6.026162
2464.000000	6.026548
2462.000000	6.028180
2460.000000	6.030049
2458.000000	6.031031
2456.000000	6.032239
2454.000000	6.033619
2452.000000	6.033912
2450.000000	6.034590
2448.000000	6.035928
2446.000000	6.036890
2444.000000	6.037720
2442.000000	6.037957
2440.000000	6.039722
2438.000000	6.041773
2436.000000	6.043066
2434.000000	6.043759
2432.000000	6.044128
2430.000000	6.044991
2428.000000	6.045743
2426.000000	6.045964
2424.000000	6.046053
2422.000000	6.046573
2420.000000	6.048253
2418.000000	6.050201
2416.000000	6.051385
2414.000000	6.052007
2412.000000	6.052579
2410.000000	6.053565
2408.000000	6.054594
2406.000000	6.055438
2404.000000	6.055348
2402.000000	6.054793
2400.000000	6.055539
2398.000000	6.057879
2396.000000	6.060095
2394.000000	6.061299
2392.000000	6.062226
2390.000000	6.062544
2388.000000	6.062907
2386.000000	6.063927
2384.000000	6.063812
2382.000000	6.061563
2380.000000	6.057752
2378.000000	6.051881
2376.000000	6.043082
2374.000000	6.030208
2372.000000	6.014235
2370.000000	5.997583
2368.000000	5.980688
2366.000000	5.965454
2364.000000	5.954245
2362.000000	5.947674
2360.000000	5.947042
2358.000000	5.954918
2356.000000	5.970522
2354.000000	5.990548
2352.000000	6.014295
2350.000000	6.037223
2348.000000	6.046623
2346.000000	6.034247
2344.000000	6.009526
2342.000000	5.983820
2340.000000	5.964689
2338.000000	5.958339
2336.000000	5.964788
2334.000000	5.975365
2332.000000	5.983151
2330.000000	5.990360
2328.000000	5.998334
2326.000000	6.007063
2324.000000	6.016632
2322.000000	6.025311
2320.000000	6.033281
2318.000000	6.041000
2316.000000	6.048379
2314.000000	6.055091
2312.000000	6.060274
2310.000000	6.064301
2308.000000	6.067520
2306.000000	6.070528
2304.000000	6.073261
2302.000000	6.075047
2300.000000	6.076458
2298.000000	6.077946
2296.000000	6.078901
2294.000000	6.078996
2292.000000	6.079518
2290.000000	6.080741
2288.000000	6.081703
2286.000000	6.082586
2284.000000	6.083117
2282.000000	6.082472
2280.000000	6.081222
2278.000000	6.081782
2276.000000	6.082184
2274.000000	6.081532
2272.000000	6.081236
2270.000000	6.082182
2268.000000	6.083388
2266.000000	6.083150
2264.000000	6.082576
2262.000000	6.082682
2260.000000	6.082429
2258.000000	6.082407
2256.000000	6.083047
2254.000000	6.083021
2252.000000	6.083497
2250.000000	6.084813
2248.000000	6.085818
2246.000000	6.086581
2244.000000	6.087733
2242.000000	6.088772
2240.000000	6.089427
2238.000000	6.090396
2236.000000	6.091944
2234.000000	6.094007
2232.000000	6.095337
2230.000000	6.094696
2228.000000	6.095376
2226.000000	6.097351
2224.000000	6.099092
2222.000000	6.101046
2220.000000	6.102094
2218.000000	6.102221
2216.000000	6.103093
2214.000000	6.104176
2212.000000	6.105491
2210.000000	6.106863
2208.000000	6.107053
2206.000000	6.108272
2204.000000	6.109396
2202.000000	6.110275
2200.000000	6.111824
2198.000000	6.112093
2196.000000	6.111828
2194.000000	6.112066
2192.000000	6.112817
2190.000000	6.114127
2188.000000	6.114890
2186.000000	6.114266
2184.000000	6.114699
2182.000000	6.115417
2180.000000	6.115856
2178.000000	6.117081
2176.000000	6.119199
2174.000000	6.119952
2172.000000	6.118581
2170.000000	6.116710
2168.000000	6.116890
2166.000000	6.119277
2164.000000	6.121321
2162.000000	6.121928
2160.000000	6.122725
2158.000000	6.123917
2156.000000	6.124977
2154.000000	6.126131
2152.000000	6.126859
2150.000000	6.126904
2148.000000	6.126843
2146.000000	6.127432
2144.000000	6.128696
2142.000000	6.129583
2140.000000	6.130594
2138.000000	6.130597
2136.000000	6.130568
2134.000000	6.131851
2132.000000	6.132516
2130.000000	6.132268
2128.000000	6.133107
2126.000000	6.134183
2124.000000	6.134936
2122.000000	6.135910
2120.000000	6.136677
2118.000000	6.136961
2116.000000	6.137561
2114.000000	6.138644
2112.000000	6.140199
2110.000000	6.141207
2108.000000	6.142148
2106.000000	6.143403
2104.000000	6.145020
2102.000000	6.146393
2100.000000	6.147575
2098.000000	6.148675
2096.000000	6.149856
2094.000000	6.151066
2092.000000	6.151932
2090.000000	6.152479
2088.000000	6.153468
2086.000000	6.154722
2084.000000	6.156996
2082.000000	6.158851
2080.000000	6.160208
2078.000000	6.162390
2076.000000	6.164434
2074.000000	6.165331
2072.000000	6.166383
2070.000000	6.167907
2068.000000	6.169634
2066.000000	6.171043
2064.000000	6.172290
2062.000000	6.174429
2060.000000	6.177241
2058.000000	6.179390
2056.000000	6.180865
2054.000000	6.182477
2052.000000	6.183953
2050.000000	6.184713
2048.000000	6.186240
2046.000000	6.187877
2044.000000	6.188982
2042.000000	6.189849
2040.000000	6.191960
2038.000000	6.194109
2036.000000	6.195151
2034.000000	6.196195
2032.000000	6.197336
2030.000000	6.197230
2028.000000	6.197149
2026.000000	6.199200
2024.000000	6.201825
2022.000000	6.203440
2020.000000	6.203796
2018.000000	6.202825
2016.000000	6.203646
2014.000000	6.206781
2012.000000	6.208776
2010.000000	6.210029
2008.000000	6.211496
2006.000000	6.212763
2004.000000	6.213898
2002.000000	6.215065
2000.000000	6.215496
1998.000000	6.215218
1996.000000	6.215757
1994.000000	6.214912
1992.000000	6.211287
1990.000000	6.211889
1988.000000	6.215690
1986.000000	6.216768
1984.000000	6.217487
1982.000000	6.217423
1980.000000	6.217109
1978.000000	6.216855
1976.000000	6.216361
1974.000000	6.215969
1972.000000	6.216022
1970.000000	6.214273
1968.000000	6.209179
1966.000000	6.206714
1964.000000	6.208775
1962.000000	6.207497
1960.000000	6.200360
1958.000000	6.195195
1956.000000	6.199445
1954.000000	6.202572
1952.000000	6.202020
1950.000000	6.200498
1948.000000	6.199195
1946.000000	6.196850
1944.000000	6.190725
1942.000000	6.184772
1940.000000	6.188837
1938.000000	6.192834
1936.000000	6.191531
1934.000000	6.189548
1932.000000	6.187478
1930.000000	6.185612
1928.000000	6.183573
1926.000000	6.180426
1924.000000	6.174110
1922.000000	6.167747
1920.000000	6.163579
1918.000000	6.151846
1916.000000	6.153649
1914.000000	6.164627
1912.000000	6.163740
1910.000000	6.156302
1908.000000	6.151566
1906.000000	6.150831
1904.000000	6.148399
1902.000000	6.144948
1900.000000	6.141776
1898.000000	6.139229
1896.000000	6.134408
1894.000000	6.131227
1892.000000	6.129617
1890.000000	6.120738
1888.000000	6.117714
1886.000000	6.124222
1884.000000	6.126226
1882.000000	6.126140
1880.000000	6.125206
1878.000000	6.123408
1876.000000	6.122204
1874.000000	6.121311
1872.000000	6.115741
1870.000000	6.096102
1868.000000	6.082713
1866.000000	6.095857
1864.000000	6.108558
1862.000000	6.110808
1860.000000	6.108820
1858.000000	6.106716
1856.000000	6.104462
1854.000000	6.103145
1852.000000	6.101082
1850.000000	6.097138
1848.000000	6.088691
1846.000000	6.065558
1844.000000	6.033316
1842.000000	6.047599
1840.000000	6.077664
1838.000000	6.079827
1836.000000	6.075578
1834.000000	6.072337
1832.000000	6.059254
1830.000000	6.033988
1828.000000	6.031502
1826.000000	6.035064
1824.000000	6.031058
1822.000000	6.040852
1820.000000	6.044470
1818.000000	6.039276
1816.000000	6.033745
1814.000000	6.030214
1812.000000	6.019632
1810.000000	6.009276
1808.000000	6.008258
1806.000000	6.008336
1804.000000	5.999462
1802.000000	5.981341
1800.000000	5.966944
1798.000000	5.967608
1796.000000	5.967313
1794.000000	5.939867
1792.000000	5.903251
1790.000000	5.917014
1788.000000	5.942325
1786.000000	5.934425
1784.000000	5.919292
1782.000000	5.915120
1780.000000	5.908177
1778.000000	5.906643
1776.000000	5.897002
1774.000000	5.852656
1772.000000	5.802933
1770.000000	5.818689
1768.000000	5.841247
1766.000000	5.855514
1764.000000	5.859224
1762.000000	5.831644
1760.000000	5.826761
1758.000000	5.830476
1756.000000	5.818543
1754.000000	5.813555
1752.000000	5.773431
1750.000000	5.739080
1748.000000	5.751813
1746.000000	5.764471
1744.000000	5.761035
1742.000000	5.742975
1740.000000	5.715048
1738.000000	5.709755
1736.000000	5.678910
1734.000000	5.592812
1732.000000	5.615019
1730.000000	5.689426
1728.000000	5.712769
1726.000000	5.716980
1724.000000	5.710683
1722.000000	5.703045
1720.000000	5.666198
1718.000000	5.578559
1716.000000	5.554557
1714.000000	5.614751
1712.000000	5.656890
1710.000000	5.664523
1708.000000	5.646674
1706.000000	5.618469
1704.000000	5.602648
1702.000000	5.554400
1700.000000	5.466866
1698.000000	5.479328
1696.000000	5.477393
1694.000000	5.514894
1692.000000	5.601007
1690.000000	5.611521
1688.000000	5.593416
1686.000000	5.512587
1684.000000	5.426159
1682.000000	5.490577
1680.000000	5.571190
1678.000000	5.576604
1676.000000	5.535411
1674.000000	5.514356
1672.000000	5.531354
1670.000000	5.506187
1668.000000	5.504549
1666.000000	5.538512
1664.000000	5.530760
1662.000000	5.506273
1660.000000	5.521020
1658.000000	5.527471
1656.000000	5.477562
1654.000000	5.322913
1652.000000	5.254855
1650.000000	5.382813
1648.000000	5.422994
1646.000000	5.379531
1644.000000	5.410581
1642.000000	5.455370
1640.000000	5.451533
1638.000000	5.410371
1636.000000	5.331067
1634.000000	5.326553
1632.000000	5.389817
1630.000000	5.398608
1628.000000	5.372457
1626.000000	5.349224
1624.000000	5.313435
1622.000000	5.286665
1620.000000	5.279522
1618.000000	5.214464
1616.000000	5.149666
1614.000000	5.173583
1612.000000	5.179077
1610.000000	5.140155
1608.000000	5.113685
1606.000000	5.109973
1604.000000	5.120241
1602.000000	5.133617
1600.000000	5.148744
1598.000000	5.160894
1596.000000	5.170411
1594.000000	5.176506
1592.000000	5.182084
1590.000000	5.183219
1588.000000	5.181509
1586.000000	5.178011
1584.000000	5.174104
1582.000000	5.169026
1580.000000	5.163959
1578.000000	5.119695
1576.000000	5.051180
1574.000000	5.084193
1572.000000	5.132604
1570.000000	5.103260
1568.000000	5.096764
1566.000000	5.111331
1564.000000	5.101572
1562.000000	5.046517
1560.000000	4.908674
1558.000000	4.850566
1556.000000	4.944905
1554.000000	5.012625
1552.000000	5.054752
1550.000000	5.081783
1548.000000	5.096705
1546.000000	5.092475
1544.000000	5.062792
1542.000000	5.012076
1540.000000	4.957989
1538.000000	5.010716
1536.000000	5.122067
1534.000000	5.137681
1532.000000	5.146027
1530.000000	5.177921
1528.000000	5.173456
1526.000000	5.148830
1524.000000	5.128182
1522.000000	5.078119
1520.000000	5.064168
1518.000000	5.101267
1516.000000	5.107987
1514.000000	5.113803
1512.000000	5.106702
1510.000000	5.080625
1508.000000	4.993949
1506.000000	4.912256
1504.000000	4.949918
1502.000000	4.964432
1500.000000	4.845873
1498.000000	4.648745
1496.000000	4.469477
1494.000000	4.422517
1492.000000	4.474009
1490.000000	4.557954
1488.000000	4.671827
1486.000000	4.781976
1484.000000	4.859356
1482.000000	4.897647
1480.000000	4.915166
1478.000000	4.914121
1476.000000	4.888661
1474.000000	4.845281
1472.000000	4.818278
1470.000000	4.847691
1468.000000	4.862737
1466.000000	4.826493
1464.000000	4.793394
1462.000000	4.789182
1460.000000	4.745348
1458.000000	4.627546
1456.000000	4.540166
1454.000000	4.546804
1452.000000	4.537746
1450.000000	4.528683
1448.000000	4.564273
1446.000000	4.626324
1444.000000	4.669499
1442.000000	4.681141
1440.000000	4.677508
1438.000000	4.645387
1436.000000	4.621389
1434.000000	4.659894
1432.000000	4.682566
1430.000000	4.676365
1428.000000	4.678831
1426.000000	4.683622
1424.000000	4.675858
1422.000000	4.662210
1420.000000	4.618433
1418.000000	4.600192
1416.000000	4.628619
1414.000000	4.635807
1412.000000	4.620179
1410.000000	4.593604
1408.000000	4.553715
1406.000000	4.501523
1404.000000	4.464939
1402.000000	4.462218
1400.000000	4.468867
1398.000000	4.487017
1396.000000	4.510376
1394.000000	4.527460
1392.000000	4.557447
1390.000000	4.568360
1388.000000	4.546335
1386.000000	4.527386
1384.000000	4.525700
1382.000000	4.531064
1380.000000	4.539091
1378.000000	4.538021
1376.000000	4.527826
1374.000000	4.515043
1372.000000	4.515534
1370.000000	4.515242
1368.000000	4.506829
1366.000000	4.498400
1364.000000	4.483009
1362.000000	4.466978
1360.000000	4.464846
1358.000000	4.463134
1356.000000	4.454155
1354.000000	4.442182
1352.000000	4.430775
1350.000000	4.417840
1348.000000	4.404885
1346.000000	4.392082
1344.000000	4.378390
1342.000000	4.362276
1340.000000	4.344622
1338.000000	4.334712
1336.000000	4.332667
1334.000000	4.329245
1332.000000	4.322143
1330.000000	4.311502
1328.000000	4.300149
1326.000000	4.287252
1324.000000	4.272261
1322.000000	4.255767
1320.000000	4.237786
1318.000000	4.219476
1316.000000	4.202782
1314.000000	4.185574
1312.000000	4.168702
1310.000000	4.152058
1308.000000	4.133971
1306.000000	4.114216
1304.000000	4.094404
1302.000000	4.074661
1300.000000	4.055098
1298.000000	4.034975
1296.000000	4.014820
1294.000000	3.993203
1292.000000	3.970969
1290.000000	3.948156
1288.000000	3.924744
1286.000000	3.900963
1284.000000	3.877250
1282.000000	3.852574
1280.000000	3.825581
1278.000000	3.796078
1276.000000	3.764059
1274.000000	3.726720
1272.000000	3.681993
1270.000000	3.627090
1268.000000	3.557642
1266.000000	3.470698
1264.000000	3.374361
1262.000000	3.289321
1260.000000	3.241035
1258.000000	3.236277
1256.000000	3.261239
1254.000000	3.291022
1252.000000	3.305308
1250.000000	3.299652
1248.000000	3.280297
1246.000000	3.253550
1244.000000	3.223272
1242.000000	3.191605
1240.000000	3.160516
1238.000000	3.130099
1236.000000	3.100658
1234.000000	3.072449
1232.000000	3.044528
1230.000000	3.016392
1228.000000	2.988547
1226.000000	2.960534
1224.000000	2.932407
1222.000000	2.903144
1220.000000	2.873166
1218.000000	2.841869
1216.000000	2.810039
1214.000000	2.777958
1212.000000	2.747434
1210.000000	2.719438
1208.000000	2.693534
1206.000000	2.668617
1204.000000	2.644984
1202.000000	2.620832
1200.000000	2.595870
1198.000000	2.571537
1196.000000	2.547480
1194.000000	2.522206
1192.000000	2.496940
1190.000000	2.470306
1188.000000	2.442661
1186.000000	2.414997
1184.000000	2.382886
1182.000000	2.340439
1180.000000	2.301717
1178.000000	2.281723
1176.000000	2.267662
1174.000000	2.246407
1172.000000	2.220604
1170.000000	2.193905
1168.000000	2.166446
1166.000000	2.137519
1164.000000	2.108439
1162.000000	2.080202
1160.000000	2.052334
1158.000000	2.025333
1156.000000	1.999698
1154.000000	1.974330
1152.000000	1.948865
1150.000000	1.923477
1148.000000	1.898211
1146.000000	1.872594
1144.000000	1.847971
1142.000000	1.824824
1140.000000	1.804928
1138.000000	1.786495
1136.000000	1.766117
1134.000000	1.743544
1132.000000	1.719373
1130.000000	1.694466
1128.000000	1.669358
1126.000000	1.644304
1124.000000	1.619147
1122.000000	1.593238
1120.000000	1.567512
1118.000000	1.541192
1116.000000	1.513855
1114.000000	1.486312
1112.000000	1.459418
1110.000000	1.431569
1108.000000	1.403580
1106.000000	1.377135
1104.000000	1.352803
1102.000000	1.329274
1100.000000	1.305379
1098.000000	1.280958
1096.000000	1.258601
1094.000000	1.237152
1092.000000	1.215731
1090.000000	1.195631
1088.000000	1.176276
1086.000000	1.157692
1084.000000	1.140218
1082.000000	1.121885
1080.000000	1.103683
1078.000000	1.086721
1076.000000	1.072153
1074.000000	1.059938
1072.000000	1.048841
1070.000000	1.037230
1068.000000	1.025564
1066.000000	1.013596
1064.000000	1.001401
1062.000000	0.989376
1060.000000	0.977276
1058.000000	0.963054
1056.000000	0.943464
1054.000000	0.916566
1052.000000	0.887612
1050.000000	0.868339
1048.000000	0.865122
1046.000000	0.871003
1044.000000	0.873843
1042.000000	0.868854
1040.000000	0.859391
1038.000000	0.848370
1036.000000	0.836963
1034.000000	0.824197
1032.000000	0.810846
1030.000000	0.796779
1028.000000	0.782960
1026.000000	0.769525
1024.000000	0.755689
1022.000000	0.740801
1020.000000	0.726197
1018.000000	0.712712
1016.000000	0.702060
1014.000000	0.693077
1012.000000	0.685747
1010.000000	0.679064
1008.000000	0.671979
1006.000000	0.663804
1004.000000	0.654271
1002.000000	0.643950
1000.000000	0.632858
