PE IR       SUBTECH     SPECTRUM    ASCII       PEDS        4.00        
   -1
TE110A_029_105K_2MIN.ASC
20/05/14
12:39:45.00
20/05/14
12:39:45.00
Administrator
TE110A.Thursday, May 14 2020, 012.
1000.000000
#HDR
-1
-1
#GR
cm-1
A
1.0
0.0
6000.000000
-2.000000
2501
8
1.257307
1.206706
#DATA
6000.000000	1.239546
5998.000000	1.239307
5996.000000	1.238834
5994.000000	1.238436
5992.000000	1.238219
5990.000000	1.238442
5988.000000	1.238819
5986.000000	1.239246
5984.000000	1.239295
5982.000000	1.239129
5980.000000	1.238998
5978.000000	1.238915
5976.000000	1.238894
5974.000000	1.238590
5972.000000	1.238299
5970.000000	1.238269
5968.000000	1.238317
5966.000000	1.238441
5964.000000	1.238542
5962.000000	1.238380
5960.000000	1.238324
5958.000000	1.238461
5956.000000	1.238922
5954.000000	1.239412
5952.000000	1.239435
5950.000000	1.239154
5948.000000	1.238706
5946.000000	1.238200
5944.000000	1.237711
5942.000000	1.237801
5940.000000	1.238181
5938.000000	1.238610
5936.000000	1.238616
5934.000000	1.238282
5932.000000	1.238135
5930.000000	1.238083
5928.000000	1.237950
5926.000000	1.237914
5924.000000	1.237716
5922.000000	1.237613
5920.000000	1.237299
5918.000000	1.237043
5916.000000	1.236953
5914.000000	1.236859
5912.000000	1.237024
5910.000000	1.237176
5908.000000	1.237342
5906.000000	1.237280
5904.000000	1.237383
5902.000000	1.237617
5900.000000	1.237539
5898.000000	1.237523
5896.000000	1.237427
5894.000000	1.237477
5892.000000	1.237405
5890.000000	1.237200
5888.000000	1.237464
5886.000000	1.237533
5884.000000	1.237272
5882.000000	1.237294
5880.000000	1.237514
5878.000000	1.237810
5876.000000	1.237574
5874.000000	1.236937
5872.000000	1.236633
5870.000000	1.236463
5868.000000	1.236268
5866.000000	1.236283
5864.000000	1.236457
5862.000000	1.236571
5860.000000	1.236701
5858.000000	1.236904
5856.000000	1.237308
5854.000000	1.237342
5852.000000	1.236933
5850.000000	1.236550
5848.000000	1.236412
5846.000000	1.236342
5844.000000	1.236241
5842.000000	1.236105
5840.000000	1.236136
5838.000000	1.236177
5836.000000	1.236195
5834.000000	1.236111
5832.000000	1.236231
5830.000000	1.236686
5828.000000	1.236964
5826.000000	1.236920
5824.000000	1.236445
5822.000000	1.236010
5820.000000	1.235734
5818.000000	1.235699
5816.000000	1.235953
5814.000000	1.236066
5812.000000	1.236051
5810.000000	1.235931
5808.000000	1.235864
5806.000000	1.236016
5804.000000	1.236195
5802.000000	1.236337
5800.000000	1.236258
5798.000000	1.236087
5796.000000	1.236027
5794.000000	1.236068
5792.000000	1.236027
5790.000000	1.236004
5788.000000	1.235920
5786.000000	1.236052
5784.000000	1.236073
5782.000000	1.236062
5780.000000	1.235838
5778.000000	1.235504
5776.000000	1.235547
5774.000000	1.235544
5772.000000	1.235408
5770.000000	1.235089
5768.000000	1.234909
5766.000000	1.235331
5764.000000	1.235787
5762.000000	1.235625
5760.000000	1.235131
5758.000000	1.234739
5756.000000	1.234966
5754.000000	1.235265
5752.000000	1.235445
5750.000000	1.235497
5748.000000	1.235430
5746.000000	1.235196
5744.000000	1.234877
5742.000000	1.234809
5740.000000	1.234893
5738.000000	1.234910
5736.000000	1.234959
5734.000000	1.235050
5732.000000	1.235168
5730.000000	1.235120
5728.000000	1.234937
5726.000000	1.234829
5724.000000	1.235073
5722.000000	1.235313
5720.000000	1.235337
5718.000000	1.235126
5716.000000	1.234812
5714.000000	1.234678
5712.000000	1.234492
5710.000000	1.234249
5708.000000	1.234178
5706.000000	1.234069
5704.000000	1.233999
5702.000000	1.233956
5700.000000	1.234160
5698.000000	1.234308
5696.000000	1.234412
5694.000000	1.234474
5692.000000	1.234543
5690.000000	1.234510
5688.000000	1.234406
5686.000000	1.234425
5684.000000	1.234389
5682.000000	1.234234
5680.000000	1.234121
5678.000000	1.234117
5676.000000	1.233962
5674.000000	1.233856
5672.000000	1.233796
5670.000000	1.233845
5668.000000	1.233768
5666.000000	1.233752
5664.000000	1.233854
5662.000000	1.234046
5660.000000	1.234060
5658.000000	1.233827
5656.000000	1.233615
5654.000000	1.233584
5652.000000	1.233776
5650.000000	1.233943
5648.000000	1.234101
5646.000000	1.234229
5644.000000	1.234159
5642.000000	1.234100
5640.000000	1.233923
5638.000000	1.233782
5636.000000	1.233438
5634.000000	1.233090
5632.000000	1.233136
5630.000000	1.233416
5628.000000	1.233718
5626.000000	1.233757
5624.000000	1.233523
5622.000000	1.233267
5620.000000	1.232997
5618.000000	1.233000
5616.000000	1.233463
5614.000000	1.233902
5612.000000	1.233928
5610.000000	1.233683
5608.000000	1.233496
5606.000000	1.233360
5604.000000	1.233251
5602.000000	1.233144
5600.000000	1.233201
5598.000000	1.233294
5596.000000	1.233284
5594.000000	1.233325
5592.000000	1.233329
5590.000000	1.233176
5588.000000	1.232863
5586.000000	1.232653
5584.000000	1.232651
5582.000000	1.232816
5580.000000	1.232744
5578.000000	1.232664
5576.000000	1.232599
5574.000000	1.232535
5572.000000	1.232494
5570.000000	1.232274
5568.000000	1.232079
5566.000000	1.232108
5564.000000	1.232277
5562.000000	1.232549
5560.000000	1.232807
5558.000000	1.232732
5556.000000	1.232349
5554.000000	1.231934
5552.000000	1.231792
5550.000000	1.231915
5548.000000	1.232079
5546.000000	1.232177
5544.000000	1.232340
5542.000000	1.232252
5540.000000	1.232089
5538.000000	1.231946
5536.000000	1.231841
5534.000000	1.232020
5532.000000	1.232223
5530.000000	1.232305
5528.000000	1.232105
5526.000000	1.231719
5524.000000	1.231498
5522.000000	1.231598
5520.000000	1.231869
5518.000000	1.231923
5516.000000	1.231835
5514.000000	1.231698
5512.000000	1.231690
5510.000000	1.231688
5508.000000	1.231699
5506.000000	1.231712
5504.000000	1.231553
5502.000000	1.231401
5500.000000	1.231407
5498.000000	1.231579
5496.000000	1.231538
5494.000000	1.231461
5492.000000	1.231408
5490.000000	1.231333
5488.000000	1.231347
5486.000000	1.231535
5484.000000	1.231704
5482.000000	1.231606
5480.000000	1.231174
5478.000000	1.230904
5476.000000	1.230977
5474.000000	1.231165
5472.000000	1.231261
5470.000000	1.231043
5468.000000	1.230812
5466.000000	1.230743
5464.000000	1.230713
5462.000000	1.230661
5460.000000	1.230572
5458.000000	1.230613
5456.000000	1.230728
5454.000000	1.230746
5452.000000	1.230520
5450.000000	1.230287
5448.000000	1.230391
5446.000000	1.230764
5444.000000	1.230905
5442.000000	1.230849
5440.000000	1.230834
5438.000000	1.230953
5436.000000	1.230936
5434.000000	1.230798
5432.000000	1.230475
5430.000000	1.230351
5428.000000	1.230743
5426.000000	1.231198
5424.000000	1.231179
5422.000000	1.230826
5420.000000	1.230526
5418.000000	1.230278
5416.000000	1.230000
5414.000000	1.229942
5412.000000	1.230160
5410.000000	1.230557
5408.000000	1.230816
5406.000000	1.230622
5404.000000	1.230416
5402.000000	1.230469
5400.000000	1.230375
5398.000000	1.229889
5396.000000	1.229591
5394.000000	1.229952
5392.000000	1.230463
5390.000000	1.230479
5388.000000	1.229986
5386.000000	1.229684
5384.000000	1.229787
5382.000000	1.229972
5380.000000	1.229737
5378.000000	1.229527
5376.000000	1.229657
5374.000000	1.230046
5372.000000	1.230294
5370.000000	1.230187
5368.000000	1.229903
5366.000000	1.229648
5364.000000	1.229674
5362.000000	1.229932
5360.000000	1.230011
5358.000000	1.229670
5356.000000	1.229146
5354.000000	1.229055
5352.000000	1.229365
5350.000000	1.229618
5348.000000	1.229492
5346.000000	1.229402
5344.000000	1.229508
5342.000000	1.229389
5340.000000	1.229050
5338.000000	1.229215
5336.000000	1.229877
5334.000000	1.230054
5332.000000	1.229550
5330.000000	1.229049
5328.000000	1.229211
5326.000000	1.229636
5324.000000	1.229845
5322.000000	1.229720
5320.000000	1.229410
5318.000000	1.229338
5316.000000	1.229461
5314.000000	1.229586
5312.000000	1.229476
5310.000000	1.229247
5308.000000	1.229092
5306.000000	1.229154
5304.000000	1.229268
5302.000000	1.229370
5300.000000	1.229423
5298.000000	1.229361
5296.000000	1.229171
5294.000000	1.228904
5292.000000	1.228787
5290.000000	1.228904
5288.000000	1.228832
5286.000000	1.228796
5284.000000	1.228854
5282.000000	1.229043
5280.000000	1.229155
5278.000000	1.229135
5276.000000	1.229141
5274.000000	1.229073
5272.000000	1.228994
5270.000000	1.228902
5268.000000	1.228766
5266.000000	1.228573
5264.000000	1.228515
5262.000000	1.228631
5260.000000	1.228792
5258.000000	1.228649
5256.000000	1.228545
5254.000000	1.228733
5252.000000	1.228853
5250.000000	1.228707
5248.000000	1.228633
5246.000000	1.228814
5244.000000	1.229048
5242.000000	1.229209
5240.000000	1.229259
5238.000000	1.229019
5236.000000	1.228736
5234.000000	1.228674
5232.000000	1.228866
5230.000000	1.228854
5228.000000	1.228517
5226.000000	1.228205
5224.000000	1.228303
5222.000000	1.228619
5220.000000	1.228771
5218.000000	1.228741
5216.000000	1.228736
5214.000000	1.228740
5212.000000	1.228636
5210.000000	1.228271
5208.000000	1.228051
5206.000000	1.228291
5204.000000	1.228709
5202.000000	1.228716
5200.000000	1.228401
5198.000000	1.228213
5196.000000	1.228315
5194.000000	1.228502
5192.000000	1.228559
5190.000000	1.228448
5188.000000	1.228190
5186.000000	1.228049
5184.000000	1.228160
5182.000000	1.228339
5180.000000	1.228324
5178.000000	1.228235
5176.000000	1.228228
5174.000000	1.228190
5172.000000	1.228123
5170.000000	1.228135
5168.000000	1.228156
5166.000000	1.228144
5164.000000	1.228110
5162.000000	1.228063
5160.000000	1.228122
5158.000000	1.228202
5156.000000	1.228214
5154.000000	1.228081
5152.000000	1.228132
5150.000000	1.228313
5148.000000	1.228390
5146.000000	1.228330
5144.000000	1.228340
5142.000000	1.228438
5140.000000	1.228423
5138.000000	1.228346
5136.000000	1.228332
5134.000000	1.228374
5132.000000	1.228386
5130.000000	1.228370
5128.000000	1.228336
5126.000000	1.228323
5124.000000	1.228282
5122.000000	1.228231
5120.000000	1.228120
5118.000000	1.228082
5116.000000	1.228079
5114.000000	1.228114
5112.000000	1.228177
5110.000000	1.228221
5108.000000	1.228087
5106.000000	1.227933
5104.000000	1.227939
5102.000000	1.227925
5100.000000	1.227915
5098.000000	1.228031
5096.000000	1.228192
5094.000000	1.228114
5092.000000	1.227958
5090.000000	1.227973
5088.000000	1.228076
5086.000000	1.228047
5084.000000	1.227958
5082.000000	1.227988
5080.000000	1.228045
5078.000000	1.227986
5076.000000	1.227879
5074.000000	1.227797
5072.000000	1.227759
5070.000000	1.227840
5068.000000	1.227973
5066.000000	1.227925
5064.000000	1.227876
5062.000000	1.227988
5060.000000	1.228094
5058.000000	1.227961
5056.000000	1.227833
5054.000000	1.227886
5052.000000	1.228014
5050.000000	1.228021
5048.000000	1.227968
5046.000000	1.227974
5044.000000	1.228026
5042.000000	1.228074
5040.000000	1.228107
5038.000000	1.228125
5036.000000	1.228118
5034.000000	1.228032
5032.000000	1.227924
5030.000000	1.227846
5028.000000	1.227924
5026.000000	1.228137
5024.000000	1.228190
5022.000000	1.228122
5020.000000	1.228029
5018.000000	1.228007
5016.000000	1.227911
5014.000000	1.227729
5012.000000	1.227546
5010.000000	1.227533
5008.000000	1.227766
5006.000000	1.227963
5004.000000	1.227891
5002.000000	1.227700
5000.000000	1.227675
4998.000000	1.227731
4996.000000	1.227792
4994.000000	1.227892
4992.000000	1.228045
4990.000000	1.228084
4988.000000	1.227946
4986.000000	1.227829
4984.000000	1.227755
4982.000000	1.227698
4980.000000	1.227669
4978.000000	1.227771
4976.000000	1.227916
4974.000000	1.227942
4972.000000	1.227896
4970.000000	1.227858
4968.000000	1.227823
4966.000000	1.227832
4964.000000	1.227906
4962.000000	1.227900
4960.000000	1.227861
4958.000000	1.227905
4956.000000	1.227921
4954.000000	1.227729
4952.000000	1.227535
4950.000000	1.227554
4948.000000	1.227767
4946.000000	1.227951
4944.000000	1.228031
4942.000000	1.228070
4940.000000	1.228063
4938.000000	1.228007
4936.000000	1.228028
4934.000000	1.228114
4932.000000	1.228012
4930.000000	1.227749
4928.000000	1.227596
4926.000000	1.227623
4924.000000	1.227755
4922.000000	1.227922
4920.000000	1.228043
4918.000000	1.228027
4916.000000	1.227959
4914.000000	1.227892
4912.000000	1.227874
4910.000000	1.227903
4908.000000	1.227992
4906.000000	1.227988
4904.000000	1.227898
4902.000000	1.227783
4900.000000	1.227667
4898.000000	1.227642
4896.000000	1.227738
4894.000000	1.227921
4892.000000	1.228035
4890.000000	1.227927
4888.000000	1.227702
4886.000000	1.227611
4884.000000	1.227666
4882.000000	1.227686
4880.000000	1.227686
4878.000000	1.227785
4876.000000	1.227899
4874.000000	1.227890
4872.000000	1.227820
4870.000000	1.227832
4868.000000	1.227866
4866.000000	1.227785
4864.000000	1.227761
4862.000000	1.227895
4860.000000	1.227938
4858.000000	1.227815
4856.000000	1.227729
4854.000000	1.227839
4852.000000	1.227988
4850.000000	1.227991
4848.000000	1.227866
4846.000000	1.227754
4844.000000	1.227826
4842.000000	1.227905
4840.000000	1.227947
4838.000000	1.227993
4836.000000	1.228064
4834.000000	1.228035
4832.000000	1.227958
4830.000000	1.227895
4828.000000	1.227864
4826.000000	1.227827
4824.000000	1.227781
4822.000000	1.227734
4820.000000	1.227779
4818.000000	1.227859
4816.000000	1.227807
4814.000000	1.227688
4812.000000	1.227674
4810.000000	1.227716
4808.000000	1.227693
4806.000000	1.227754
4804.000000	1.227826
4802.000000	1.227791
4800.000000	1.227628
4798.000000	1.227470
4796.000000	1.227357
4794.000000	1.227375
4792.000000	1.227452
4790.000000	1.227505
4788.000000	1.227507
4786.000000	1.227553
4784.000000	1.227629
4782.000000	1.227568
4780.000000	1.227416
4778.000000	1.227456
4776.000000	1.227639
4774.000000	1.227728
4772.000000	1.227667
4770.000000	1.227556
4768.000000	1.227545
4766.000000	1.227579
4764.000000	1.227542
4762.000000	1.227490
4760.000000	1.227568
4758.000000	1.227721
4756.000000	1.227802
4754.000000	1.227691
4752.000000	1.227581
4750.000000	1.227667
4748.000000	1.227815
4746.000000	1.227820
4744.000000	1.227732
4742.000000	1.227626
4740.000000	1.227584
4738.000000	1.227615
4736.000000	1.227610
4734.000000	1.227532
4732.000000	1.227426
4730.000000	1.227383
4728.000000	1.227360
4726.000000	1.227403
4724.000000	1.227468
4722.000000	1.227488
4720.000000	1.227422
4718.000000	1.227357
4716.000000	1.227326
4714.000000	1.227308
4712.000000	1.227383
4710.000000	1.227466
4708.000000	1.227428
4706.000000	1.227324
4704.000000	1.227305
4702.000000	1.227298
4700.000000	1.227306
4698.000000	1.227378
4696.000000	1.227456
4694.000000	1.227483
4692.000000	1.227500
4690.000000	1.227504
4688.000000	1.227488
4686.000000	1.227429
4684.000000	1.227314
4682.000000	1.227263
4680.000000	1.227337
4678.000000	1.227420
4676.000000	1.227463
4674.000000	1.227557
4672.000000	1.227648
4670.000000	1.227610
4668.000000	1.227512
4666.000000	1.227430
4664.000000	1.227395
4662.000000	1.227407
4660.000000	1.227423
4658.000000	1.227404
4656.000000	1.227330
4654.000000	1.227312
4652.000000	1.227438
4650.000000	1.227562
4648.000000	1.227472
4646.000000	1.227297
4644.000000	1.227346
4642.000000	1.227539
4640.000000	1.227573
4638.000000	1.227447
4636.000000	1.227386
4634.000000	1.227364
4632.000000	1.227308
4630.000000	1.227335
4628.000000	1.227369
4626.000000	1.227319
4624.000000	1.227293
4622.000000	1.227394
4620.000000	1.227547
4618.000000	1.227618
4616.000000	1.227524
4614.000000	1.227434
4612.000000	1.227410
4610.000000	1.227338
4608.000000	1.227260
4606.000000	1.227288
4604.000000	1.227192
4602.000000	1.227106
4600.000000	1.227285
4598.000000	1.227475
4596.000000	1.227370
4594.000000	1.227203
4592.000000	1.227194
4590.000000	1.227287
4588.000000	1.227449
4586.000000	1.227593
4584.000000	1.227566
4582.000000	1.227452
4580.000000	1.227448
4578.000000	1.227565
4576.000000	1.227634
4574.000000	1.227609
4572.000000	1.227542
4570.000000	1.227556
4568.000000	1.227571
4566.000000	1.227508
4564.000000	1.227381
4562.000000	1.227250
4560.000000	1.227215
4558.000000	1.227382
4556.000000	1.227624
4554.000000	1.227733
4552.000000	1.227638
4550.000000	1.227429
4548.000000	1.227317
4546.000000	1.227313
4544.000000	1.227380
4542.000000	1.227456
4540.000000	1.227420
4538.000000	1.227318
4536.000000	1.227291
4534.000000	1.227315
4532.000000	1.227289
4530.000000	1.227265
4528.000000	1.227244
4526.000000	1.227230
4524.000000	1.227291
4522.000000	1.227386
4520.000000	1.227329
4518.000000	1.227248
4516.000000	1.227246
4514.000000	1.227262
4512.000000	1.227279
4510.000000	1.227327
4508.000000	1.227374
4506.000000	1.227386
4504.000000	1.227270
4502.000000	1.227101
4500.000000	1.226972
4498.000000	1.226957
4496.000000	1.227060
4494.000000	1.227201
4492.000000	1.227296
4490.000000	1.227317
4488.000000	1.227268
4486.000000	1.227264
4484.000000	1.227316
4482.000000	1.227323
4480.000000	1.227200
4478.000000	1.227096
4476.000000	1.227175
4474.000000	1.227353
4472.000000	1.227491
4470.000000	1.227550
4468.000000	1.227486
4466.000000	1.227442
4464.000000	1.227422
4462.000000	1.227334
4460.000000	1.227266
4458.000000	1.227289
4456.000000	1.227281
4454.000000	1.227308
4452.000000	1.227378
4450.000000	1.227373
4448.000000	1.227314
4446.000000	1.227277
4444.000000	1.227215
4442.000000	1.227156
4440.000000	1.227165
4438.000000	1.227216
4436.000000	1.227255
4434.000000	1.227209
4432.000000	1.227138
4430.000000	1.227095
4428.000000	1.227043
4426.000000	1.227025
4424.000000	1.227105
4422.000000	1.227136
4420.000000	1.227058
4418.000000	1.227029
4416.000000	1.227090
4414.000000	1.227058
4412.000000	1.226993
4410.000000	1.227066
4408.000000	1.227155
4406.000000	1.227143
4404.000000	1.227066
4402.000000	1.226950
4400.000000	1.226913
4398.000000	1.226963
4396.000000	1.226961
4394.000000	1.226977
4392.000000	1.226973
4390.000000	1.226910
4388.000000	1.226957
4386.000000	1.227083
4384.000000	1.227088
4382.000000	1.227056
4380.000000	1.227086
4378.000000	1.227125
4376.000000	1.227058
4374.000000	1.226995
4372.000000	1.227074
4370.000000	1.227150
4368.000000	1.227130
4366.000000	1.227163
4364.000000	1.227206
4362.000000	1.227213
4360.000000	1.227192
4358.000000	1.227082
4356.000000	1.226982
4354.000000	1.227027
4352.000000	1.227059
4350.000000	1.226984
4348.000000	1.226887
4346.000000	1.226879
4344.000000	1.226887
4342.000000	1.226822
4340.000000	1.226774
4338.000000	1.226796
4336.000000	1.226769
4334.000000	1.226752
4332.000000	1.226842
4330.000000	1.226917
4328.000000	1.226870
4326.000000	1.226775
4324.000000	1.226702
4322.000000	1.226674
4320.000000	1.226722
4318.000000	1.226748
4316.000000	1.226701
4314.000000	1.226679
4312.000000	1.226735
4310.000000	1.226748
4308.000000	1.226680
4306.000000	1.226589
4304.000000	1.226535
4302.000000	1.226523
4300.000000	1.226507
4298.000000	1.226472
4296.000000	1.226472
4294.000000	1.226476
4292.000000	1.226458
4290.000000	1.226500
4288.000000	1.226582
4286.000000	1.226608
4284.000000	1.226553
4282.000000	1.226509
4280.000000	1.226518
4278.000000	1.226489
4276.000000	1.226372
4274.000000	1.226335
4272.000000	1.226421
4270.000000	1.226459
4268.000000	1.226427
4266.000000	1.226463
4264.000000	1.226494
4262.000000	1.226454
4260.000000	1.226459
4258.000000	1.226503
4256.000000	1.226458
4254.000000	1.226396
4252.000000	1.226354
4250.000000	1.226222
4248.000000	1.226092
4246.000000	1.226111
4244.000000	1.226157
4242.000000	1.226108
4240.000000	1.226041
4238.000000	1.226070
4236.000000	1.226143
4234.000000	1.226204
4232.000000	1.226208
4230.000000	1.226176
4228.000000	1.226170
4226.000000	1.226191
4224.000000	1.226134
4222.000000	1.226029
4220.000000	1.225936
4218.000000	1.225917
4216.000000	1.225953
4214.000000	1.225974
4212.000000	1.225942
4210.000000	1.225938
4208.000000	1.225895
4206.000000	1.225757
4204.000000	1.225674
4202.000000	1.225708
4200.000000	1.225762
4198.000000	1.225790
4196.000000	1.225792
4194.000000	1.225809
4192.000000	1.225785
4190.000000	1.225690
4188.000000	1.225660
4186.000000	1.225695
4184.000000	1.225708
4182.000000	1.225708
4180.000000	1.225662
4178.000000	1.225642
4176.000000	1.225680
4174.000000	1.225625
4172.000000	1.225486
4170.000000	1.225456
4168.000000	1.225524
4166.000000	1.225541
4164.000000	1.225522
4162.000000	1.225549
4160.000000	1.225486
4158.000000	1.225337
4156.000000	1.225279
4154.000000	1.225298
4152.000000	1.225220
4150.000000	1.225135
4148.000000	1.225180
4146.000000	1.225231
4144.000000	1.225162
4142.000000	1.225056
4140.000000	1.225001
4138.000000	1.224992
4136.000000	1.224951
4134.000000	1.224904
4132.000000	1.224866
4130.000000	1.224831
4128.000000	1.224847
4126.000000	1.224887
4124.000000	1.224871
4122.000000	1.224873
4120.000000	1.224874
4118.000000	1.224805
4116.000000	1.224751
4114.000000	1.224689
4112.000000	1.224527
4110.000000	1.224455
4108.000000	1.224522
4106.000000	1.224572
4104.000000	1.224533
4102.000000	1.224483
4100.000000	1.224460
4098.000000	1.224466
4096.000000	1.224511
4094.000000	1.224538
4092.000000	1.224443
4090.000000	1.224360
4088.000000	1.224390
4086.000000	1.224436
4084.000000	1.224391
4082.000000	1.224309
4080.000000	1.224253
4078.000000	1.224248
4076.000000	1.224260
4074.000000	1.224239
4072.000000	1.224227
4070.000000	1.224235
4068.000000	1.224176
4066.000000	1.224116
4064.000000	1.224074
4062.000000	1.224024
4060.000000	1.223992
4058.000000	1.223940
4056.000000	1.223831
4054.000000	1.223763
4052.000000	1.223820
4050.000000	1.223932
4048.000000	1.223915
4046.000000	1.223788
4044.000000	1.223722
4042.000000	1.223724
4040.000000	1.223664
4038.000000	1.223635
4036.000000	1.223640
4034.000000	1.223557
4032.000000	1.223459
4030.000000	1.223456
4028.000000	1.223430
4026.000000	1.223325
4024.000000	1.223229
4022.000000	1.223194
4020.000000	1.223242
4018.000000	1.223305
4016.000000	1.223240
4014.000000	1.223217
4012.000000	1.223213
4010.000000	1.223040
4008.000000	1.222999
4006.000000	1.223175
4004.000000	1.223176
4002.000000	1.223076
4000.000000	1.223058
3998.000000	1.222991
3996.000000	1.222884
3994.000000	1.222870
3992.000000	1.222845
3990.000000	1.222788
3988.000000	1.222825
3986.000000	1.222838
3984.000000	1.222680
3982.000000	1.222573
3980.000000	1.222618
3978.000000	1.222622
3976.000000	1.222499
3974.000000	1.222369
3972.000000	1.222353
3970.000000	1.222351
3968.000000	1.222317
3966.000000	1.222337
3964.000000	1.222235
3962.000000	1.222091
3960.000000	1.222048
3958.000000	1.221995
3956.000000	1.222020
3954.000000	1.221991
3952.000000	1.221659
3950.000000	1.221447
3948.000000	1.221624
3946.000000	1.221617
3944.000000	1.221299
3942.000000	1.221409
3940.000000	1.221784
3938.000000	1.221774
3936.000000	1.221313
3934.000000	1.220743
3932.000000	1.220902
3930.000000	1.221566
3928.000000	1.221419
3926.000000	1.220836
3924.000000	1.220827
3922.000000	1.220733
3920.000000	1.220195
3918.000000	1.220357
3916.000000	1.221309
3914.000000	1.221722
3912.000000	1.221380
3910.000000	1.220844
3908.000000	1.219550
3906.000000	1.217724
3904.000000	1.217353
3902.000000	1.218549
3900.000000	1.220019
3898.000000	1.221360
3896.000000	1.221268
3894.000000	1.219384
3892.000000	1.218750
3890.000000	1.219788
3888.000000	1.218792
3886.000000	1.217956
3884.000000	1.219532
3882.000000	1.219775
3880.000000	1.219717
3878.000000	1.220310
3876.000000	1.219362
3874.000000	1.217906
3872.000000	1.216488
3870.000000	1.217057
3868.000000	1.219086
3866.000000	1.218844
3864.000000	1.218727
3862.000000	1.220026
3860.000000	1.220041
3858.000000	1.216326
3856.000000	1.209659
3854.000000	1.209723
3852.000000	1.218504
3850.000000	1.223381
3848.000000	1.221538
3846.000000	1.219028
3844.000000	1.217753
3842.000000	1.216406
3840.000000	1.214186
3838.000000	1.214878
3836.000000	1.218608
3834.000000	1.219740
3832.000000	1.219131
3830.000000	1.219395
3828.000000	1.219195
3826.000000	1.218344
3824.000000	1.216177
3822.000000	1.215015
3820.000000	1.216541
3818.000000	1.215924
3816.000000	1.216387
3814.000000	1.220299
3812.000000	1.220544
3810.000000	1.217124
3808.000000	1.215431
3806.000000	1.216748
3804.000000	1.215750
3802.000000	1.214505
3800.000000	1.217908
3798.000000	1.219596
3796.000000	1.218919
3794.000000	1.219408
3792.000000	1.219425
3790.000000	1.218926
3788.000000	1.218573
3786.000000	1.218477
3784.000000	1.218585
3782.000000	1.218055
3780.000000	1.217710
3778.000000	1.218578
3776.000000	1.219055
3774.000000	1.218226
3772.000000	1.216817
3770.000000	1.216694
3768.000000	1.217655
3766.000000	1.218089
3764.000000	1.218207
3762.000000	1.217278
3760.000000	1.216397
3758.000000	1.216929
3756.000000	1.215612
3754.000000	1.211242
3752.000000	1.209342
3750.000000	1.212721
3748.000000	1.213865
3746.000000	1.210363
3744.000000	1.213193
3742.000000	1.219180
3740.000000	1.217116
3738.000000	1.212707
3736.000000	1.212491
3734.000000	1.214343
3732.000000	1.216263
3730.000000	1.217462
3728.000000	1.216433
3726.000000	1.215540
3724.000000	1.215888
3722.000000	1.216231
3720.000000	1.216620
3718.000000	1.216611
3716.000000	1.215125
3714.000000	1.212477
3712.000000	1.212458
3710.000000	1.215472
3708.000000	1.217299
3706.000000	1.216713
3704.000000	1.215211
3702.000000	1.215023
3700.000000	1.216212
3698.000000	1.216501
3696.000000	1.215826
3694.000000	1.214418
3692.000000	1.211708
3690.000000	1.210147
3688.000000	1.213355
3686.000000	1.217194
3684.000000	1.216701
3682.000000	1.214834
3680.000000	1.212778
3678.000000	1.209323
3676.000000	1.209103
3674.000000	1.212291
3672.000000	1.211663
3670.000000	1.211870
3668.000000	1.215376
3666.000000	1.215990
3664.000000	1.214764
3662.000000	1.214134
3660.000000	1.213039
3658.000000	1.211455
3656.000000	1.211966
3654.000000	1.212253
3652.000000	1.208909
3650.000000	1.207610
3648.000000	1.211404
3646.000000	1.214554
3644.000000	1.214318
3642.000000	1.213320
3640.000000	1.213001
3638.000000	1.212744
3636.000000	1.212260
3634.000000	1.211384
3632.000000	1.208636
3630.000000	1.206706
3628.000000	1.210404
3626.000000	1.213919
3624.000000	1.212643
3622.000000	1.210009
3620.000000	1.209171
3618.000000	1.210666
3616.000000	1.211163
3614.000000	1.210097
3612.000000	1.209496
3610.000000	1.209456
3608.000000	1.210618
3606.000000	1.211842
3604.000000	1.211472
3602.000000	1.210778
3600.000000	1.210641
3598.000000	1.210446
3596.000000	1.210158
3594.000000	1.210432
3592.000000	1.210159
3590.000000	1.208638
3588.000000	1.208517
3586.000000	1.210404
3584.000000	1.211332
3582.000000	1.210865
3580.000000	1.210491
3578.000000	1.210440
3576.000000	1.210440
3574.000000	1.210516
3572.000000	1.210076
3570.000000	1.208716
3568.000000	1.208276
3566.000000	1.209723
3564.000000	1.210774
3562.000000	1.210582
3560.000000	1.210385
3558.000000	1.210464
3556.000000	1.210334
3554.000000	1.210145
3552.000000	1.210250
3550.000000	1.210206
3548.000000	1.209847
3546.000000	1.209971
3544.000000	1.210550
3542.000000	1.210880
3540.000000	1.210784
3538.000000	1.210599
3536.000000	1.210753
3534.000000	1.210990
3532.000000	1.210870
3530.000000	1.210716
3528.000000	1.210792
3526.000000	1.210917
3524.000000	1.211050
3522.000000	1.211355
3520.000000	1.211618
3518.000000	1.211726
3516.000000	1.211854
3514.000000	1.211950
3512.000000	1.211893
3510.000000	1.211986
3508.000000	1.212272
3506.000000	1.212290
3504.000000	1.212236
3502.000000	1.212633
3500.000000	1.213046
3498.000000	1.213152
3496.000000	1.213341
3494.000000	1.213644
3492.000000	1.213824
3490.000000	1.214022
3488.000000	1.214300
3486.000000	1.214524
3484.000000	1.214727
3482.000000	1.215009
3480.000000	1.215319
3478.000000	1.215608
3476.000000	1.215939
3474.000000	1.216329
3472.000000	1.216638
3470.000000	1.216885
3468.000000	1.217184
3466.000000	1.217543
3464.000000	1.217929
3462.000000	1.218334
3460.000000	1.218689
3458.000000	1.219009
3456.000000	1.219351
3454.000000	1.219745
3452.000000	1.220115
3450.000000	1.220315
3448.000000	1.220547
3446.000000	1.221028
3444.000000	1.221505
3442.000000	1.221939
3440.000000	1.222417
3438.000000	1.222800
3436.000000	1.223127
3434.000000	1.223583
3432.000000	1.224103
3430.000000	1.224519
3428.000000	1.224904
3426.000000	1.225302
3424.000000	1.225577
3422.000000	1.225775
3420.000000	1.226091
3418.000000	1.226482
3416.000000	1.226780
3414.000000	1.227000
3412.000000	1.227245
3410.000000	1.227454
3408.000000	1.227675
3406.000000	1.227959
3404.000000	1.228142
3402.000000	1.228231
3400.000000	1.228387
3398.000000	1.228669
3396.000000	1.228925
3394.000000	1.229005
3392.000000	1.229110
3390.000000	1.229362
3388.000000	1.229587
3386.000000	1.229697
3384.000000	1.229774
3382.000000	1.229908
3380.000000	1.230027
3378.000000	1.230120
3376.000000	1.230255
3374.000000	1.230346
3372.000000	1.230369
3370.000000	1.230431
3368.000000	1.230550
3366.000000	1.230720
3364.000000	1.230928
3362.000000	1.231083
3360.000000	1.231131
3358.000000	1.231218
3356.000000	1.231341
3354.000000	1.231403
3352.000000	1.231396
3350.000000	1.231454
3348.000000	1.231597
3346.000000	1.231684
3344.000000	1.231655
3342.000000	1.231718
3340.000000	1.231842
3338.000000	1.231851
3336.000000	1.231912
3334.000000	1.232046
3332.000000	1.232133
3330.000000	1.232152
3328.000000	1.232166
3326.000000	1.232253
3324.000000	1.232367
3322.000000	1.232492
3320.000000	1.232568
3318.000000	1.232558
3316.000000	1.232579
3314.000000	1.232669
3312.000000	1.232768
3310.000000	1.232790
3308.000000	1.232736
3306.000000	1.232680
3304.000000	1.232820
3302.000000	1.233058
3300.000000	1.233128
3298.000000	1.233114
3296.000000	1.233139
3294.000000	1.233138
3292.000000	1.233151
3290.000000	1.233256
3288.000000	1.233318
3286.000000	1.233322
3284.000000	1.233381
3282.000000	1.233495
3280.000000	1.233553
3278.000000	1.233531
3276.000000	1.233529
3274.000000	1.233564
3272.000000	1.233584
3270.000000	1.233635
3268.000000	1.233697
3266.000000	1.233721
3264.000000	1.233758
3262.000000	1.233888
3260.000000	1.233990
3258.000000	1.234010
3256.000000	1.234010
3254.000000	1.234055
3252.000000	1.234113
3250.000000	1.234065
3248.000000	1.234000
3246.000000	1.234060
3244.000000	1.234189
3242.000000	1.234307
3240.000000	1.234358
3238.000000	1.234361
3236.000000	1.234392
3234.000000	1.234419
3232.000000	1.234445
3230.000000	1.234542
3228.000000	1.234645
3226.000000	1.234707
3224.000000	1.234759
3222.000000	1.234800
3220.000000	1.234830
3218.000000	1.234894
3216.000000	1.234950
3214.000000	1.234974
3212.000000	1.234923
3210.000000	1.234872
3208.000000	1.234900
3206.000000	1.234915
3204.000000	1.234917
3202.000000	1.234941
3200.000000	1.234986
3198.000000	1.235093
3196.000000	1.235124
3194.000000	1.235064
3192.000000	1.235063
3190.000000	1.235092
3188.000000	1.235123
3186.000000	1.235149
3184.000000	1.235154
3182.000000	1.235124
3180.000000	1.235093
3178.000000	1.235082
3176.000000	1.235098
3174.000000	1.235165
3172.000000	1.235251
3170.000000	1.235256
3168.000000	1.235226
3166.000000	1.235262
3164.000000	1.235372
3162.000000	1.235419
3160.000000	1.235419
3158.000000	1.235422
3156.000000	1.235409
3154.000000	1.235354
3152.000000	1.235361
3150.000000	1.235541
3148.000000	1.235685
3146.000000	1.235693
3144.000000	1.235669
3142.000000	1.235667
3140.000000	1.235663
3138.000000	1.235670
3136.000000	1.235699
3134.000000	1.235841
3132.000000	1.235972
3130.000000	1.235963
3128.000000	1.235973
3126.000000	1.235988
3124.000000	1.235950
3122.000000	1.235886
3120.000000	1.235840
3118.000000	1.235851
3116.000000	1.235917
3114.000000	1.235996
3112.000000	1.235985
3110.000000	1.235856
3108.000000	1.235827
3106.000000	1.235928
3104.000000	1.235933
3102.000000	1.235865
3100.000000	1.235821
3098.000000	1.235771
3096.000000	1.235698
3094.000000	1.235654
3092.000000	1.235531
3090.000000	1.235406
3088.000000	1.235369
3086.000000	1.235338
3084.000000	1.235270
3082.000000	1.235172
3080.000000	1.235035
3078.000000	1.234996
3076.000000	1.234983
3074.000000	1.234904
3072.000000	1.234821
3070.000000	1.234731
3068.000000	1.234666
3066.000000	1.234687
3064.000000	1.234695
3062.000000	1.234650
3060.000000	1.234621
3058.000000	1.234583
3056.000000	1.234509
3054.000000	1.234488
3052.000000	1.234405
3050.000000	1.234301
3048.000000	1.234279
3046.000000	1.234218
3044.000000	1.234139
3042.000000	1.234103
3040.000000	1.234111
3038.000000	1.234090
3036.000000	1.233924
3034.000000	1.233754
3032.000000	1.233710
3030.000000	1.233672
3028.000000	1.233562
3026.000000	1.233367
3024.000000	1.233214
3022.000000	1.233264
3020.000000	1.233481
3018.000000	1.233735
3016.000000	1.233965
3014.000000	1.234145
3012.000000	1.234219
3010.000000	1.234138
3008.000000	1.233966
3006.000000	1.233770
3004.000000	1.233601
3002.000000	1.233493
3000.000000	1.233445
2998.000000	1.233373
2996.000000	1.233232
2994.000000	1.233154
2992.000000	1.233113
2990.000000	1.233008
2988.000000	1.232924
2986.000000	1.232876
2984.000000	1.232877
2982.000000	1.232920
2980.000000	1.232867
2978.000000	1.232748
2976.000000	1.232680
2974.000000	1.232624
2972.000000	1.232576
2970.000000	1.232608
2968.000000	1.232824
2966.000000	1.233382
2964.000000	1.234145
2962.000000	1.234792
2960.000000	1.235147
2958.000000	1.235130
2956.000000	1.234803
2954.000000	1.234349
2952.000000	1.233835
2950.000000	1.233305
2948.000000	1.232771
2946.000000	1.232198
2944.000000	1.231715
2942.000000	1.231367
2940.000000	1.231147
2938.000000	1.231069
2936.000000	1.231162
2934.000000	1.231298
2932.000000	1.231308
2930.000000	1.231272
2928.000000	1.231515
2926.000000	1.232141
2924.000000	1.232992
2922.000000	1.233837
2920.000000	1.234474
2918.000000	1.234840
2916.000000	1.234811
2914.000000	1.234560
2912.000000	1.234210
2910.000000	1.233733
2908.000000	1.233278
2906.000000	1.233002
2904.000000	1.232869
2902.000000	1.232773
2900.000000	1.232674
2898.000000	1.232549
2896.000000	1.232440
2894.000000	1.232367
2892.000000	1.232301
2890.000000	1.232190
2888.000000	1.232042
2886.000000	1.231877
2884.000000	1.231743
2882.000000	1.231619
2880.000000	1.231486
2878.000000	1.231300
2876.000000	1.231069
2874.000000	1.230768
2872.000000	1.230459
2870.000000	1.230121
2868.000000	1.229742
2866.000000	1.229551
2864.000000	1.229738
2862.000000	1.230316
2860.000000	1.231045
2858.000000	1.231597
2856.000000	1.231829
2854.000000	1.231933
2852.000000	1.232116
2850.000000	1.232405
2848.000000	1.232637
2846.000000	1.232539
2844.000000	1.232204
2842.000000	1.231890
2840.000000	1.231715
2838.000000	1.231616
2836.000000	1.231480
2834.000000	1.231321
2832.000000	1.231225
2830.000000	1.231184
2828.000000	1.231108
2826.000000	1.231047
2824.000000	1.231015
2822.000000	1.230937
2820.000000	1.230873
2818.000000	1.230879
2816.000000	1.230876
2814.000000	1.230804
2812.000000	1.230717
2810.000000	1.230692
2808.000000	1.230694
2806.000000	1.230651
2804.000000	1.230642
2802.000000	1.230621
2800.000000	1.230595
2798.000000	1.230591
2796.000000	1.230545
2794.000000	1.230485
2792.000000	1.230529
2790.000000	1.230595
2788.000000	1.230584
2786.000000	1.230551
2784.000000	1.230519
2782.000000	1.230472
2780.000000	1.230461
2778.000000	1.230403
2776.000000	1.230311
2774.000000	1.230290
2772.000000	1.230314
2770.000000	1.230300
2768.000000	1.230301
2766.000000	1.230301
2764.000000	1.230261
2762.000000	1.230245
2760.000000	1.230248
2758.000000	1.230302
2756.000000	1.230318
2754.000000	1.230250
2752.000000	1.230287
2750.000000	1.230377
2748.000000	1.230381
2746.000000	1.230359
2744.000000	1.230390
2742.000000	1.230448
2740.000000	1.230486
2738.000000	1.230476
2736.000000	1.230474
2734.000000	1.230472
2732.000000	1.230516
2730.000000	1.230546
2728.000000	1.230515
2726.000000	1.230513
2724.000000	1.230578
2722.000000	1.230658
2720.000000	1.230777
2718.000000	1.230894
2716.000000	1.230908
2714.000000	1.230947
2712.000000	1.231010
2710.000000	1.230998
2708.000000	1.231053
2706.000000	1.231148
2704.000000	1.231236
2702.000000	1.231327
2700.000000	1.231435
2698.000000	1.231490
2696.000000	1.231527
2694.000000	1.231645
2692.000000	1.231763
2690.000000	1.231783
2688.000000	1.231823
2686.000000	1.231923
2684.000000	1.232044
2682.000000	1.232145
2680.000000	1.232190
2678.000000	1.232209
2676.000000	1.232276
2674.000000	1.232391
2672.000000	1.232453
2670.000000	1.232496
2668.000000	1.232558
2666.000000	1.232598
2664.000000	1.232651
2662.000000	1.232734
2660.000000	1.232787
2658.000000	1.232863
2656.000000	1.232985
2654.000000	1.233064
2652.000000	1.233111
2650.000000	1.233169
2648.000000	1.233240
2646.000000	1.233257
2644.000000	1.233209
2642.000000	1.233242
2640.000000	1.233310
2638.000000	1.233385
2636.000000	1.233479
2634.000000	1.233531
2632.000000	1.233510
2630.000000	1.233524
2628.000000	1.233617
2626.000000	1.233650
2624.000000	1.233602
2622.000000	1.233566
2620.000000	1.233579
2618.000000	1.233625
2616.000000	1.233712
2614.000000	1.233705
2612.000000	1.233707
2610.000000	1.233786
2608.000000	1.233841
2606.000000	1.233832
2604.000000	1.233804
2602.000000	1.233760
2600.000000	1.233776
2598.000000	1.233838
2596.000000	1.233905
2594.000000	1.233957
2592.000000	1.233991
2590.000000	1.234004
2588.000000	1.234105
2586.000000	1.234153
2584.000000	1.234078
2582.000000	1.234105
2580.000000	1.234231
2578.000000	1.234253
2576.000000	1.234179
2574.000000	1.234147
2572.000000	1.234157
2570.000000	1.234174
2568.000000	1.234213
2566.000000	1.234219
2564.000000	1.234223
2562.000000	1.234309
2560.000000	1.234364
2558.000000	1.234358
2556.000000	1.234344
2554.000000	1.234322
2552.000000	1.234308
2550.000000	1.234264
2548.000000	1.234231
2546.000000	1.234228
2544.000000	1.234222
2542.000000	1.234238
2540.000000	1.234300
2538.000000	1.234301
2536.000000	1.234312
2534.000000	1.234317
2532.000000	1.234267
2530.000000	1.234156
2528.000000	1.234154
2526.000000	1.234231
2524.000000	1.234255
2522.000000	1.234233
2520.000000	1.234201
2518.000000	1.234101
2516.000000	1.234084
2514.000000	1.234152
2512.000000	1.234161
2510.000000	1.234118
2508.000000	1.234124
2506.000000	1.234189
2504.000000	1.234170
2502.000000	1.234134
2500.000000	1.234182
2498.000000	1.234161
2496.000000	1.234072
2494.000000	1.234069
2492.000000	1.234096
2490.000000	1.234031
2488.000000	1.234036
2486.000000	1.234060
2484.000000	1.234030
2482.000000	1.233954
2480.000000	1.233956
2478.000000	1.234010
2476.000000	1.234049
2474.000000	1.234093
2472.000000	1.234170
2470.000000	1.234143
2468.000000	1.234016
2466.000000	1.233997
2464.000000	1.234010
2462.000000	1.234019
2460.000000	1.234023
2458.000000	1.233989
2456.000000	1.234030
2454.000000	1.234078
2452.000000	1.234070
2450.000000	1.234038
2448.000000	1.233997
2446.000000	1.233977
2444.000000	1.233959
2442.000000	1.233956
2440.000000	1.233960
2438.000000	1.233944
2436.000000	1.233941
2434.000000	1.233962
2432.000000	1.233942
2430.000000	1.233910
2428.000000	1.233894
2426.000000	1.233861
2424.000000	1.233887
2422.000000	1.233933
2420.000000	1.233967
2418.000000	1.233930
2416.000000	1.233859
2414.000000	1.233840
2412.000000	1.233876
2410.000000	1.233858
2408.000000	1.233772
2406.000000	1.233791
2404.000000	1.233863
2402.000000	1.233850
2400.000000	1.233838
2398.000000	1.233755
2396.000000	1.233678
2394.000000	1.233705
2392.000000	1.233756
2390.000000	1.233728
2388.000000	1.233682
2386.000000	1.233618
2384.000000	1.233588
2382.000000	1.233497
2380.000000	1.233341
2378.000000	1.233157
2376.000000	1.232922
2374.000000	1.232609
2372.000000	1.232347
2370.000000	1.232198
2368.000000	1.232068
2366.000000	1.231958
2364.000000	1.231949
2362.000000	1.232113
2360.000000	1.232419
2358.000000	1.232767
2356.000000	1.233156
2354.000000	1.233519
2352.000000	1.233771
2350.000000	1.233551
2348.000000	1.232892
2346.000000	1.232534
2344.000000	1.232834
2342.000000	1.233617
2340.000000	1.234427
2338.000000	1.234552
2336.000000	1.234069
2334.000000	1.233575
2332.000000	1.233264
2330.000000	1.233156
2328.000000	1.233238
2326.000000	1.233389
2324.000000	1.233472
2322.000000	1.233421
2320.000000	1.233443
2318.000000	1.233569
2316.000000	1.233591
2314.000000	1.233548
2312.000000	1.233553
2310.000000	1.233562
2308.000000	1.233604
2306.000000	1.233630
2304.000000	1.233575
2302.000000	1.233497
2300.000000	1.233545
2298.000000	1.233611
2296.000000	1.233646
2294.000000	1.233656
2292.000000	1.233698
2290.000000	1.233686
2288.000000	1.233683
2286.000000	1.233699
2284.000000	1.233637
2282.000000	1.233631
2280.000000	1.233717
2278.000000	1.233788
2276.000000	1.233806
2274.000000	1.233687
2272.000000	1.233572
2270.000000	1.233559
2268.000000	1.233622
2266.000000	1.233634
2264.000000	1.233588
2262.000000	1.233563
2260.000000	1.233646
2258.000000	1.233658
2256.000000	1.233594
2254.000000	1.233503
2252.000000	1.233458
2250.000000	1.233392
2248.000000	1.233297
2246.000000	1.233238
2244.000000	1.233246
2242.000000	1.233241
2240.000000	1.233226
2238.000000	1.233190
2236.000000	1.233223
2234.000000	1.233261
2232.000000	1.233250
2230.000000	1.233124
2228.000000	1.233016
2226.000000	1.233019
2224.000000	1.233060
2222.000000	1.232976
2220.000000	1.232878
2218.000000	1.232823
2216.000000	1.232791
2214.000000	1.232714
2212.000000	1.232663
2210.000000	1.232686
2208.000000	1.232648
2206.000000	1.232488
2204.000000	1.232390
2202.000000	1.232370
2200.000000	1.232372
2198.000000	1.232209
2196.000000	1.232112
2194.000000	1.232284
2192.000000	1.232429
2190.000000	1.232373
2188.000000	1.232235
2186.000000	1.232130
2184.000000	1.232111
2182.000000	1.232055
2180.000000	1.231997
2178.000000	1.231929
2176.000000	1.231868
2174.000000	1.231752
2172.000000	1.231641
2170.000000	1.231602
2168.000000	1.231682
2166.000000	1.231609
2164.000000	1.231526
2162.000000	1.231507
2160.000000	1.231432
2158.000000	1.231333
2156.000000	1.231267
2154.000000	1.231250
2152.000000	1.231228
2150.000000	1.231164
2148.000000	1.231146
2146.000000	1.231050
2144.000000	1.230942
2142.000000	1.230852
2140.000000	1.230826
2138.000000	1.230793
2136.000000	1.230776
2134.000000	1.230729
2132.000000	1.230686
2130.000000	1.230609
2128.000000	1.230541
2126.000000	1.230463
2124.000000	1.230400
2122.000000	1.230338
2120.000000	1.230331
2118.000000	1.230328
2116.000000	1.230268
2114.000000	1.230189
2112.000000	1.230137
2110.000000	1.230074
2108.000000	1.230068
2106.000000	1.230023
2104.000000	1.230035
2102.000000	1.230022
2100.000000	1.229979
2098.000000	1.229927
2096.000000	1.229874
2094.000000	1.229829
2092.000000	1.229781
2090.000000	1.229724
2088.000000	1.229703
2086.000000	1.229652
2084.000000	1.229625
2082.000000	1.229610
2080.000000	1.229622
2078.000000	1.229583
2076.000000	1.229496
2074.000000	1.229406
2072.000000	1.229408
2070.000000	1.229373
2068.000000	1.229297
2066.000000	1.229223
2064.000000	1.229291
2062.000000	1.229286
2060.000000	1.229238
2058.000000	1.229210
2056.000000	1.229179
2054.000000	1.229106
2052.000000	1.229084
2050.000000	1.229023
2048.000000	1.228990
2046.000000	1.228951
2044.000000	1.228881
2042.000000	1.228818
2040.000000	1.228862
2038.000000	1.228828
2036.000000	1.228753
2034.000000	1.228697
2032.000000	1.228654
2030.000000	1.228615
2028.000000	1.228623
2026.000000	1.228523
2024.000000	1.228491
2022.000000	1.228489
2020.000000	1.228388
2018.000000	1.228275
2016.000000	1.228400
2014.000000	1.228484
2012.000000	1.228454
2010.000000	1.228333
2008.000000	1.228290
2006.000000	1.228319
2004.000000	1.228312
2002.000000	1.228242
2000.000000	1.228220
1998.000000	1.228204
1996.000000	1.228152
1994.000000	1.227871
1992.000000	1.227797
1990.000000	1.227972
1988.000000	1.227975
1986.000000	1.227965
1984.000000	1.227949
1982.000000	1.227925
1980.000000	1.227982
1978.000000	1.228014
1976.000000	1.227988
1974.000000	1.227918
1972.000000	1.227879
1970.000000	1.227734
1968.000000	1.227610
1966.000000	1.227764
1964.000000	1.227847
1962.000000	1.227704
1960.000000	1.227652
1958.000000	1.227926
1956.000000	1.228009
1954.000000	1.227876
1952.000000	1.227805
1950.000000	1.227794
1948.000000	1.227777
1946.000000	1.227570
1944.000000	1.227317
1942.000000	1.227523
1940.000000	1.227900
1938.000000	1.227882
1936.000000	1.227871
1934.000000	1.227827
1932.000000	1.227808
1930.000000	1.227862
1928.000000	1.227920
1926.000000	1.227745
1924.000000	1.227517
1922.000000	1.227577
1920.000000	1.227221
1918.000000	1.227255
1916.000000	1.228125
1914.000000	1.228095
1912.000000	1.227830
1910.000000	1.227750
1908.000000	1.227981
1906.000000	1.228037
1904.000000	1.228015
1902.000000	1.227973
1900.000000	1.228026
1898.000000	1.227926
1896.000000	1.227891
1894.000000	1.227996
1892.000000	1.227795
1890.000000	1.227574
1888.000000	1.228107
1886.000000	1.228138
1884.000000	1.228089
1882.000000	1.228141
1880.000000	1.228212
1878.000000	1.228163
1876.000000	1.228210
1874.000000	1.228130
1872.000000	1.227445
1870.000000	1.226541
1868.000000	1.227319
1866.000000	1.228106
1864.000000	1.228116
1862.000000	1.228008
1860.000000	1.228044
1858.000000	1.227990
1856.000000	1.228050
1854.000000	1.227995
1852.000000	1.227969
1850.000000	1.227736
1848.000000	1.227278
1846.000000	1.225712
1844.000000	1.226151
1842.000000	1.228235
1840.000000	1.228220
1838.000000	1.227862
1836.000000	1.227932
1834.000000	1.227758
1832.000000	1.226787
1830.000000	1.226676
1828.000000	1.227532
1826.000000	1.227221
1824.000000	1.227854
1822.000000	1.228413
1820.000000	1.228256
1818.000000	1.228111
1816.000000	1.228250
1814.000000	1.228010
1812.000000	1.227629
1810.000000	1.227815
1808.000000	1.228265
1806.000000	1.228179
1804.000000	1.227733
1802.000000	1.227183
1800.000000	1.227554
1798.000000	1.228006
1796.000000	1.227398
1794.000000	1.225596
1792.000000	1.226261
1790.000000	1.228184
1788.000000	1.228122
1786.000000	1.227447
1784.000000	1.227773
1782.000000	1.227742
1780.000000	1.227910
1778.000000	1.228106
1776.000000	1.226977
1774.000000	1.224508
1772.000000	1.225413
1770.000000	1.227374
1768.000000	1.227653
1766.000000	1.228573
1764.000000	1.227393
1762.000000	1.226969
1760.000000	1.228072
1758.000000	1.227656
1756.000000	1.228026
1754.000000	1.227317
1752.000000	1.225434
1750.000000	1.226706
1748.000000	1.228005
1746.000000	1.228239
1744.000000	1.227987
1742.000000	1.227263
1740.000000	1.227189
1738.000000	1.227693
1736.000000	1.223534
1734.000000	1.223425
1732.000000	1.228626
1730.000000	1.229434
1728.000000	1.229500
1726.000000	1.229443
1724.000000	1.229429
1722.000000	1.228892
1720.000000	1.225409
1718.000000	1.223288
1716.000000	1.227136
1714.000000	1.229503
1712.000000	1.229957
1710.000000	1.229344
1708.000000	1.228540
1706.000000	1.227895
1704.000000	1.227731
1702.000000	1.223060
1700.000000	1.223681
1698.000000	1.225542
1696.000000	1.225365
1694.000000	1.230558
1692.000000	1.230901
1690.000000	1.229763
1688.000000	1.227801
1686.000000	1.222706
1684.000000	1.225156
1682.000000	1.230716
1680.000000	1.230646
1678.000000	1.229074
1676.000000	1.227344
1674.000000	1.229268
1672.000000	1.228766
1670.000000	1.227873
1668.000000	1.230268
1666.000000	1.230854
1664.000000	1.229236
1662.000000	1.230202
1660.000000	1.231433
1658.000000	1.230550
1656.000000	1.224930
1654.000000	1.218967
1652.000000	1.226444
1650.000000	1.231086
1648.000000	1.227211
1646.000000	1.228434
1644.000000	1.231924
1642.000000	1.231946
1640.000000	1.230834
1638.000000	1.227775
1636.000000	1.226583
1634.000000	1.231084
1632.000000	1.232494
1630.000000	1.231247
1628.000000	1.230904
1626.000000	1.230438
1624.000000	1.229636
1622.000000	1.231034
1620.000000	1.230254
1618.000000	1.226890
1616.000000	1.229166
1614.000000	1.232311
1612.000000	1.231536
1610.000000	1.231574
1608.000000	1.232301
1606.000000	1.233077
1604.000000	1.233136
1602.000000	1.233295
1600.000000	1.233373
1598.000000	1.233343
1596.000000	1.233137
1594.000000	1.233168
1592.000000	1.233139
1590.000000	1.233177
1588.000000	1.233171
1586.000000	1.233101
1584.000000	1.233075
1582.000000	1.233257
1580.000000	1.232376
1578.000000	1.228532
1576.000000	1.228974
1574.000000	1.233377
1572.000000	1.231700
1570.000000	1.230545
1568.000000	1.232326
1566.000000	1.232567
1564.000000	1.231607
1562.000000	1.226629
1560.000000	1.221420
1558.000000	1.227044
1556.000000	1.231241
1554.000000	1.231834
1552.000000	1.232835
1550.000000	1.232751
1548.000000	1.232552
1546.000000	1.230823
1544.000000	1.228617
1542.000000	1.225289
1540.000000	1.225571
1538.000000	1.231790
1536.000000	1.232558
1534.000000	1.230810
1532.000000	1.232615
1530.000000	1.232614
1528.000000	1.231095
1526.000000	1.230393
1524.000000	1.228826
1522.000000	1.226944
1520.000000	1.229794
1518.000000	1.230762
1516.000000	1.231211
1514.000000	1.231881
1512.000000	1.231417
1510.000000	1.229066
1508.000000	1.224362
1506.000000	1.226612
1504.000000	1.231837
1502.000000	1.230575
1500.000000	1.227231
1498.000000	1.225065
1496.000000	1.227961
1494.000000	1.233257
1492.000000	1.234187
1490.000000	1.234088
1488.000000	1.234735
1486.000000	1.234963
1484.000000	1.234582
1482.000000	1.233754
1480.000000	1.233404
1478.000000	1.232157
1476.000000	1.230514
1474.000000	1.228832
1472.000000	1.230445
1470.000000	1.232919
1468.000000	1.232248
1466.000000	1.230758
1464.000000	1.231690
1462.000000	1.232209
1460.000000	1.228732
1458.000000	1.224732
1456.000000	1.227959
1454.000000	1.231728
1452.000000	1.232134
1450.000000	1.233108
1448.000000	1.233733
1446.000000	1.234009
1444.000000	1.233395
1442.000000	1.233013
1440.000000	1.231743
1438.000000	1.229301
1436.000000	1.230650
1434.000000	1.232868
1432.000000	1.232049
1430.000000	1.231988
1428.000000	1.232526
1426.000000	1.232252
1424.000000	1.231778
1422.000000	1.230583
1420.000000	1.228752
1418.000000	1.230926
1416.000000	1.232449
1414.000000	1.232369
1412.000000	1.232018
1410.000000	1.231785
1408.000000	1.231229
1406.000000	1.231078
1404.000000	1.231937
1402.000000	1.232512
1400.000000	1.232000
1398.000000	1.232124
1396.000000	1.231539
1394.000000	1.231976
1392.000000	1.232590
1390.000000	1.231489
1388.000000	1.230422
1386.000000	1.231321
1384.000000	1.232191
1382.000000	1.232430
1380.000000	1.232181
1378.000000	1.231917
1376.000000	1.231356
1374.000000	1.231291
1372.000000	1.231750
1370.000000	1.231703
1368.000000	1.231655
1366.000000	1.231467
1364.000000	1.230786
1362.000000	1.230974
1360.000000	1.231466
1358.000000	1.231449
1356.000000	1.231297
1354.000000	1.231389
1352.000000	1.231442
1350.000000	1.231397
1348.000000	1.231293
1346.000000	1.231246
1344.000000	1.231127
1342.000000	1.230771
1340.000000	1.230473
1338.000000	1.230838
1336.000000	1.231148
1334.000000	1.231205
1332.000000	1.231069
1330.000000	1.230965
1328.000000	1.230865
1326.000000	1.230839
1324.000000	1.230765
1322.000000	1.230689
1320.000000	1.230413
1318.000000	1.230359
1316.000000	1.230382
1314.000000	1.230314
1312.000000	1.230231
1310.000000	1.230232
1308.000000	1.230178
1306.000000	1.230218
1304.000000	1.230156
1302.000000	1.230097
1300.000000	1.229981
1298.000000	1.229875
1296.000000	1.229784
1294.000000	1.229768
1292.000000	1.229720
1290.000000	1.229746
1288.000000	1.229771
1286.000000	1.229854
1284.000000	1.229877
1282.000000	1.229857
1280.000000	1.229899
1278.000000	1.229953
1276.000000	1.229852
1274.000000	1.229866
1272.000000	1.229944
1270.000000	1.230260
1268.000000	1.230843
1266.000000	1.232070
1264.000000	1.234137
1262.000000	1.236758
1260.000000	1.238966
1258.000000	1.239767
1256.000000	1.238777
1254.000000	1.236889
1252.000000	1.235066
1250.000000	1.233974
1248.000000	1.233454
1246.000000	1.233232
1244.000000	1.233240
1242.000000	1.233458
1240.000000	1.233652
1238.000000	1.233960
1236.000000	1.234237
1234.000000	1.234515
1232.000000	1.234757
1230.000000	1.234875
1228.000000	1.235008
1226.000000	1.235367
1224.000000	1.235701
1222.000000	1.235948
1220.000000	1.236064
1218.000000	1.236323
1216.000000	1.236610
1214.000000	1.236880
1212.000000	1.237025
1210.000000	1.237335
1208.000000	1.237686
1206.000000	1.237924
1204.000000	1.238039
1202.000000	1.238391
1200.000000	1.238700
1198.000000	1.239129
1196.000000	1.239437
1194.000000	1.239788
1192.000000	1.240064
1190.000000	1.240183
1188.000000	1.240341
1186.000000	1.240750
1184.000000	1.240834
1182.000000	1.241034
1180.000000	1.242034
1178.000000	1.242994
1176.000000	1.243128
1174.000000	1.243198
1172.000000	1.243496
1170.000000	1.244012
1168.000000	1.244320
1166.000000	1.244600
1164.000000	1.245052
1162.000000	1.245444
1160.000000	1.245683
1158.000000	1.246104
1156.000000	1.246411
1154.000000	1.246800
1152.000000	1.246976
1150.000000	1.247324
1148.000000	1.247724
1146.000000	1.248099
1144.000000	1.248471
1142.000000	1.248964
1140.000000	1.249269
1138.000000	1.249404
1136.000000	1.249581
1134.000000	1.249792
1132.000000	1.249942
1130.000000	1.250133
1128.000000	1.250369
1126.000000	1.250645
1124.000000	1.250879
1122.000000	1.251396
1120.000000	1.251694
1118.000000	1.252008
1116.000000	1.252055
1114.000000	1.252226
1112.000000	1.252740
1110.000000	1.253498
1108.000000	1.253998
1106.000000	1.254482
1104.000000	1.254872
1102.000000	1.255298
1100.000000	1.255870
1098.000000	1.256407
1096.000000	1.256391
1094.000000	1.256625
1092.000000	1.256952
1090.000000	1.257264
1088.000000	1.257307
1086.000000	1.257238
1084.000000	1.256763
1082.000000	1.256526
1080.000000	1.256646
1078.000000	1.256606
1076.000000	1.256532
1074.000000	1.256281
1072.000000	1.255763
1070.000000	1.255352
1068.000000	1.254651
1066.000000	1.254438
1064.000000	1.254017
1062.000000	1.253639
1060.000000	1.253221
1058.000000	1.252545
1056.000000	1.251159
1054.000000	1.249848
1052.000000	1.249737
1050.000000	1.251032
1048.000000	1.251957
1046.000000	1.251668
1044.000000	1.250780
1042.000000	1.250100
1040.000000	1.248571
1038.000000	1.247686
1036.000000	1.247438
1034.000000	1.247649
1032.000000	1.247506
1030.000000	1.247038
1028.000000	1.246487
1026.000000	1.246327
1024.000000	1.246279
1022.000000	1.246221
1020.000000	1.245355
1018.000000	1.244264
1016.000000	1.243521
1014.000000	1.242756
1012.000000	1.240943
1010.000000	1.239300
1008.000000	1.237661
1006.000000	1.235979
1004.000000	1.233956
1002.000000	1.232080
1000.000000	1.230657
