PE IR       SUBTECH     SPECTRUM    ASCII       PEDS        4.00        
   -1
TE110A_028_105K.ASC
20/05/14
12:37:09.00
20/05/14
12:37:09.00
Administrator
TE110A.Thursday, May 14 2020, 011.
1000.000000
#HDR
-1
-1
#GR
cm-1
A
1.0
0.0
6000.000000
-2.000000
2501
8
1.262990
1.210595
#DATA
6000.000000	1.244294
5998.000000	1.244146
5996.000000	1.243732
5994.000000	1.243189
5992.000000	1.243066
5990.000000	1.243416
5988.000000	1.243716
5986.000000	1.243919
5984.000000	1.243403
5982.000000	1.243205
5980.000000	1.243549
5978.000000	1.243659
5976.000000	1.243616
5974.000000	1.242991
5972.000000	1.242483
5970.000000	1.242402
5968.000000	1.242507
5966.000000	1.242484
5964.000000	1.242338
5962.000000	1.242199
5960.000000	1.242576
5958.000000	1.242739
5956.000000	1.242835
5954.000000	1.243004
5952.000000	1.243239
5950.000000	1.242682
5948.000000	1.242046
5946.000000	1.241677
5944.000000	1.241883
5942.000000	1.242239
5940.000000	1.242461
5938.000000	1.242515
5936.000000	1.242522
5934.000000	1.242230
5932.000000	1.241995
5930.000000	1.241831
5928.000000	1.241410
5926.000000	1.241484
5924.000000	1.241595
5922.000000	1.242036
5920.000000	1.242491
5918.000000	1.242835
5916.000000	1.242999
5914.000000	1.242367
5912.000000	1.241703
5910.000000	1.241375
5908.000000	1.241481
5906.000000	1.241828
5904.000000	1.241941
5902.000000	1.242106
5900.000000	1.242158
5898.000000	1.242223
5896.000000	1.242612
5894.000000	1.242495
5892.000000	1.242278
5890.000000	1.241741
5888.000000	1.241532
5886.000000	1.241650
5884.000000	1.241833
5882.000000	1.241877
5880.000000	1.241550
5878.000000	1.241177
5876.000000	1.240858
5874.000000	1.240923
5872.000000	1.241132
5870.000000	1.241170
5868.000000	1.241003
5866.000000	1.240435
5864.000000	1.240304
5862.000000	1.240629
5860.000000	1.241037
5858.000000	1.241305
5856.000000	1.241362
5854.000000	1.241461
5852.000000	1.241175
5850.000000	1.241184
5848.000000	1.241271
5846.000000	1.241396
5844.000000	1.241294
5842.000000	1.241161
5840.000000	1.241086
5838.000000	1.240939
5836.000000	1.240897
5834.000000	1.241037
5832.000000	1.241178
5830.000000	1.241105
5828.000000	1.240881
5826.000000	1.240718
5824.000000	1.240688
5822.000000	1.240605
5820.000000	1.241022
5818.000000	1.241331
5816.000000	1.241475
5814.000000	1.241322
5812.000000	1.241240
5810.000000	1.241295
5808.000000	1.241510
5806.000000	1.241390
5804.000000	1.240938
5802.000000	1.240531
5800.000000	1.240554
5798.000000	1.240800
5796.000000	1.240853
5794.000000	1.240396
5792.000000	1.239972
5790.000000	1.240028
5788.000000	1.240336
5786.000000	1.240945
5784.000000	1.241417
5782.000000	1.241545
5780.000000	1.241548
5778.000000	1.241659
5776.000000	1.241580
5774.000000	1.241233
5772.000000	1.240577
5770.000000	1.240179
5768.000000	1.239951
5766.000000	1.240010
5764.000000	1.240310
5762.000000	1.240484
5760.000000	1.240161
5758.000000	1.239573
5756.000000	1.239694
5754.000000	1.240351
5752.000000	1.240809
5750.000000	1.240713
5748.000000	1.240543
5746.000000	1.240312
5744.000000	1.239882
5742.000000	1.239402
5740.000000	1.239380
5738.000000	1.239565
5736.000000	1.239672
5734.000000	1.239747
5732.000000	1.239955
5730.000000	1.240229
5728.000000	1.240250
5726.000000	1.240069
5724.000000	1.239471
5722.000000	1.239047
5720.000000	1.239025
5718.000000	1.239264
5716.000000	1.239288
5714.000000	1.239185
5712.000000	1.239071
5710.000000	1.239219
5708.000000	1.239366
5706.000000	1.239348
5704.000000	1.238969
5702.000000	1.238714
5700.000000	1.238385
5698.000000	1.238244
5696.000000	1.238130
5694.000000	1.238507
5692.000000	1.239039
5690.000000	1.239008
5688.000000	1.238907
5686.000000	1.238895
5684.000000	1.239068
5682.000000	1.239199
5680.000000	1.238971
5678.000000	1.238501
5676.000000	1.238181
5674.000000	1.238445
5672.000000	1.239297
5670.000000	1.239726
5668.000000	1.239399
5666.000000	1.238789
5664.000000	1.238370
5662.000000	1.238142
5660.000000	1.238013
5658.000000	1.237915
5656.000000	1.237574
5654.000000	1.237288
5652.000000	1.237430
5650.000000	1.237972
5648.000000	1.238193
5646.000000	1.238119
5644.000000	1.238145
5642.000000	1.238315
5640.000000	1.238348
5638.000000	1.238217
5636.000000	1.238282
5634.000000	1.238355
5632.000000	1.238465
5630.000000	1.238817
5628.000000	1.238897
5626.000000	1.238630
5624.000000	1.238081
5622.000000	1.237690
5620.000000	1.237478
5618.000000	1.237234
5616.000000	1.237283
5614.000000	1.237709
5612.000000	1.237938
5610.000000	1.238052
5608.000000	1.238016
5606.000000	1.237799
5604.000000	1.237648
5602.000000	1.237517
5600.000000	1.237474
5598.000000	1.237295
5596.000000	1.237242
5594.000000	1.237476
5592.000000	1.237543
5590.000000	1.237490
5588.000000	1.237738
5586.000000	1.238033
5584.000000	1.238011
5582.000000	1.237511
5580.000000	1.237260
5578.000000	1.237157
5576.000000	1.237203
5574.000000	1.237197
5572.000000	1.237315
5570.000000	1.237543
5568.000000	1.237827
5566.000000	1.238172
5564.000000	1.238172
5562.000000	1.237679
5560.000000	1.237161
5558.000000	1.237146
5556.000000	1.237256
5554.000000	1.237238
5552.000000	1.237048
5550.000000	1.237174
5548.000000	1.237208
5546.000000	1.236991
5544.000000	1.236662
5542.000000	1.236439
5540.000000	1.236541
5538.000000	1.236777
5536.000000	1.237193
5534.000000	1.237439
5532.000000	1.237659
5530.000000	1.237733
5528.000000	1.237678
5526.000000	1.237379
5524.000000	1.237161
5522.000000	1.237051
5520.000000	1.237053
5518.000000	1.236940
5516.000000	1.236759
5514.000000	1.236377
5512.000000	1.236247
5510.000000	1.236468
5508.000000	1.236676
5506.000000	1.236287
5504.000000	1.235745
5502.000000	1.235577
5500.000000	1.235760
5498.000000	1.236162
5496.000000	1.236382
5494.000000	1.236545
5492.000000	1.236344
5490.000000	1.236323
5488.000000	1.236352
5486.000000	1.236263
5484.000000	1.235962
5482.000000	1.235758
5480.000000	1.235446
5478.000000	1.235044
5476.000000	1.235110
5474.000000	1.235800
5472.000000	1.236440
5470.000000	1.236189
5468.000000	1.235588
5466.000000	1.235179
5464.000000	1.234985
5462.000000	1.235208
5460.000000	1.235494
5458.000000	1.235519
5456.000000	1.235045
5454.000000	1.234753
5452.000000	1.235021
5450.000000	1.235134
5448.000000	1.235039
5446.000000	1.234781
5444.000000	1.234762
5442.000000	1.234916
5440.000000	1.235165
5438.000000	1.234979
5436.000000	1.234715
5434.000000	1.234859
5432.000000	1.235268
5430.000000	1.235310
5428.000000	1.235317
5426.000000	1.235590
5424.000000	1.235831
5422.000000	1.235564
5420.000000	1.235088
5418.000000	1.234691
5416.000000	1.234134
5414.000000	1.233973
5412.000000	1.234197
5410.000000	1.234763
5408.000000	1.235061
5406.000000	1.235214
5404.000000	1.235198
5402.000000	1.234946
5400.000000	1.234542
5398.000000	1.234268
5396.000000	1.234154
5394.000000	1.234357
5392.000000	1.234771
5390.000000	1.234940
5388.000000	1.234616
5386.000000	1.234385
5384.000000	1.234619
5382.000000	1.234735
5380.000000	1.234395
5378.000000	1.234196
5376.000000	1.234666
5374.000000	1.235091
5372.000000	1.235143
5370.000000	1.234843
5368.000000	1.234626
5366.000000	1.234533
5364.000000	1.234602
5362.000000	1.234800
5360.000000	1.234740
5358.000000	1.234256
5356.000000	1.233804
5354.000000	1.233930
5352.000000	1.234103
5350.000000	1.234293
5348.000000	1.234164
5346.000000	1.234092
5344.000000	1.234022
5342.000000	1.233870
5340.000000	1.233906
5338.000000	1.234043
5336.000000	1.234418
5334.000000	1.234960
5332.000000	1.234933
5330.000000	1.234386
5328.000000	1.233898
5326.000000	1.234036
5324.000000	1.234485
5322.000000	1.234702
5320.000000	1.234843
5318.000000	1.234953
5316.000000	1.235012
5314.000000	1.234908
5312.000000	1.234441
5310.000000	1.233656
5308.000000	1.233274
5306.000000	1.233551
5304.000000	1.233987
5302.000000	1.234100
5300.000000	1.234354
5298.000000	1.234635
5296.000000	1.234447
5294.000000	1.233812
5292.000000	1.233460
5290.000000	1.233610
5288.000000	1.233827
5286.000000	1.233951
5284.000000	1.233954
5282.000000	1.233824
5280.000000	1.233790
5278.000000	1.233773
5276.000000	1.233642
5274.000000	1.233578
5272.000000	1.233711
5270.000000	1.233696
5268.000000	1.233300
5266.000000	1.233167
5264.000000	1.233418
5262.000000	1.233765
5260.000000	1.233775
5258.000000	1.233583
5256.000000	1.233396
5254.000000	1.233328
5252.000000	1.233378
5250.000000	1.233313
5248.000000	1.233245
5246.000000	1.233283
5244.000000	1.233669
5242.000000	1.233992
5240.000000	1.234020
5238.000000	1.233854
5236.000000	1.233720
5234.000000	1.233550
5232.000000	1.233520
5230.000000	1.233344
5228.000000	1.233115
5226.000000	1.232956
5224.000000	1.233266
5222.000000	1.233625
5220.000000	1.233596
5218.000000	1.233349
5216.000000	1.233323
5214.000000	1.233434
5212.000000	1.233088
5210.000000	1.232337
5208.000000	1.232133
5206.000000	1.232597
5204.000000	1.233025
5202.000000	1.233076
5200.000000	1.232781
5198.000000	1.232643
5196.000000	1.232849
5194.000000	1.233311
5192.000000	1.233257
5190.000000	1.232872
5188.000000	1.232657
5186.000000	1.232700
5184.000000	1.232739
5182.000000	1.232707
5180.000000	1.232843
5178.000000	1.232978
5176.000000	1.232810
5174.000000	1.232429
5172.000000	1.232263
5170.000000	1.232389
5168.000000	1.232541
5166.000000	1.232637
5164.000000	1.232813
5162.000000	1.232808
5160.000000	1.232836
5158.000000	1.232707
5156.000000	1.232530
5154.000000	1.232484
5152.000000	1.232768
5150.000000	1.232955
5148.000000	1.232737
5146.000000	1.232598
5144.000000	1.232697
5142.000000	1.232779
5140.000000	1.232813
5138.000000	1.232841
5136.000000	1.232767
5134.000000	1.232630
5132.000000	1.232715
5130.000000	1.233018
5128.000000	1.233081
5126.000000	1.232994
5124.000000	1.232934
5122.000000	1.232958
5120.000000	1.232771
5118.000000	1.232623
5116.000000	1.232725
5114.000000	1.232849
5112.000000	1.232794
5110.000000	1.232802
5108.000000	1.232763
5106.000000	1.232663
5104.000000	1.232690
5102.000000	1.232917
5100.000000	1.232932
5098.000000	1.232693
5096.000000	1.232664
5094.000000	1.232722
5092.000000	1.232780
5090.000000	1.232806
5088.000000	1.232921
5086.000000	1.232843
5084.000000	1.232553
5082.000000	1.232513
5080.000000	1.232719
5078.000000	1.232840
5076.000000	1.232901
5074.000000	1.233039
5072.000000	1.233077
5070.000000	1.232956
5068.000000	1.232995
5066.000000	1.233105
5064.000000	1.232882
5062.000000	1.232640
5060.000000	1.232687
5058.000000	1.232869
5056.000000	1.232929
5054.000000	1.233029
5052.000000	1.233119
5050.000000	1.232882
5048.000000	1.232712
5046.000000	1.232883
5044.000000	1.232946
5042.000000	1.232724
5040.000000	1.232690
5038.000000	1.232985
5036.000000	1.233006
5034.000000	1.232867
5032.000000	1.232890
5030.000000	1.232919
5028.000000	1.232745
5026.000000	1.232554
5024.000000	1.232480
5022.000000	1.232443
5020.000000	1.232658
5018.000000	1.232952
5016.000000	1.233027
5014.000000	1.232913
5012.000000	1.232854
5010.000000	1.232713
5008.000000	1.232590
5006.000000	1.232757
5004.000000	1.233076
5002.000000	1.233091
5000.000000	1.232933
4998.000000	1.232982
4996.000000	1.233092
4994.000000	1.232912
4992.000000	1.232691
4990.000000	1.232678
4988.000000	1.232541
4986.000000	1.232210
4984.000000	1.232237
4982.000000	1.232639
4980.000000	1.232720
4978.000000	1.232581
4976.000000	1.232520
4974.000000	1.232625
4972.000000	1.232704
4970.000000	1.232948
4968.000000	1.233052
4966.000000	1.232919
4964.000000	1.232756
4962.000000	1.232794
4960.000000	1.232808
4958.000000	1.232740
4956.000000	1.232874
4954.000000	1.232933
4952.000000	1.232684
4950.000000	1.232294
4948.000000	1.232399
4946.000000	1.232577
4944.000000	1.232523
4942.000000	1.232552
4940.000000	1.232796
4938.000000	1.232811
4936.000000	1.232719
4934.000000	1.232797
4932.000000	1.232698
4930.000000	1.232300
4928.000000	1.232295
4926.000000	1.232630
4924.000000	1.232678
4922.000000	1.232504
4920.000000	1.232570
4918.000000	1.232662
4916.000000	1.232576
4914.000000	1.232644
4912.000000	1.232806
4910.000000	1.232706
4908.000000	1.232431
4906.000000	1.232454
4904.000000	1.232531
4902.000000	1.232419
4900.000000	1.232284
4898.000000	1.232344
4896.000000	1.232406
4894.000000	1.232563
4892.000000	1.232712
4890.000000	1.232550
4888.000000	1.232134
4886.000000	1.232040
4884.000000	1.232365
4882.000000	1.232572
4880.000000	1.232535
4878.000000	1.232511
4876.000000	1.232590
4874.000000	1.232441
4872.000000	1.232224
4870.000000	1.232187
4868.000000	1.232428
4866.000000	1.232638
4864.000000	1.232739
4862.000000	1.232673
4860.000000	1.232539
4858.000000	1.232540
4856.000000	1.232771
4854.000000	1.232825
4852.000000	1.232534
4850.000000	1.232460
4848.000000	1.232764
4846.000000	1.232842
4844.000000	1.232630
4842.000000	1.232568
4840.000000	1.232588
4838.000000	1.232474
4836.000000	1.232411
4834.000000	1.232528
4832.000000	1.232481
4830.000000	1.232386
4828.000000	1.232447
4826.000000	1.232505
4824.000000	1.232441
4822.000000	1.232439
4820.000000	1.232642
4818.000000	1.232713
4816.000000	1.232617
4814.000000	1.232628
4812.000000	1.232684
4810.000000	1.232476
4808.000000	1.232364
4806.000000	1.232436
4804.000000	1.232436
4802.000000	1.232439
4800.000000	1.232591
4798.000000	1.232581
4796.000000	1.232550
4794.000000	1.232732
4792.000000	1.232797
4790.000000	1.232520
4788.000000	1.232354
4786.000000	1.232423
4784.000000	1.232327
4782.000000	1.232075
4780.000000	1.232262
4778.000000	1.232609
4776.000000	1.232538
4774.000000	1.232302
4772.000000	1.232343
4770.000000	1.232425
4768.000000	1.232317
4766.000000	1.232482
4764.000000	1.232797
4762.000000	1.232730
4760.000000	1.232394
4758.000000	1.232535
4756.000000	1.232768
4754.000000	1.232539
4752.000000	1.232286
4750.000000	1.232429
4748.000000	1.232553
4746.000000	1.232454
4744.000000	1.232485
4742.000000	1.232497
4740.000000	1.232292
4738.000000	1.232105
4736.000000	1.232149
4734.000000	1.232110
4732.000000	1.232118
4730.000000	1.232364
4728.000000	1.232550
4726.000000	1.232313
4724.000000	1.232030
4722.000000	1.232011
4720.000000	1.232021
4718.000000	1.231941
4716.000000	1.232098
4714.000000	1.232268
4712.000000	1.232097
4710.000000	1.231879
4708.000000	1.231969
4706.000000	1.231978
4704.000000	1.231862
4702.000000	1.231955
4700.000000	1.232135
4698.000000	1.232087
4696.000000	1.232052
4694.000000	1.232213
4692.000000	1.232166
4690.000000	1.231848
4688.000000	1.231685
4686.000000	1.231779
4684.000000	1.231810
4682.000000	1.231905
4680.000000	1.232144
4678.000000	1.232169
4676.000000	1.232004
4674.000000	1.232048
4672.000000	1.232112
4670.000000	1.231920
4668.000000	1.231846
4666.000000	1.232039
4664.000000	1.232205
4662.000000	1.232167
4660.000000	1.232135
4658.000000	1.232121
4656.000000	1.231990
4654.000000	1.231857
4652.000000	1.232013
4650.000000	1.232125
4648.000000	1.232050
4646.000000	1.232129
4644.000000	1.232187
4642.000000	1.231853
4640.000000	1.231678
4638.000000	1.231924
4636.000000	1.232041
4634.000000	1.231955
4632.000000	1.232049
4630.000000	1.232135
4628.000000	1.232004
4626.000000	1.231933
4624.000000	1.231962
4622.000000	1.231870
4620.000000	1.231600
4618.000000	1.231601
4616.000000	1.231843
4614.000000	1.231932
4612.000000	1.231869
4610.000000	1.232021
4608.000000	1.232032
4606.000000	1.231756
4604.000000	1.231715
4602.000000	1.231910
4600.000000	1.231903
4598.000000	1.231819
4596.000000	1.232016
4594.000000	1.232151
4592.000000	1.231806
4590.000000	1.231477
4588.000000	1.231555
4586.000000	1.231677
4584.000000	1.231764
4582.000000	1.232087
4580.000000	1.232390
4578.000000	1.232364
4576.000000	1.232147
4574.000000	1.231957
4572.000000	1.231723
4570.000000	1.231635
4568.000000	1.232004
4566.000000	1.232359
4564.000000	1.232170
4562.000000	1.232027
4560.000000	1.232343
4558.000000	1.232446
4556.000000	1.232109
4554.000000	1.231874
4552.000000	1.231818
4550.000000	1.231781
4548.000000	1.231916
4546.000000	1.232125
4544.000000	1.232132
4542.000000	1.232160
4540.000000	1.232317
4538.000000	1.232198
4536.000000	1.231684
4534.000000	1.231532
4532.000000	1.231875
4530.000000	1.231981
4528.000000	1.231890
4526.000000	1.232062
4524.000000	1.232153
4522.000000	1.231923
4520.000000	1.231907
4518.000000	1.232151
4516.000000	1.232193
4514.000000	1.231992
4512.000000	1.232042
4510.000000	1.232119
4508.000000	1.231858
4506.000000	1.231698
4504.000000	1.232011
4502.000000	1.232101
4500.000000	1.231827
4498.000000	1.231822
4496.000000	1.231954
4494.000000	1.231803
4492.000000	1.231756
4490.000000	1.231939
4488.000000	1.231839
4486.000000	1.231641
4484.000000	1.231835
4482.000000	1.232172
4480.000000	1.232156
4478.000000	1.232038
4476.000000	1.232140
4474.000000	1.232155
4472.000000	1.231881
4470.000000	1.231726
4468.000000	1.231760
4466.000000	1.231745
4464.000000	1.231892
4462.000000	1.232224
4460.000000	1.232214
4458.000000	1.231865
4456.000000	1.231796
4454.000000	1.231958
4452.000000	1.231769
4450.000000	1.231472
4448.000000	1.231631
4446.000000	1.231841
4444.000000	1.231779
4442.000000	1.231786
4440.000000	1.231891
4438.000000	1.231695
4436.000000	1.231442
4434.000000	1.231556
4432.000000	1.231805
4430.000000	1.231847
4428.000000	1.231835
4426.000000	1.231865
4424.000000	1.231800
4422.000000	1.231655
4420.000000	1.231565
4418.000000	1.231513
4416.000000	1.231386
4414.000000	1.231344
4412.000000	1.231443
4410.000000	1.231477
4408.000000	1.231386
4406.000000	1.231367
4404.000000	1.231374
4402.000000	1.231356
4400.000000	1.231432
4398.000000	1.231591
4396.000000	1.231599
4394.000000	1.231589
4392.000000	1.231667
4390.000000	1.231650
4388.000000	1.231493
4386.000000	1.231498
4384.000000	1.231605
4382.000000	1.231540
4380.000000	1.231453
4378.000000	1.231586
4376.000000	1.231602
4374.000000	1.231389
4372.000000	1.231303
4370.000000	1.231401
4368.000000	1.231378
4366.000000	1.231382
4364.000000	1.231591
4362.000000	1.231616
4360.000000	1.231339
4358.000000	1.231238
4356.000000	1.231370
4354.000000	1.231304
4352.000000	1.231229
4350.000000	1.231450
4348.000000	1.231544
4346.000000	1.231301
4344.000000	1.231280
4342.000000	1.231538
4340.000000	1.231480
4338.000000	1.231182
4336.000000	1.231177
4334.000000	1.231379
4332.000000	1.231325
4330.000000	1.231265
4328.000000	1.231373
4326.000000	1.231275
4324.000000	1.230986
4322.000000	1.231057
4320.000000	1.231238
4318.000000	1.231097
4316.000000	1.231022
4314.000000	1.231238
4312.000000	1.231234
4310.000000	1.231118
4308.000000	1.231305
4306.000000	1.231397
4304.000000	1.231081
4302.000000	1.230855
4300.000000	1.230952
4298.000000	1.230972
4296.000000	1.230839
4294.000000	1.230835
4292.000000	1.230985
4290.000000	1.231039
4288.000000	1.231128
4286.000000	1.231303
4284.000000	1.231225
4282.000000	1.230958
4280.000000	1.231088
4278.000000	1.231360
4276.000000	1.231248
4274.000000	1.231010
4272.000000	1.231042
4270.000000	1.231046
4268.000000	1.230894
4266.000000	1.230925
4264.000000	1.231045
4262.000000	1.230962
4260.000000	1.230867
4258.000000	1.230970
4256.000000	1.230994
4254.000000	1.230840
4252.000000	1.230784
4250.000000	1.230862
4248.000000	1.230810
4246.000000	1.230678
4244.000000	1.230608
4242.000000	1.230628
4240.000000	1.230571
4238.000000	1.230539
4236.000000	1.230659
4234.000000	1.230644
4232.000000	1.230504
4230.000000	1.230557
4228.000000	1.230604
4226.000000	1.230507
4224.000000	1.230483
4222.000000	1.230541
4220.000000	1.230589
4218.000000	1.230661
4216.000000	1.230705
4214.000000	1.230540
4212.000000	1.230279
4210.000000	1.230283
4208.000000	1.230466
4206.000000	1.230380
4204.000000	1.230169
4202.000000	1.230290
4200.000000	1.230454
4198.000000	1.230376
4196.000000	1.230351
4194.000000	1.230422
4192.000000	1.230298
4190.000000	1.230096
4188.000000	1.230085
4186.000000	1.230156
4184.000000	1.230033
4182.000000	1.230032
4180.000000	1.230184
4178.000000	1.230112
4176.000000	1.229934
4174.000000	1.229964
4172.000000	1.230002
4170.000000	1.229959
4168.000000	1.230091
4166.000000	1.230313
4164.000000	1.230183
4162.000000	1.229903
4160.000000	1.229862
4158.000000	1.229862
4156.000000	1.229635
4154.000000	1.229436
4152.000000	1.229485
4150.000000	1.229556
4148.000000	1.229528
4146.000000	1.229541
4144.000000	1.229593
4142.000000	1.229549
4140.000000	1.229429
4138.000000	1.229384
4136.000000	1.229426
4134.000000	1.229470
4132.000000	1.229448
4130.000000	1.229331
4128.000000	1.229145
4126.000000	1.229090
4124.000000	1.229228
4122.000000	1.229273
4120.000000	1.229108
4118.000000	1.229016
4116.000000	1.229045
4114.000000	1.228922
4112.000000	1.228767
4110.000000	1.228890
4108.000000	1.228969
4106.000000	1.228846
4104.000000	1.228877
4102.000000	1.229059
4100.000000	1.229037
4098.000000	1.228893
4096.000000	1.228881
4094.000000	1.228905
4092.000000	1.228830
4090.000000	1.228823
4088.000000	1.228819
4086.000000	1.228657
4084.000000	1.228611
4082.000000	1.228771
4080.000000	1.228726
4078.000000	1.228529
4076.000000	1.228580
4074.000000	1.228703
4072.000000	1.228650
4070.000000	1.228626
4068.000000	1.228694
4066.000000	1.228664
4064.000000	1.228514
4062.000000	1.228423
4060.000000	1.228388
4058.000000	1.228302
4056.000000	1.228327
4054.000000	1.228451
4052.000000	1.228320
4050.000000	1.227977
4048.000000	1.227854
4046.000000	1.227988
4044.000000	1.228129
4042.000000	1.228249
4040.000000	1.228193
4038.000000	1.227979
4036.000000	1.227890
4034.000000	1.227899
4032.000000	1.227822
4030.000000	1.227761
4028.000000	1.227820
4026.000000	1.227984
4024.000000	1.227983
4022.000000	1.227732
4020.000000	1.227661
4018.000000	1.227825
4016.000000	1.227715
4014.000000	1.227462
4012.000000	1.227471
4010.000000	1.227487
4008.000000	1.227349
4006.000000	1.227340
4004.000000	1.227481
4002.000000	1.227501
4000.000000	1.227417
3998.000000	1.227412
3996.000000	1.227415
3994.000000	1.227395
3992.000000	1.227301
3990.000000	1.227175
3988.000000	1.227190
3986.000000	1.227228
3984.000000	1.227166
3982.000000	1.227127
3980.000000	1.227054
3978.000000	1.226880
3976.000000	1.226808
3974.000000	1.226801
3972.000000	1.226769
3970.000000	1.226778
3968.000000	1.226713
3966.000000	1.226573
3964.000000	1.226449
3962.000000	1.226443
3960.000000	1.226479
3958.000000	1.226406
3956.000000	1.226343
3954.000000	1.226276
3952.000000	1.225993
3950.000000	1.225820
3948.000000	1.225989
3946.000000	1.225873
3944.000000	1.225474
3942.000000	1.225635
3940.000000	1.226023
3938.000000	1.225961
3936.000000	1.225562
3934.000000	1.225140
3932.000000	1.225210
3930.000000	1.225548
3928.000000	1.225240
3926.000000	1.224843
3924.000000	1.225073
3922.000000	1.225115
3920.000000	1.224609
3918.000000	1.224568
3916.000000	1.225331
3914.000000	1.225881
3912.000000	1.225693
3910.000000	1.225025
3908.000000	1.223735
3906.000000	1.222127
3904.000000	1.221690
3902.000000	1.222668
3900.000000	1.224175
3898.000000	1.225662
3896.000000	1.225466
3894.000000	1.223422
3892.000000	1.222822
3890.000000	1.223916
3888.000000	1.222978
3886.000000	1.222293
3884.000000	1.223798
3882.000000	1.223801
3880.000000	1.223918
3878.000000	1.224766
3876.000000	1.223669
3874.000000	1.222134
3872.000000	1.220836
3870.000000	1.221366
3868.000000	1.223300
3866.000000	1.223029
3864.000000	1.222837
3862.000000	1.224059
3860.000000	1.224128
3858.000000	1.220553
3856.000000	1.213766
3854.000000	1.213616
3852.000000	1.222575
3850.000000	1.227691
3848.000000	1.225690
3846.000000	1.222991
3844.000000	1.221840
3842.000000	1.220571
3840.000000	1.218219
3838.000000	1.218769
3836.000000	1.222442
3834.000000	1.223685
3832.000000	1.223201
3830.000000	1.223481
3828.000000	1.223299
3826.000000	1.222420
3824.000000	1.220159
3822.000000	1.218988
3820.000000	1.220562
3818.000000	1.219962
3816.000000	1.220474
3814.000000	1.224519
3812.000000	1.224880
3810.000000	1.221439
3808.000000	1.219670
3806.000000	1.220871
3804.000000	1.219827
3802.000000	1.218727
3800.000000	1.222246
3798.000000	1.223889
3796.000000	1.223215
3794.000000	1.223710
3792.000000	1.223597
3790.000000	1.223045
3788.000000	1.222752
3786.000000	1.222631
3784.000000	1.222614
3782.000000	1.222118
3780.000000	1.221996
3778.000000	1.222984
3776.000000	1.223407
3774.000000	1.222507
3772.000000	1.221003
3770.000000	1.220773
3768.000000	1.221788
3766.000000	1.222318
3764.000000	1.222334
3762.000000	1.221307
3760.000000	1.220529
3758.000000	1.221155
3756.000000	1.219815
3754.000000	1.215523
3752.000000	1.213763
3750.000000	1.216994
3748.000000	1.217969
3746.000000	1.214559
3744.000000	1.217436
3742.000000	1.223299
3740.000000	1.221121
3738.000000	1.216686
3736.000000	1.216562
3734.000000	1.218487
3732.000000	1.220457
3730.000000	1.221698
3728.000000	1.220555
3726.000000	1.219580
3724.000000	1.219995
3722.000000	1.220359
3720.000000	1.220736
3718.000000	1.220766
3716.000000	1.219269
3714.000000	1.216586
3712.000000	1.216644
3710.000000	1.219777
3708.000000	1.221537
3706.000000	1.220873
3704.000000	1.219434
3702.000000	1.219306
3700.000000	1.220399
3698.000000	1.220485
3696.000000	1.219722
3694.000000	1.218394
3692.000000	1.215856
3690.000000	1.214426
3688.000000	1.217632
3686.000000	1.221350
3684.000000	1.220705
3682.000000	1.218806
3680.000000	1.216801
3678.000000	1.213299
3676.000000	1.213033
3674.000000	1.216254
3672.000000	1.215542
3670.000000	1.215717
3668.000000	1.219336
3666.000000	1.219824
3664.000000	1.218442
3662.000000	1.217994
3660.000000	1.217143
3658.000000	1.215502
3656.000000	1.215865
3654.000000	1.216116
3652.000000	1.212719
3650.000000	1.211382
3648.000000	1.215255
3646.000000	1.218427
3644.000000	1.218085
3642.000000	1.217047
3640.000000	1.216768
3638.000000	1.216509
3636.000000	1.215977
3634.000000	1.215165
3632.000000	1.212533
3630.000000	1.210595
3628.000000	1.214169
3626.000000	1.217589
3624.000000	1.216264
3622.000000	1.213601
3620.000000	1.212836
3618.000000	1.214466
3616.000000	1.214909
3614.000000	1.213790
3612.000000	1.213347
3610.000000	1.213336
3608.000000	1.214436
3606.000000	1.215797
3604.000000	1.215523
3602.000000	1.214679
3600.000000	1.214428
3598.000000	1.214215
3596.000000	1.213874
3594.000000	1.214091
3592.000000	1.213914
3590.000000	1.212548
3588.000000	1.212356
3586.000000	1.214084
3584.000000	1.215017
3582.000000	1.214636
3580.000000	1.214293
3578.000000	1.214230
3576.000000	1.214198
3574.000000	1.214138
3572.000000	1.213618
3570.000000	1.212507
3568.000000	1.212245
3566.000000	1.213548
3564.000000	1.214539
3562.000000	1.214434
3560.000000	1.214210
3558.000000	1.214184
3556.000000	1.214075
3554.000000	1.213971
3552.000000	1.214066
3550.000000	1.214074
3548.000000	1.213848
3546.000000	1.214007
3544.000000	1.214549
3542.000000	1.214931
3540.000000	1.214864
3538.000000	1.214634
3536.000000	1.214809
3534.000000	1.215144
3532.000000	1.215013
3530.000000	1.214744
3528.000000	1.214842
3526.000000	1.215066
3524.000000	1.215262
3522.000000	1.215638
3520.000000	1.215955
3518.000000	1.216015
3516.000000	1.216034
3514.000000	1.216122
3512.000000	1.216217
3510.000000	1.216374
3508.000000	1.216719
3506.000000	1.216820
3504.000000	1.216762
3502.000000	1.217129
3500.000000	1.217662
3498.000000	1.217891
3496.000000	1.217955
3494.000000	1.218256
3492.000000	1.218657
3490.000000	1.218821
3488.000000	1.218904
3486.000000	1.219236
3484.000000	1.219488
3482.000000	1.219669
3480.000000	1.220097
3478.000000	1.220534
3476.000000	1.220747
3474.000000	1.221039
3472.000000	1.221505
3470.000000	1.221913
3468.000000	1.222123
3466.000000	1.222440
3464.000000	1.223007
3462.000000	1.223443
3460.000000	1.223692
3458.000000	1.224041
3456.000000	1.224533
3454.000000	1.224903
3452.000000	1.225280
3450.000000	1.225694
3448.000000	1.225903
3446.000000	1.226191
3444.000000	1.226779
3442.000000	1.227482
3440.000000	1.227996
3438.000000	1.228300
3436.000000	1.228703
3434.000000	1.229128
3432.000000	1.229513
3430.000000	1.229997
3428.000000	1.230480
3426.000000	1.230844
3424.000000	1.231175
3422.000000	1.231566
3420.000000	1.231850
3418.000000	1.232109
3416.000000	1.232399
3414.000000	1.232748
3412.000000	1.232953
3410.000000	1.233086
3408.000000	1.233387
3406.000000	1.233643
3404.000000	1.233718
3402.000000	1.233936
3400.000000	1.234233
3398.000000	1.234435
3396.000000	1.234630
3394.000000	1.234746
3392.000000	1.234813
3390.000000	1.234999
3388.000000	1.235312
3386.000000	1.235521
3384.000000	1.235544
3382.000000	1.235627
3380.000000	1.235914
3378.000000	1.236067
3376.000000	1.236140
3374.000000	1.236351
3372.000000	1.236471
3370.000000	1.236276
3368.000000	1.236300
3366.000000	1.236717
3364.000000	1.236942
3362.000000	1.236860
3360.000000	1.236906
3358.000000	1.237128
3356.000000	1.237169
3354.000000	1.237167
3352.000000	1.237323
3350.000000	1.237460
3348.000000	1.237430
3346.000000	1.237559
3344.000000	1.237732
3342.000000	1.237726
3340.000000	1.237614
3338.000000	1.237707
3336.000000	1.237934
3334.000000	1.237971
3332.000000	1.237997
3330.000000	1.238183
3328.000000	1.238274
3326.000000	1.238259
3324.000000	1.238323
3322.000000	1.238427
3320.000000	1.238476
3318.000000	1.238554
3316.000000	1.238694
3314.000000	1.238709
3312.000000	1.238663
3310.000000	1.238709
3308.000000	1.238791
3306.000000	1.238780
3304.000000	1.238907
3302.000000	1.239172
3300.000000	1.239242
3298.000000	1.239125
3296.000000	1.239141
3294.000000	1.239165
3292.000000	1.239205
3290.000000	1.239363
3288.000000	1.239508
3286.000000	1.239589
3284.000000	1.239554
3282.000000	1.239685
3280.000000	1.239828
3278.000000	1.239677
3276.000000	1.239580
3274.000000	1.239734
3272.000000	1.239827
3270.000000	1.239785
3268.000000	1.239800
3266.000000	1.239990
3264.000000	1.240029
3262.000000	1.240015
3260.000000	1.240093
3258.000000	1.240154
3256.000000	1.240100
3254.000000	1.240138
3252.000000	1.240358
3250.000000	1.240389
3248.000000	1.240312
3246.000000	1.240375
3244.000000	1.240496
3242.000000	1.240410
3240.000000	1.240371
3238.000000	1.240530
3236.000000	1.240595
3234.000000	1.240600
3232.000000	1.240819
3230.000000	1.240904
3228.000000	1.240815
3226.000000	1.240874
3224.000000	1.241078
3222.000000	1.241174
3220.000000	1.241128
3218.000000	1.241135
3216.000000	1.241072
3214.000000	1.240956
3212.000000	1.241050
3210.000000	1.241260
3208.000000	1.241239
3206.000000	1.241160
3204.000000	1.241337
3202.000000	1.241381
3200.000000	1.241140
3198.000000	1.241199
3196.000000	1.241378
3194.000000	1.241416
3192.000000	1.241366
3190.000000	1.241383
3188.000000	1.241491
3186.000000	1.241537
3184.000000	1.241507
3182.000000	1.241551
3180.000000	1.241395
3178.000000	1.241200
3176.000000	1.241328
3174.000000	1.241545
3172.000000	1.241575
3170.000000	1.241545
3168.000000	1.241609
3166.000000	1.241546
3164.000000	1.241495
3162.000000	1.241698
3160.000000	1.241874
3158.000000	1.241746
3156.000000	1.241615
3154.000000	1.241609
3152.000000	1.241617
3150.000000	1.241625
3148.000000	1.241751
3146.000000	1.241856
3144.000000	1.241817
3142.000000	1.241783
3140.000000	1.241837
3138.000000	1.241841
3136.000000	1.241761
3134.000000	1.241884
3132.000000	1.242095
3130.000000	1.242095
3128.000000	1.241998
3126.000000	1.242121
3124.000000	1.242153
3122.000000	1.241982
3120.000000	1.241891
3118.000000	1.242006
3116.000000	1.242040
3114.000000	1.242003
3112.000000	1.242057
3110.000000	1.242089
3108.000000	1.242008
3106.000000	1.242034
3104.000000	1.242040
3102.000000	1.241883
3100.000000	1.241773
3098.000000	1.241785
3096.000000	1.241735
3094.000000	1.241635
3092.000000	1.241658
3090.000000	1.241644
3088.000000	1.241508
3086.000000	1.241366
3084.000000	1.241367
3082.000000	1.241307
3080.000000	1.241206
3078.000000	1.241177
3076.000000	1.241148
3074.000000	1.241029
3072.000000	1.240897
3070.000000	1.240831
3068.000000	1.240756
3066.000000	1.240662
3064.000000	1.240700
3062.000000	1.240745
3060.000000	1.240614
3058.000000	1.240494
3056.000000	1.240506
3054.000000	1.240506
3052.000000	1.240373
3050.000000	1.240364
3048.000000	1.240389
3046.000000	1.240298
3044.000000	1.240058
3042.000000	1.239991
3040.000000	1.240132
3038.000000	1.240099
3036.000000	1.239943
3034.000000	1.239855
3032.000000	1.239727
3030.000000	1.239641
3028.000000	1.239606
3026.000000	1.239401
3024.000000	1.239212
3022.000000	1.239267
3020.000000	1.239528
3018.000000	1.239769
3016.000000	1.240004
3014.000000	1.240161
3012.000000	1.240179
3010.000000	1.240038
3008.000000	1.239880
3006.000000	1.239748
3004.000000	1.239581
3002.000000	1.239334
3000.000000	1.239244
2998.000000	1.239223
2996.000000	1.239047
2994.000000	1.238855
2992.000000	1.238831
2990.000000	1.238919
2988.000000	1.238937
2986.000000	1.238920
2984.000000	1.238852
2982.000000	1.238724
2980.000000	1.238675
2978.000000	1.238740
2976.000000	1.238693
2974.000000	1.238541
2972.000000	1.238373
2970.000000	1.238391
2968.000000	1.238685
2966.000000	1.239204
2964.000000	1.239956
2962.000000	1.240763
2960.000000	1.241171
2958.000000	1.241059
2956.000000	1.240630
2954.000000	1.240083
2952.000000	1.239542
2950.000000	1.239053
2948.000000	1.238592
2946.000000	1.237983
2944.000000	1.237486
2942.000000	1.237124
2940.000000	1.236818
2938.000000	1.236680
2936.000000	1.236843
2934.000000	1.236950
2932.000000	1.236990
2930.000000	1.237119
2928.000000	1.237490
2926.000000	1.238075
2924.000000	1.238837
2922.000000	1.239718
2920.000000	1.240319
2918.000000	1.240405
2916.000000	1.240314
2914.000000	1.240121
2912.000000	1.239704
2910.000000	1.239299
2908.000000	1.238949
2906.000000	1.238736
2904.000000	1.238597
2902.000000	1.238546
2900.000000	1.238477
2898.000000	1.238361
2896.000000	1.238177
2894.000000	1.238074
2892.000000	1.237989
2890.000000	1.237858
2888.000000	1.237722
2886.000000	1.237663
2884.000000	1.237487
2882.000000	1.237133
2880.000000	1.236898
2878.000000	1.236754
2876.000000	1.236566
2874.000000	1.236197
2872.000000	1.235939
2870.000000	1.235727
2868.000000	1.235299
2866.000000	1.235028
2864.000000	1.235308
2862.000000	1.235815
2860.000000	1.236376
2858.000000	1.236931
2856.000000	1.237254
2854.000000	1.237277
2852.000000	1.237432
2850.000000	1.237916
2848.000000	1.238179
2846.000000	1.238009
2844.000000	1.237711
2842.000000	1.237351
2840.000000	1.236880
2838.000000	1.236672
2836.000000	1.236764
2834.000000	1.236753
2832.000000	1.236518
2830.000000	1.236428
2828.000000	1.236392
2826.000000	1.236277
2824.000000	1.236210
2822.000000	1.236259
2820.000000	1.236200
2818.000000	1.236044
2816.000000	1.236029
2814.000000	1.236089
2812.000000	1.236000
2810.000000	1.235898
2808.000000	1.235916
2806.000000	1.235920
2804.000000	1.235837
2802.000000	1.235797
2800.000000	1.235815
2798.000000	1.235726
2796.000000	1.235713
2794.000000	1.235741
2792.000000	1.235807
2790.000000	1.235788
2788.000000	1.235762
2786.000000	1.235828
2784.000000	1.235856
2782.000000	1.235690
2780.000000	1.235636
2778.000000	1.235689
2776.000000	1.235666
2774.000000	1.235568
2772.000000	1.235556
2770.000000	1.235648
2768.000000	1.235622
2766.000000	1.235471
2764.000000	1.235357
2762.000000	1.235375
2760.000000	1.235455
2758.000000	1.235550
2756.000000	1.235429
2754.000000	1.235352
2752.000000	1.235388
2750.000000	1.235455
2748.000000	1.235471
2746.000000	1.235461
2744.000000	1.235516
2742.000000	1.235599
2740.000000	1.235639
2738.000000	1.235732
2736.000000	1.235732
2734.000000	1.235560
2732.000000	1.235500
2730.000000	1.235589
2728.000000	1.235696
2726.000000	1.235718
2724.000000	1.235858
2722.000000	1.236017
2720.000000	1.236013
2718.000000	1.235907
2716.000000	1.236002
2714.000000	1.236146
2712.000000	1.236118
2710.000000	1.236102
2708.000000	1.236262
2706.000000	1.236311
2704.000000	1.236410
2702.000000	1.236638
2700.000000	1.236770
2698.000000	1.236777
2696.000000	1.236793
2694.000000	1.236880
2692.000000	1.236926
2690.000000	1.236920
2688.000000	1.236961
2686.000000	1.237161
2684.000000	1.237295
2682.000000	1.237401
2680.000000	1.237490
2678.000000	1.237531
2676.000000	1.237477
2674.000000	1.237553
2672.000000	1.237805
2670.000000	1.237782
2668.000000	1.237700
2666.000000	1.237916
2664.000000	1.238093
2662.000000	1.238150
2660.000000	1.238201
2658.000000	1.238259
2656.000000	1.238340
2654.000000	1.238312
2652.000000	1.238472
2650.000000	1.238622
2648.000000	1.238597
2646.000000	1.238621
2644.000000	1.238754
2642.000000	1.238710
2640.000000	1.238651
2638.000000	1.238773
2636.000000	1.238869
2634.000000	1.238797
2632.000000	1.238784
2630.000000	1.238862
2628.000000	1.238837
2626.000000	1.238771
2624.000000	1.238858
2622.000000	1.238986
2620.000000	1.239035
2618.000000	1.239157
2616.000000	1.239137
2614.000000	1.239025
2612.000000	1.239020
2610.000000	1.239093
2608.000000	1.239078
2606.000000	1.239019
2604.000000	1.239180
2602.000000	1.239421
2600.000000	1.239324
2598.000000	1.239189
2596.000000	1.239222
2594.000000	1.239303
2592.000000	1.239339
2590.000000	1.239395
2588.000000	1.239511
2586.000000	1.239481
2584.000000	1.239455
2582.000000	1.239621
2580.000000	1.239783
2578.000000	1.239674
2576.000000	1.239609
2574.000000	1.239633
2572.000000	1.239579
2570.000000	1.239500
2568.000000	1.239661
2566.000000	1.239768
2564.000000	1.239665
2562.000000	1.239657
2560.000000	1.239865
2558.000000	1.239884
2556.000000	1.239741
2554.000000	1.239835
2552.000000	1.239892
2550.000000	1.239695
2548.000000	1.239617
2546.000000	1.239728
2544.000000	1.239748
2542.000000	1.239716
2540.000000	1.239766
2538.000000	1.239828
2536.000000	1.239639
2534.000000	1.239519
2532.000000	1.239636
2530.000000	1.239756
2528.000000	1.239725
2526.000000	1.239688
2524.000000	1.239717
2522.000000	1.239633
2520.000000	1.239511
2518.000000	1.239550
2516.000000	1.239612
2514.000000	1.239551
2512.000000	1.239658
2510.000000	1.239804
2508.000000	1.239711
2506.000000	1.239570
2504.000000	1.239616
2502.000000	1.239566
2500.000000	1.239559
2498.000000	1.239630
2496.000000	1.239678
2494.000000	1.239544
2492.000000	1.239420
2490.000000	1.239486
2488.000000	1.239518
2486.000000	1.239360
2484.000000	1.239333
2482.000000	1.239505
2480.000000	1.239492
2478.000000	1.239395
2476.000000	1.239443
2474.000000	1.239464
2472.000000	1.239316
2470.000000	1.239424
2468.000000	1.239624
2466.000000	1.239633
2464.000000	1.239562
2462.000000	1.239582
2460.000000	1.239546
2458.000000	1.239460
2456.000000	1.239510
2454.000000	1.239701
2452.000000	1.239692
2450.000000	1.239523
2448.000000	1.239499
2446.000000	1.239580
2444.000000	1.239451
2442.000000	1.239319
2440.000000	1.239456
2438.000000	1.239464
2436.000000	1.239477
2434.000000	1.239553
2432.000000	1.239501
2430.000000	1.239378
2428.000000	1.239359
2426.000000	1.239380
2424.000000	1.239296
2422.000000	1.239246
2420.000000	1.239465
2418.000000	1.239587
2416.000000	1.239460
2414.000000	1.239276
2412.000000	1.239339
2410.000000	1.239359
2408.000000	1.239254
2406.000000	1.239351
2404.000000	1.239402
2402.000000	1.239393
2400.000000	1.239362
2398.000000	1.239451
2396.000000	1.239320
2394.000000	1.239037
2392.000000	1.239079
2390.000000	1.239327
2388.000000	1.239278
2386.000000	1.239138
2384.000000	1.239214
2382.000000	1.239088
2380.000000	1.238670
2378.000000	1.238560
2376.000000	1.238499
2374.000000	1.238073
2372.000000	1.237710
2370.000000	1.237600
2368.000000	1.237527
2366.000000	1.237326
2364.000000	1.237407
2362.000000	1.237742
2360.000000	1.237922
2358.000000	1.238159
2356.000000	1.238724
2354.000000	1.239066
2352.000000	1.239152
2350.000000	1.238933
2348.000000	1.238434
2346.000000	1.238070
2344.000000	1.238338
2342.000000	1.239248
2340.000000	1.240080
2338.000000	1.240080
2336.000000	1.239481
2334.000000	1.239031
2332.000000	1.238723
2330.000000	1.238593
2328.000000	1.238751
2326.000000	1.238934
2324.000000	1.238865
2322.000000	1.238845
2320.000000	1.238930
2318.000000	1.238930
2316.000000	1.238788
2314.000000	1.238817
2312.000000	1.238899
2310.000000	1.238917
2308.000000	1.238995
2306.000000	1.239123
2304.000000	1.239095
2302.000000	1.238983
2300.000000	1.239032
2298.000000	1.239095
2296.000000	1.239001
2294.000000	1.239013
2292.000000	1.239252
2290.000000	1.239174
2288.000000	1.238942
2286.000000	1.238982
2284.000000	1.239115
2282.000000	1.239033
2280.000000	1.239062
2278.000000	1.239085
2276.000000	1.239059
2274.000000	1.239065
2272.000000	1.239086
2270.000000	1.239023
2268.000000	1.238840
2266.000000	1.238930
2264.000000	1.239270
2262.000000	1.239244
2260.000000	1.238901
2258.000000	1.238868
2256.000000	1.239066
2254.000000	1.238994
2252.000000	1.238783
2250.000000	1.238889
2248.000000	1.238994
2246.000000	1.238929
2244.000000	1.238883
2242.000000	1.238853
2240.000000	1.238588
2238.000000	1.238453
2236.000000	1.238725
2234.000000	1.238725
2232.000000	1.238555
2230.000000	1.238812
2228.000000	1.238986
2226.000000	1.238491
2224.000000	1.237971
2222.000000	1.238071
2220.000000	1.238357
2218.000000	1.238476
2216.000000	1.238495
2214.000000	1.238155
2212.000000	1.237868
2210.000000	1.237800
2208.000000	1.238000
2206.000000	1.238113
2204.000000	1.237934
2202.000000	1.237855
2200.000000	1.237987
2198.000000	1.237875
2196.000000	1.237547
2194.000000	1.237589
2192.000000	1.237868
2190.000000	1.237719
2188.000000	1.237677
2186.000000	1.237765
2184.000000	1.237572
2182.000000	1.237378
2180.000000	1.237138
2178.000000	1.236911
2176.000000	1.237000
2174.000000	1.237378
2172.000000	1.237357
2170.000000	1.236965
2168.000000	1.236685
2166.000000	1.236706
2164.000000	1.236780
2162.000000	1.236649
2160.000000	1.236575
2158.000000	1.236812
2156.000000	1.236950
2154.000000	1.236641
2152.000000	1.236371
2150.000000	1.236316
2148.000000	1.236262
2146.000000	1.236183
2144.000000	1.236311
2142.000000	1.236171
2140.000000	1.235963
2138.000000	1.235958
2136.000000	1.235943
2134.000000	1.235641
2132.000000	1.235573
2130.000000	1.235876
2128.000000	1.235937
2126.000000	1.235676
2124.000000	1.235681
2122.000000	1.235627
2120.000000	1.235374
2118.000000	1.235358
2116.000000	1.235400
2114.000000	1.235334
2112.000000	1.235159
2110.000000	1.235146
2108.000000	1.235132
2106.000000	1.234943
2104.000000	1.234897
2102.000000	1.235087
2100.000000	1.235122
2098.000000	1.234983
2096.000000	1.234953
2094.000000	1.235057
2092.000000	1.234906
2090.000000	1.234678
2088.000000	1.234733
2086.000000	1.234726
2084.000000	1.234637
2082.000000	1.234637
2080.000000	1.234715
2078.000000	1.234473
2076.000000	1.234296
2074.000000	1.234342
2072.000000	1.234350
2070.000000	1.234153
2068.000000	1.234173
2066.000000	1.234266
2064.000000	1.234261
2062.000000	1.234079
2060.000000	1.234175
2058.000000	1.234159
2056.000000	1.233918
2054.000000	1.233945
2052.000000	1.234124
2050.000000	1.234008
2048.000000	1.233811
2046.000000	1.233789
2044.000000	1.233687
2042.000000	1.233554
2040.000000	1.233669
2038.000000	1.233831
2036.000000	1.233762
2034.000000	1.233601
2032.000000	1.233514
2030.000000	1.233497
2028.000000	1.233430
2026.000000	1.233380
2024.000000	1.233435
2022.000000	1.233457
2020.000000	1.233257
2018.000000	1.233204
2016.000000	1.233392
2014.000000	1.233288
2012.000000	1.233177
2010.000000	1.233220
2008.000000	1.233214
2006.000000	1.233152
2004.000000	1.233315
2002.000000	1.233284
2000.000000	1.233092
1998.000000	1.233042
1996.000000	1.233137
1994.000000	1.232815
1992.000000	1.232728
1990.000000	1.232924
1988.000000	1.232946
1986.000000	1.232763
1984.000000	1.232623
1982.000000	1.232727
1980.000000	1.232763
1978.000000	1.232696
1976.000000	1.232772
1974.000000	1.232854
1972.000000	1.232738
1970.000000	1.232578
1968.000000	1.232473
1966.000000	1.232586
1964.000000	1.232556
1962.000000	1.232580
1960.000000	1.232621
1958.000000	1.232691
1956.000000	1.232682
1954.000000	1.232757
1952.000000	1.232706
1950.000000	1.232591
1948.000000	1.232641
1946.000000	1.232582
1944.000000	1.232225
1942.000000	1.232445
1940.000000	1.232972
1938.000000	1.232773
1936.000000	1.232565
1934.000000	1.232607
1932.000000	1.232734
1930.000000	1.232673
1928.000000	1.232689
1926.000000	1.232643
1924.000000	1.232444
1922.000000	1.232349
1920.000000	1.232042
1918.000000	1.232088
1916.000000	1.232837
1914.000000	1.232805
1912.000000	1.232771
1910.000000	1.232685
1908.000000	1.232760
1906.000000	1.232936
1904.000000	1.233111
1902.000000	1.232970
1900.000000	1.232864
1898.000000	1.232942
1896.000000	1.233020
1894.000000	1.232967
1892.000000	1.232694
1890.000000	1.232552
1888.000000	1.232883
1886.000000	1.232928
1884.000000	1.233056
1882.000000	1.233130
1880.000000	1.232996
1878.000000	1.232948
1876.000000	1.233052
1874.000000	1.232926
1872.000000	1.232229
1870.000000	1.231414
1868.000000	1.232252
1866.000000	1.232998
1864.000000	1.233112
1862.000000	1.233030
1860.000000	1.232900
1858.000000	1.232827
1856.000000	1.233039
1854.000000	1.232934
1852.000000	1.232866
1850.000000	1.232672
1848.000000	1.232259
1846.000000	1.230624
1844.000000	1.231014
1842.000000	1.233075
1840.000000	1.233114
1838.000000	1.232708
1836.000000	1.232825
1834.000000	1.232774
1832.000000	1.231664
1830.000000	1.231360
1828.000000	1.232308
1826.000000	1.232115
1824.000000	1.232630
1822.000000	1.233148
1820.000000	1.233075
1818.000000	1.232900
1816.000000	1.232899
1814.000000	1.232816
1812.000000	1.232598
1810.000000	1.232711
1808.000000	1.233061
1806.000000	1.233080
1804.000000	1.232548
1802.000000	1.231886
1800.000000	1.232333
1798.000000	1.232898
1796.000000	1.232144
1794.000000	1.230283
1792.000000	1.231149
1790.000000	1.233056
1788.000000	1.232877
1786.000000	1.232247
1784.000000	1.232679
1782.000000	1.232573
1780.000000	1.232715
1778.000000	1.232984
1776.000000	1.231886
1774.000000	1.229341
1772.000000	1.230237
1770.000000	1.232241
1768.000000	1.232465
1766.000000	1.233384
1764.000000	1.232425
1762.000000	1.232029
1760.000000	1.232982
1758.000000	1.232570
1756.000000	1.233027
1754.000000	1.232274
1752.000000	1.230261
1750.000000	1.231603
1748.000000	1.232904
1746.000000	1.233062
1744.000000	1.232755
1742.000000	1.232103
1740.000000	1.232030
1738.000000	1.232629
1736.000000	1.228483
1734.000000	1.228410
1732.000000	1.233595
1730.000000	1.234351
1728.000000	1.234456
1726.000000	1.234469
1724.000000	1.234411
1722.000000	1.233884
1720.000000	1.230359
1718.000000	1.228160
1716.000000	1.232077
1714.000000	1.234530
1712.000000	1.234979
1710.000000	1.234307
1708.000000	1.233567
1706.000000	1.232934
1704.000000	1.232773
1702.000000	1.228056
1700.000000	1.228736
1698.000000	1.230501
1696.000000	1.230220
1694.000000	1.235533
1692.000000	1.235991
1690.000000	1.234813
1688.000000	1.232951
1686.000000	1.227922
1684.000000	1.230311
1682.000000	1.235805
1680.000000	1.235729
1678.000000	1.234223
1676.000000	1.232454
1674.000000	1.234389
1672.000000	1.233911
1670.000000	1.232967
1668.000000	1.235319
1666.000000	1.236086
1664.000000	1.234535
1662.000000	1.235408
1660.000000	1.236587
1658.000000	1.235717
1656.000000	1.229973
1654.000000	1.224061
1652.000000	1.231769
1650.000000	1.236397
1648.000000	1.232371
1646.000000	1.233597
1644.000000	1.237207
1642.000000	1.237252
1640.000000	1.236045
1638.000000	1.232956
1636.000000	1.231760
1634.000000	1.236267
1632.000000	1.237795
1630.000000	1.236497
1628.000000	1.236021
1626.000000	1.235474
1624.000000	1.234705
1622.000000	1.236144
1620.000000	1.235379
1618.000000	1.232018
1616.000000	1.234381
1614.000000	1.237623
1612.000000	1.236845
1610.000000	1.236906
1608.000000	1.237584
1606.000000	1.238268
1604.000000	1.238391
1602.000000	1.238567
1600.000000	1.238521
1598.000000	1.238535
1596.000000	1.238349
1594.000000	1.238361
1592.000000	1.238258
1590.000000	1.238277
1588.000000	1.238270
1586.000000	1.238267
1584.000000	1.238242
1582.000000	1.238411
1580.000000	1.237548
1578.000000	1.233723
1576.000000	1.234125
1574.000000	1.238505
1572.000000	1.236813
1570.000000	1.235634
1568.000000	1.237516
1566.000000	1.237790
1564.000000	1.236752
1562.000000	1.231612
1560.000000	1.226331
1558.000000	1.231955
1556.000000	1.236324
1554.000000	1.236999
1552.000000	1.237995
1550.000000	1.237792
1548.000000	1.237461
1546.000000	1.235731
1544.000000	1.233658
1542.000000	1.230223
1540.000000	1.230405
1538.000000	1.236744
1536.000000	1.237588
1534.000000	1.235878
1532.000000	1.237627
1530.000000	1.237559
1528.000000	1.235987
1526.000000	1.235354
1524.000000	1.233801
1522.000000	1.231862
1520.000000	1.234739
1518.000000	1.235779
1516.000000	1.236111
1514.000000	1.236758
1512.000000	1.236415
1510.000000	1.234053
1508.000000	1.229222
1506.000000	1.231577
1504.000000	1.236918
1502.000000	1.235510
1500.000000	1.232143
1498.000000	1.230042
1496.000000	1.232830
1494.000000	1.238010
1492.000000	1.239190
1490.000000	1.239181
1488.000000	1.239697
1486.000000	1.239838
1484.000000	1.239518
1482.000000	1.238648
1480.000000	1.238264
1478.000000	1.237130
1476.000000	1.235626
1474.000000	1.233807
1472.000000	1.235335
1470.000000	1.237964
1468.000000	1.237314
1466.000000	1.235744
1464.000000	1.236699
1462.000000	1.237190
1460.000000	1.233493
1458.000000	1.229490
1456.000000	1.232839
1454.000000	1.236615
1452.000000	1.236860
1450.000000	1.237867
1448.000000	1.238618
1446.000000	1.238891
1444.000000	1.238161
1442.000000	1.237908
1440.000000	1.236699
1438.000000	1.234277
1436.000000	1.235681
1434.000000	1.237920
1432.000000	1.236963
1430.000000	1.236765
1428.000000	1.237396
1426.000000	1.237235
1424.000000	1.236689
1422.000000	1.235432
1420.000000	1.233712
1418.000000	1.235830
1416.000000	1.237350
1414.000000	1.237241
1412.000000	1.236810
1410.000000	1.236529
1408.000000	1.236070
1406.000000	1.235905
1404.000000	1.236688
1402.000000	1.237348
1400.000000	1.237072
1398.000000	1.237223
1396.000000	1.236339
1394.000000	1.236801
1392.000000	1.237591
1390.000000	1.236422
1388.000000	1.235308
1386.000000	1.236482
1384.000000	1.237346
1382.000000	1.237312
1380.000000	1.237064
1378.000000	1.237020
1376.000000	1.236286
1374.000000	1.236125
1372.000000	1.236742
1370.000000	1.236699
1368.000000	1.236523
1366.000000	1.236354
1364.000000	1.235737
1362.000000	1.235824
1360.000000	1.236283
1358.000000	1.236288
1356.000000	1.236165
1354.000000	1.236191
1352.000000	1.236275
1350.000000	1.236348
1348.000000	1.236207
1346.000000	1.235950
1344.000000	1.235945
1342.000000	1.235614
1340.000000	1.235173
1338.000000	1.235536
1336.000000	1.236052
1334.000000	1.236054
1332.000000	1.235668
1330.000000	1.235721
1328.000000	1.235795
1326.000000	1.235653
1324.000000	1.235480
1322.000000	1.235515
1320.000000	1.235245
1318.000000	1.235052
1316.000000	1.235121
1314.000000	1.235172
1312.000000	1.234883
1310.000000	1.234963
1308.000000	1.235069
1306.000000	1.235001
1304.000000	1.234684
1302.000000	1.234757
1300.000000	1.234830
1298.000000	1.234645
1296.000000	1.234492
1294.000000	1.234619
1292.000000	1.234438
1290.000000	1.234296
1288.000000	1.234468
1286.000000	1.234554
1284.000000	1.234329
1282.000000	1.234303
1280.000000	1.234634
1278.000000	1.234682
1276.000000	1.234543
1274.000000	1.234649
1272.000000	1.234879
1270.000000	1.234941
1268.000000	1.235545
1266.000000	1.237126
1264.000000	1.239055
1262.000000	1.241294
1260.000000	1.243769
1258.000000	1.244826
1256.000000	1.243487
1254.000000	1.241395
1252.000000	1.239795
1250.000000	1.238643
1248.000000	1.237889
1246.000000	1.238168
1244.000000	1.238352
1242.000000	1.238130
1240.000000	1.238130
1238.000000	1.238877
1236.000000	1.239084
1234.000000	1.238968
1232.000000	1.239210
1230.000000	1.239880
1228.000000	1.239914
1226.000000	1.240121
1224.000000	1.240860
1222.000000	1.241191
1220.000000	1.240718
1218.000000	1.240855
1216.000000	1.241546
1214.000000	1.241573
1212.000000	1.241738
1210.000000	1.242364
1208.000000	1.242710
1206.000000	1.242613
1204.000000	1.242788
1202.000000	1.243335
1200.000000	1.243737
1198.000000	1.243751
1196.000000	1.244391
1194.000000	1.244862
1192.000000	1.244805
1190.000000	1.244963
1188.000000	1.245524
1186.000000	1.245634
1184.000000	1.245255
1182.000000	1.246008
1180.000000	1.247294
1178.000000	1.247684
1176.000000	1.247805
1174.000000	1.248504
1172.000000	1.248484
1170.000000	1.248601
1168.000000	1.249223
1166.000000	1.249972
1164.000000	1.249685
1162.000000	1.250206
1160.000000	1.250993
1158.000000	1.251185
1156.000000	1.250881
1154.000000	1.251596
1152.000000	1.252503
1150.000000	1.252459
1148.000000	1.252606
1146.000000	1.253519
1144.000000	1.253354
1142.000000	1.253287
1140.000000	1.254395
1138.000000	1.254728
1136.000000	1.254250
1134.000000	1.254087
1132.000000	1.254981
1130.000000	1.255101
1128.000000	1.254931
1126.000000	1.255596
1124.000000	1.256232
1122.000000	1.255778
1120.000000	1.255743
1118.000000	1.256800
1116.000000	1.257186
1114.000000	1.256794
1112.000000	1.257546
1110.000000	1.258796
1108.000000	1.258205
1106.000000	1.258554
1104.000000	1.260084
1102.000000	1.261036
1100.000000	1.259874
1098.000000	1.260458
1096.000000	1.261707
1094.000000	1.261734
1092.000000	1.261576
1090.000000	1.262990
1088.000000	1.262606
1086.000000	1.261080
1084.000000	1.261268
1082.000000	1.262514
1080.000000	1.260655
1078.000000	1.259412
1076.000000	1.260943
1074.000000	1.261819
1072.000000	1.260395
1070.000000	1.259498
1068.000000	1.260575
1066.000000	1.259446
1064.000000	1.257553
1062.000000	1.258134
1060.000000	1.258763
1058.000000	1.256386
1056.000000	1.255622
1054.000000	1.255970
1052.000000	1.254961
1050.000000	1.253912
1048.000000	1.256293
1046.000000	1.257138
1044.000000	1.254200
1042.000000	1.253146
1040.000000	1.253548
1038.000000	1.252868
1036.000000	1.251390
1034.000000	1.252086
1032.000000	1.252141
1030.000000	1.250054
1028.000000	1.249709
1026.000000	1.252477
1024.000000	1.250297
1022.000000	1.247414
1020.000000	1.247540
1018.000000	1.249565
1016.000000	1.247337
1014.000000	1.245985
1012.000000	1.245649
1010.000000	1.243629
1008.000000	1.240042
1006.000000	1.238927
1004.000000	1.238295
1002.000000	1.235259
1000.000000	1.233209
