PE IR       SUBTECH     SPECTRUM    ASCII       PEDS        4.00        
   -1
TE110A_052_120K_2MIN.ASC
20/05/14
14:06:39.00
20/05/14
14:06:39.00
Administrator
TE110A.Thursday, May 14 2020, 004.
1000.000000
#HDR
-1
-1
#GR
cm-1
A
1.0
0.0
6000.000000
-2.000000
2501
8
1.266254
1.216205
#DATA
6000.000000	1.250428
5998.000000	1.250290
5996.000000	1.249749
5994.000000	1.249336
5992.000000	1.249007
5990.000000	1.248799
5988.000000	1.248731
5986.000000	1.249034
5984.000000	1.249431
5982.000000	1.249536
5980.000000	1.249305
5978.000000	1.248982
5976.000000	1.248940
5974.000000	1.248979
5972.000000	1.249051
5970.000000	1.249029
5968.000000	1.249148
5966.000000	1.249413
5964.000000	1.249195
5962.000000	1.248831
5960.000000	1.248585
5958.000000	1.248578
5956.000000	1.248633
5954.000000	1.248555
5952.000000	1.248586
5950.000000	1.248864
5948.000000	1.248876
5946.000000	1.248552
5944.000000	1.248321
5942.000000	1.248244
5940.000000	1.248314
5938.000000	1.248654
5936.000000	1.248741
5934.000000	1.248896
5932.000000	1.248812
5930.000000	1.248607
5928.000000	1.248867
5926.000000	1.249120
5924.000000	1.249020
5922.000000	1.248744
5920.000000	1.248378
5918.000000	1.248296
5916.000000	1.248369
5914.000000	1.248216
5912.000000	1.248326
5910.000000	1.248595
5908.000000	1.248736
5906.000000	1.248492
5904.000000	1.248084
5902.000000	1.248066
5900.000000	1.248258
5898.000000	1.248387
5896.000000	1.248311
5894.000000	1.248065
5892.000000	1.247742
5890.000000	1.247343
5888.000000	1.247226
5886.000000	1.247473
5884.000000	1.247887
5882.000000	1.248164
5880.000000	1.248081
5878.000000	1.247746
5876.000000	1.247671
5874.000000	1.247635
5872.000000	1.247467
5870.000000	1.246927
5868.000000	1.246434
5866.000000	1.246473
5864.000000	1.246836
5862.000000	1.247255
5860.000000	1.247307
5858.000000	1.247118
5856.000000	1.247021
5854.000000	1.246904
5852.000000	1.247033
5850.000000	1.247171
5848.000000	1.247303
5846.000000	1.247045
5844.000000	1.246748
5842.000000	1.246742
5840.000000	1.246794
5838.000000	1.246662
5836.000000	1.246598
5834.000000	1.246625
5832.000000	1.246702
5830.000000	1.246679
5828.000000	1.246590
5826.000000	1.246408
5824.000000	1.246172
5822.000000	1.246107
5820.000000	1.246233
5818.000000	1.246454
5816.000000	1.246570
5814.000000	1.246644
5812.000000	1.246549
5810.000000	1.246340
5808.000000	1.246454
5806.000000	1.246696
5804.000000	1.246758
5802.000000	1.246700
5800.000000	1.246608
5798.000000	1.246537
5796.000000	1.246464
5794.000000	1.246228
5792.000000	1.246206
5790.000000	1.246395
5788.000000	1.246435
5786.000000	1.246557
5784.000000	1.246462
5782.000000	1.246353
5780.000000	1.246412
5778.000000	1.246529
5776.000000	1.246635
5774.000000	1.246404
5772.000000	1.245911
5770.000000	1.245826
5768.000000	1.246034
5766.000000	1.246285
5764.000000	1.246157
5762.000000	1.245770
5760.000000	1.245387
5758.000000	1.245289
5756.000000	1.245359
5754.000000	1.245594
5752.000000	1.245632
5750.000000	1.245606
5748.000000	1.245566
5746.000000	1.245534
5744.000000	1.245534
5742.000000	1.245384
5740.000000	1.245198
5738.000000	1.245196
5736.000000	1.245448
5734.000000	1.245676
5732.000000	1.245676
5730.000000	1.245530
5728.000000	1.245715
5726.000000	1.245751
5724.000000	1.245460
5722.000000	1.245079
5720.000000	1.245087
5718.000000	1.245180
5716.000000	1.245222
5714.000000	1.245185
5712.000000	1.245110
5710.000000	1.244968
5708.000000	1.244641
5706.000000	1.244491
5704.000000	1.244598
5702.000000	1.244685
5700.000000	1.244929
5698.000000	1.245089
5696.000000	1.245086
5694.000000	1.244999
5692.000000	1.244842
5690.000000	1.244866
5688.000000	1.244817
5686.000000	1.244805
5684.000000	1.244687
5682.000000	1.244526
5680.000000	1.244452
5678.000000	1.244452
5676.000000	1.244346
5674.000000	1.244198
5672.000000	1.244241
5670.000000	1.244355
5668.000000	1.244286
5666.000000	1.244195
5664.000000	1.244411
5662.000000	1.244704
5660.000000	1.244669
5658.000000	1.244514
5656.000000	1.244477
5654.000000	1.244490
5652.000000	1.244540
5650.000000	1.244651
5648.000000	1.244787
5646.000000	1.244691
5644.000000	1.244330
5642.000000	1.244035
5640.000000	1.243886
5638.000000	1.243921
5636.000000	1.243946
5634.000000	1.243965
5632.000000	1.244071
5630.000000	1.244081
5628.000000	1.243985
5626.000000	1.243952
5624.000000	1.243702
5622.000000	1.243639
5620.000000	1.243598
5618.000000	1.243628
5616.000000	1.243593
5614.000000	1.243541
5612.000000	1.243675
5610.000000	1.243712
5608.000000	1.243483
5606.000000	1.243307
5604.000000	1.243333
5602.000000	1.243567
5600.000000	1.243652
5598.000000	1.243536
5596.000000	1.243296
5594.000000	1.243261
5592.000000	1.243336
5590.000000	1.243431
5588.000000	1.243480
5586.000000	1.243558
5584.000000	1.243478
5582.000000	1.243223
5580.000000	1.242993
5578.000000	1.242894
5576.000000	1.242837
5574.000000	1.242769
5572.000000	1.242616
5570.000000	1.242620
5568.000000	1.242807
5566.000000	1.242968
5564.000000	1.243002
5562.000000	1.242829
5560.000000	1.242748
5558.000000	1.242729
5556.000000	1.242754
5554.000000	1.242808
5552.000000	1.242796
5550.000000	1.242742
5548.000000	1.242746
5546.000000	1.242835
5544.000000	1.242896
5542.000000	1.242751
5540.000000	1.242523
5538.000000	1.242486
5536.000000	1.242571
5534.000000	1.242554
5532.000000	1.242458
5530.000000	1.242450
5528.000000	1.242393
5526.000000	1.242166
5524.000000	1.242043
5522.000000	1.242015
5520.000000	1.242107
5518.000000	1.242244
5516.000000	1.242322
5514.000000	1.242234
5512.000000	1.241951
5510.000000	1.241819
5508.000000	1.241961
5506.000000	1.242171
5504.000000	1.242304
5502.000000	1.242240
5500.000000	1.242116
5498.000000	1.241850
5496.000000	1.241573
5494.000000	1.241464
5492.000000	1.241527
5490.000000	1.241794
5488.000000	1.241960
5486.000000	1.242052
5484.000000	1.242117
5482.000000	1.242195
5480.000000	1.242078
5478.000000	1.241684
5476.000000	1.241448
5474.000000	1.241572
5472.000000	1.241691
5470.000000	1.241452
5468.000000	1.241301
5466.000000	1.241421
5464.000000	1.241584
5462.000000	1.241486
5460.000000	1.241357
5458.000000	1.241333
5456.000000	1.241427
5454.000000	1.241359
5452.000000	1.241230
5450.000000	1.241101
5448.000000	1.240995
5446.000000	1.241054
5444.000000	1.241034
5442.000000	1.241164
5440.000000	1.241208
5438.000000	1.240921
5436.000000	1.240657
5434.000000	1.240628
5432.000000	1.240788
5430.000000	1.240787
5428.000000	1.240810
5426.000000	1.241047
5424.000000	1.241255
5422.000000	1.241360
5420.000000	1.241366
5418.000000	1.241120
5416.000000	1.240680
5414.000000	1.240417
5412.000000	1.240397
5410.000000	1.240622
5408.000000	1.240828
5406.000000	1.240861
5404.000000	1.240727
5402.000000	1.240527
5400.000000	1.240437
5398.000000	1.240265
5396.000000	1.240169
5394.000000	1.240441
5392.000000	1.240829
5390.000000	1.240760
5388.000000	1.240210
5386.000000	1.239942
5384.000000	1.240242
5382.000000	1.240419
5380.000000	1.240132
5378.000000	1.239846
5376.000000	1.240063
5374.000000	1.240632
5372.000000	1.240881
5370.000000	1.240724
5368.000000	1.240314
5366.000000	1.240070
5364.000000	1.240083
5362.000000	1.240285
5360.000000	1.240502
5358.000000	1.240271
5356.000000	1.239805
5354.000000	1.239600
5352.000000	1.239894
5350.000000	1.240118
5348.000000	1.239796
5346.000000	1.239464
5344.000000	1.239501
5342.000000	1.239539
5340.000000	1.239449
5338.000000	1.239690
5336.000000	1.240302
5334.000000	1.240573
5332.000000	1.240165
5330.000000	1.239672
5328.000000	1.239707
5326.000000	1.240040
5324.000000	1.240273
5322.000000	1.240069
5320.000000	1.239840
5318.000000	1.239817
5316.000000	1.239940
5314.000000	1.240103
5312.000000	1.239918
5310.000000	1.239426
5308.000000	1.239176
5306.000000	1.239434
5304.000000	1.239767
5302.000000	1.239654
5300.000000	1.239438
5298.000000	1.239516
5296.000000	1.239690
5294.000000	1.239637
5292.000000	1.239374
5290.000000	1.239329
5288.000000	1.239434
5286.000000	1.239469
5284.000000	1.239409
5282.000000	1.239457
5280.000000	1.239509
5278.000000	1.239439
5276.000000	1.239361
5274.000000	1.239262
5272.000000	1.239125
5270.000000	1.238949
5268.000000	1.238697
5266.000000	1.238578
5264.000000	1.238778
5262.000000	1.239272
5260.000000	1.239534
5258.000000	1.239203
5256.000000	1.238904
5254.000000	1.239065
5252.000000	1.239120
5250.000000	1.238777
5248.000000	1.238624
5246.000000	1.238955
5244.000000	1.239306
5242.000000	1.239345
5240.000000	1.239373
5238.000000	1.239284
5236.000000	1.239071
5234.000000	1.238866
5232.000000	1.238833
5230.000000	1.238781
5228.000000	1.238562
5226.000000	1.238472
5224.000000	1.238686
5222.000000	1.238991
5220.000000	1.239048
5218.000000	1.239006
5216.000000	1.239045
5214.000000	1.239087
5212.000000	1.238976
5210.000000	1.238638
5208.000000	1.238487
5206.000000	1.238758
5204.000000	1.239139
5202.000000	1.239138
5200.000000	1.238843
5198.000000	1.238570
5196.000000	1.238515
5194.000000	1.238597
5192.000000	1.238615
5190.000000	1.238556
5188.000000	1.238522
5186.000000	1.238600
5184.000000	1.238564
5182.000000	1.238496
5180.000000	1.238442
5178.000000	1.238564
5176.000000	1.238691
5174.000000	1.238563
5172.000000	1.238248
5170.000000	1.238124
5168.000000	1.238358
5166.000000	1.238567
5164.000000	1.238636
5162.000000	1.238623
5160.000000	1.238494
5158.000000	1.238410
5156.000000	1.238513
5154.000000	1.238769
5152.000000	1.238829
5150.000000	1.238683
5148.000000	1.238539
5146.000000	1.238584
5144.000000	1.238664
5142.000000	1.238708
5140.000000	1.238706
5138.000000	1.238747
5136.000000	1.238779
5134.000000	1.238821
5132.000000	1.238851
5130.000000	1.238680
5128.000000	1.238491
5126.000000	1.238396
5124.000000	1.238445
5122.000000	1.238509
5120.000000	1.238550
5118.000000	1.238553
5116.000000	1.238496
5114.000000	1.238453
5112.000000	1.238279
5110.000000	1.238185
5108.000000	1.238319
5106.000000	1.238537
5104.000000	1.238514
5102.000000	1.238318
5100.000000	1.238201
5098.000000	1.238215
5096.000000	1.238276
5094.000000	1.238311
5092.000000	1.238264
5090.000000	1.238246
5088.000000	1.238266
5086.000000	1.238221
5084.000000	1.238156
5082.000000	1.238166
5080.000000	1.238209
5078.000000	1.238193
5076.000000	1.238130
5074.000000	1.238113
5072.000000	1.238165
5070.000000	1.238170
5068.000000	1.238158
5066.000000	1.238080
5064.000000	1.238132
5062.000000	1.238252
5060.000000	1.238359
5058.000000	1.238380
5056.000000	1.238363
5054.000000	1.238376
5052.000000	1.238370
5050.000000	1.238370
5048.000000	1.238423
5046.000000	1.238459
5044.000000	1.238474
5042.000000	1.238490
5040.000000	1.238414
5038.000000	1.238197
5036.000000	1.238143
5034.000000	1.238354
5032.000000	1.238546
5030.000000	1.238556
5028.000000	1.238485
5026.000000	1.238368
5024.000000	1.238344
5022.000000	1.238438
5020.000000	1.238425
5018.000000	1.238273
5016.000000	1.238276
5014.000000	1.238455
5012.000000	1.238542
5010.000000	1.238513
5008.000000	1.238402
5006.000000	1.238300
5004.000000	1.238284
5002.000000	1.238230
5000.000000	1.238143
4998.000000	1.238127
4996.000000	1.238218
4994.000000	1.238246
4992.000000	1.238285
4990.000000	1.238315
4988.000000	1.238249
4986.000000	1.238163
4984.000000	1.238199
4982.000000	1.238301
4980.000000	1.238290
4978.000000	1.238151
4976.000000	1.238036
4974.000000	1.238028
4972.000000	1.238059
4970.000000	1.238139
4968.000000	1.238286
4966.000000	1.238350
4964.000000	1.238335
4962.000000	1.238381
4960.000000	1.238378
4958.000000	1.238294
4956.000000	1.238298
4954.000000	1.238379
4952.000000	1.238348
4950.000000	1.238364
4948.000000	1.238527
4946.000000	1.238561
4944.000000	1.238350
4942.000000	1.238275
4940.000000	1.238355
4938.000000	1.238447
4936.000000	1.238418
4934.000000	1.238377
4932.000000	1.238336
4930.000000	1.238311
4928.000000	1.238279
4926.000000	1.238192
4924.000000	1.238171
4922.000000	1.238144
4920.000000	1.238151
4918.000000	1.238200
4916.000000	1.238223
4914.000000	1.238261
4912.000000	1.238347
4910.000000	1.238389
4908.000000	1.238328
4906.000000	1.238257
4904.000000	1.238149
4902.000000	1.238048
4900.000000	1.238029
4898.000000	1.238036
4896.000000	1.237935
4894.000000	1.237850
4892.000000	1.237988
4890.000000	1.238262
4888.000000	1.238306
4886.000000	1.238231
4884.000000	1.238199
4882.000000	1.238113
4880.000000	1.237973
4878.000000	1.238051
4876.000000	1.238130
4874.000000	1.238142
4872.000000	1.238293
4870.000000	1.238452
4868.000000	1.238334
4866.000000	1.238136
4864.000000	1.238139
4862.000000	1.238280
4860.000000	1.238275
4858.000000	1.238217
4856.000000	1.238238
4854.000000	1.238287
4852.000000	1.238248
4850.000000	1.238212
4848.000000	1.238112
4846.000000	1.238043
4844.000000	1.238223
4842.000000	1.238398
4840.000000	1.238336
4838.000000	1.238271
4836.000000	1.238314
4834.000000	1.238269
4832.000000	1.238200
4830.000000	1.238251
4828.000000	1.238248
4826.000000	1.238114
4824.000000	1.238030
4822.000000	1.238185
4820.000000	1.238361
4818.000000	1.238375
4816.000000	1.238268
4814.000000	1.238155
4812.000000	1.238041
4810.000000	1.237939
4808.000000	1.237965
4806.000000	1.237965
4804.000000	1.237858
4802.000000	1.237789
4800.000000	1.237854
4798.000000	1.237925
4796.000000	1.237989
4794.000000	1.238086
4792.000000	1.238065
4790.000000	1.237952
4788.000000	1.237896
4786.000000	1.237917
4784.000000	1.237939
4782.000000	1.237936
4780.000000	1.237923
4778.000000	1.237950
4776.000000	1.238024
4774.000000	1.238018
4772.000000	1.237895
4770.000000	1.237845
4768.000000	1.237903
4766.000000	1.237957
4764.000000	1.238012
4762.000000	1.238020
4760.000000	1.237938
4758.000000	1.237953
4756.000000	1.238076
4754.000000	1.238085
4752.000000	1.238099
4750.000000	1.238182
4748.000000	1.238118
4746.000000	1.237948
4744.000000	1.237887
4742.000000	1.237921
4740.000000	1.237900
4738.000000	1.237887
4736.000000	1.237888
4734.000000	1.237869
4732.000000	1.237779
4730.000000	1.237715
4728.000000	1.237714
4726.000000	1.237777
4724.000000	1.237817
4722.000000	1.237804
4720.000000	1.237759
4718.000000	1.237690
4716.000000	1.237707
4714.000000	1.237883
4712.000000	1.237957
4710.000000	1.237777
4708.000000	1.237709
4706.000000	1.237824
4704.000000	1.237812
4702.000000	1.237702
4700.000000	1.237720
4698.000000	1.237760
4696.000000	1.237712
4694.000000	1.237639
4692.000000	1.237664
4690.000000	1.237743
4688.000000	1.237769
4686.000000	1.237794
4684.000000	1.237866
4682.000000	1.237856
4680.000000	1.237768
4678.000000	1.237745
4676.000000	1.237738
4674.000000	1.237783
4672.000000	1.237890
4670.000000	1.237934
4668.000000	1.237908
4666.000000	1.237906
4664.000000	1.237903
4662.000000	1.237870
4660.000000	1.237834
4658.000000	1.237863
4656.000000	1.237880
4654.000000	1.237824
4652.000000	1.237773
4650.000000	1.237809
4648.000000	1.237836
4646.000000	1.237833
4644.000000	1.237874
4642.000000	1.237925
4640.000000	1.237935
4638.000000	1.237809
4636.000000	1.237680
4634.000000	1.237663
4632.000000	1.237676
4630.000000	1.237594
4628.000000	1.237562
4626.000000	1.237656
4624.000000	1.237700
4622.000000	1.237624
4620.000000	1.237597
4618.000000	1.237667
4616.000000	1.237631
4614.000000	1.237544
4612.000000	1.237599
4610.000000	1.237774
4608.000000	1.237839
4606.000000	1.237810
4604.000000	1.237742
4602.000000	1.237690
4600.000000	1.237687
4598.000000	1.237750
4596.000000	1.237797
4594.000000	1.237847
4592.000000	1.237858
4590.000000	1.237740
4588.000000	1.237568
4586.000000	1.237547
4584.000000	1.237634
4582.000000	1.237671
4580.000000	1.237623
4578.000000	1.237517
4576.000000	1.237498
4574.000000	1.237591
4572.000000	1.237657
4570.000000	1.237649
4568.000000	1.237740
4566.000000	1.237786
4564.000000	1.237705
4562.000000	1.237638
4560.000000	1.237698
4558.000000	1.237767
4556.000000	1.237788
4554.000000	1.237815
4552.000000	1.237845
4550.000000	1.237815
4548.000000	1.237691
4546.000000	1.237607
4544.000000	1.237678
4542.000000	1.237791
4540.000000	1.237818
4538.000000	1.237801
4536.000000	1.237731
4534.000000	1.237656
4532.000000	1.237644
4530.000000	1.237616
4528.000000	1.237625
4526.000000	1.237741
4524.000000	1.237758
4522.000000	1.237639
4520.000000	1.237578
4518.000000	1.237579
4516.000000	1.237596
4514.000000	1.237609
4512.000000	1.237621
4510.000000	1.237666
4508.000000	1.237664
4506.000000	1.237615
4504.000000	1.237558
4502.000000	1.237510
4500.000000	1.237501
4498.000000	1.237540
4496.000000	1.237507
4494.000000	1.237448
4492.000000	1.237406
4490.000000	1.237420
4488.000000	1.237492
4486.000000	1.237568
4484.000000	1.237630
4482.000000	1.237685
4480.000000	1.237654
4478.000000	1.237534
4476.000000	1.237445
4474.000000	1.237483
4472.000000	1.237549
4470.000000	1.237579
4468.000000	1.237626
4466.000000	1.237678
4464.000000	1.237612
4462.000000	1.237507
4460.000000	1.237421
4458.000000	1.237370
4456.000000	1.237338
4454.000000	1.237411
4452.000000	1.237531
4450.000000	1.237576
4448.000000	1.237514
4446.000000	1.237432
4444.000000	1.237436
4442.000000	1.237526
4440.000000	1.237505
4438.000000	1.237391
4436.000000	1.237364
4434.000000	1.237406
4432.000000	1.237482
4430.000000	1.237572
4428.000000	1.237553
4426.000000	1.237470
4424.000000	1.237440
4422.000000	1.237406
4420.000000	1.237282
4418.000000	1.237172
4416.000000	1.237208
4414.000000	1.237316
4412.000000	1.237360
4410.000000	1.237365
4408.000000	1.237392
4406.000000	1.237406
4404.000000	1.237324
4402.000000	1.237179
4400.000000	1.237198
4398.000000	1.237344
4396.000000	1.237313
4394.000000	1.237172
4392.000000	1.237140
4390.000000	1.237189
4388.000000	1.237265
4386.000000	1.237297
4384.000000	1.237267
4382.000000	1.237256
4380.000000	1.237265
4378.000000	1.237339
4376.000000	1.237410
4374.000000	1.237335
4372.000000	1.237253
4370.000000	1.237279
4368.000000	1.237242
4366.000000	1.237221
4364.000000	1.237366
4362.000000	1.237487
4360.000000	1.237416
4358.000000	1.237283
4356.000000	1.237202
4354.000000	1.237262
4352.000000	1.237326
4350.000000	1.237335
4348.000000	1.237373
4346.000000	1.237414
4344.000000	1.237320
4342.000000	1.237205
4340.000000	1.237145
4338.000000	1.237086
4336.000000	1.236986
4334.000000	1.236931
4332.000000	1.236934
4330.000000	1.236940
4328.000000	1.236952
4326.000000	1.237059
4324.000000	1.237158
4322.000000	1.237047
4320.000000	1.236870
4318.000000	1.236835
4316.000000	1.236908
4314.000000	1.237034
4312.000000	1.237055
4310.000000	1.236964
4308.000000	1.236949
4306.000000	1.237027
4304.000000	1.237043
4302.000000	1.236913
4300.000000	1.236778
4298.000000	1.236797
4296.000000	1.236876
4294.000000	1.236933
4292.000000	1.236946
4290.000000	1.236877
4288.000000	1.236850
4286.000000	1.236896
4284.000000	1.236841
4282.000000	1.236688
4280.000000	1.236666
4278.000000	1.236704
4276.000000	1.236667
4274.000000	1.236689
4272.000000	1.236729
4270.000000	1.236653
4268.000000	1.236671
4266.000000	1.236805
4264.000000	1.236858
4262.000000	1.236820
4260.000000	1.236725
4258.000000	1.236637
4256.000000	1.236668
4254.000000	1.236706
4252.000000	1.236613
4250.000000	1.236493
4248.000000	1.236470
4246.000000	1.236524
4244.000000	1.236539
4242.000000	1.236487
4240.000000	1.236446
4238.000000	1.236495
4236.000000	1.236558
4234.000000	1.236516
4232.000000	1.236400
4230.000000	1.236359
4228.000000	1.236346
4226.000000	1.236339
4224.000000	1.236385
4222.000000	1.236407
4220.000000	1.236350
4218.000000	1.236288
4216.000000	1.236170
4214.000000	1.235997
4212.000000	1.235949
4210.000000	1.236065
4208.000000	1.236144
4206.000000	1.236163
4204.000000	1.236157
4202.000000	1.236144
4200.000000	1.236152
4198.000000	1.236132
4196.000000	1.236067
4194.000000	1.235994
4192.000000	1.235937
4190.000000	1.235947
4188.000000	1.235961
4186.000000	1.235946
4184.000000	1.235906
4182.000000	1.235917
4180.000000	1.235955
4178.000000	1.235879
4176.000000	1.235800
4174.000000	1.235926
4172.000000	1.236058
4170.000000	1.236019
4168.000000	1.235912
4166.000000	1.235865
4164.000000	1.235842
4162.000000	1.235763
4160.000000	1.235698
4158.000000	1.235735
4156.000000	1.235753
4154.000000	1.235671
4152.000000	1.235561
4150.000000	1.235511
4148.000000	1.235507
4146.000000	1.235515
4144.000000	1.235512
4142.000000	1.235459
4140.000000	1.235403
4138.000000	1.235416
4136.000000	1.235381
4134.000000	1.235249
4132.000000	1.235123
4130.000000	1.235108
4128.000000	1.235181
4126.000000	1.235206
4124.000000	1.235131
4122.000000	1.235080
4120.000000	1.235069
4118.000000	1.235043
4116.000000	1.235020
4114.000000	1.234991
4112.000000	1.234958
4110.000000	1.234946
4108.000000	1.234894
4106.000000	1.234889
4104.000000	1.234926
4102.000000	1.234884
4100.000000	1.234841
4098.000000	1.234771
4096.000000	1.234620
4094.000000	1.234566
4092.000000	1.234673
4090.000000	1.234816
4088.000000	1.234848
4086.000000	1.234787
4084.000000	1.234669
4082.000000	1.234518
4080.000000	1.234493
4078.000000	1.234580
4076.000000	1.234587
4074.000000	1.234504
4072.000000	1.234456
4070.000000	1.234502
4068.000000	1.234508
4066.000000	1.234393
4064.000000	1.234286
4062.000000	1.234245
4060.000000	1.234280
4058.000000	1.234365
4056.000000	1.234333
4054.000000	1.234208
4052.000000	1.234099
4050.000000	1.233999
4048.000000	1.233881
4046.000000	1.233792
4044.000000	1.233839
4042.000000	1.233963
4040.000000	1.233960
4038.000000	1.233885
4036.000000	1.233904
4034.000000	1.233921
4032.000000	1.233833
4030.000000	1.233766
4028.000000	1.233671
4026.000000	1.233575
4024.000000	1.233595
4022.000000	1.233576
4020.000000	1.233469
4018.000000	1.233471
4016.000000	1.233513
4014.000000	1.233450
4012.000000	1.233358
4010.000000	1.233333
4008.000000	1.233340
4006.000000	1.233324
4004.000000	1.233283
4002.000000	1.233311
4000.000000	1.233354
3998.000000	1.233279
3996.000000	1.233116
3994.000000	1.233061
3992.000000	1.233092
3990.000000	1.233048
3988.000000	1.233013
3986.000000	1.233021
3984.000000	1.232930
3982.000000	1.232850
3980.000000	1.232856
3978.000000	1.232770
3976.000000	1.232613
3974.000000	1.232593
3972.000000	1.232657
3970.000000	1.232654
3968.000000	1.232640
3966.000000	1.232662
3964.000000	1.232585
3962.000000	1.232508
3960.000000	1.232560
3958.000000	1.232540
3956.000000	1.232326
3954.000000	1.232081
3952.000000	1.231892
3950.000000	1.231787
3948.000000	1.231880
3946.000000	1.231871
3944.000000	1.231563
3942.000000	1.231664
3940.000000	1.232057
3938.000000	1.232019
3936.000000	1.231526
3934.000000	1.230983
3932.000000	1.231085
3930.000000	1.231644
3928.000000	1.231572
3926.000000	1.231133
3924.000000	1.231126
3922.000000	1.230988
3920.000000	1.230393
3918.000000	1.230396
3916.000000	1.231292
3914.000000	1.231838
3912.000000	1.231594
3910.000000	1.231159
3908.000000	1.229984
3906.000000	1.228119
3904.000000	1.227532
3902.000000	1.228528
3900.000000	1.230002
3898.000000	1.231444
3896.000000	1.231380
3894.000000	1.229502
3892.000000	1.228783
3890.000000	1.229729
3888.000000	1.228844
3886.000000	1.228069
3884.000000	1.229560
3882.000000	1.229867
3880.000000	1.229958
3878.000000	1.230572
3876.000000	1.229548
3874.000000	1.228015
3872.000000	1.226447
3870.000000	1.226875
3868.000000	1.228920
3866.000000	1.228652
3864.000000	1.228518
3862.000000	1.229941
3860.000000	1.230024
3858.000000	1.226249
3856.000000	1.219356
3854.000000	1.219176
3852.000000	1.227997
3850.000000	1.233096
3848.000000	1.231396
3846.000000	1.228996
3844.000000	1.227842
3842.000000	1.226502
3840.000000	1.224119
3838.000000	1.224557
3836.000000	1.228147
3834.000000	1.229458
3832.000000	1.229098
3830.000000	1.229371
3828.000000	1.229116
3826.000000	1.228283
3824.000000	1.226135
3822.000000	1.224901
3820.000000	1.226329
3818.000000	1.225767
3816.000000	1.226208
3814.000000	1.229996
3812.000000	1.230309
3810.000000	1.227002
3808.000000	1.225320
3806.000000	1.226587
3804.000000	1.225454
3802.000000	1.224050
3800.000000	1.227464
3798.000000	1.229401
3796.000000	1.228907
3794.000000	1.229366
3792.000000	1.229354
3790.000000	1.228919
3788.000000	1.228567
3786.000000	1.228336
3784.000000	1.228357
3782.000000	1.227871
3780.000000	1.227570
3778.000000	1.228493
3776.000000	1.229001
3774.000000	1.228082
3772.000000	1.226599
3770.000000	1.226487
3768.000000	1.227439
3766.000000	1.227797
3764.000000	1.227848
3762.000000	1.226996
3760.000000	1.226249
3758.000000	1.226766
3756.000000	1.225325
3754.000000	1.220838
3752.000000	1.218822
3750.000000	1.222056
3748.000000	1.223195
3746.000000	1.219786
3744.000000	1.222586
3742.000000	1.228612
3740.000000	1.226685
3738.000000	1.222318
3736.000000	1.222098
3734.000000	1.223943
3732.000000	1.225857
3730.000000	1.227067
3728.000000	1.226114
3726.000000	1.225276
3724.000000	1.225612
3722.000000	1.226011
3720.000000	1.226463
3718.000000	1.226514
3716.000000	1.225033
3714.000000	1.222314
3712.000000	1.222244
3710.000000	1.225192
3708.000000	1.226994
3706.000000	1.226469
3704.000000	1.225040
3702.000000	1.224815
3700.000000	1.225883
3698.000000	1.226215
3696.000000	1.225612
3694.000000	1.224112
3692.000000	1.221306
3690.000000	1.219700
3688.000000	1.222987
3686.000000	1.226910
3684.000000	1.226405
3682.000000	1.224530
3680.000000	1.222509
3678.000000	1.219038
3676.000000	1.218628
3674.000000	1.221669
3672.000000	1.221066
3670.000000	1.221392
3668.000000	1.225092
3666.000000	1.225825
3664.000000	1.224540
3662.000000	1.223855
3660.000000	1.222801
3658.000000	1.221199
3656.000000	1.221633
3654.000000	1.221816
3652.000000	1.218367
3650.000000	1.216998
3648.000000	1.220723
3646.000000	1.223942
3644.000000	1.223919
3642.000000	1.222990
3640.000000	1.222621
3638.000000	1.222384
3636.000000	1.221866
3634.000000	1.220929
3632.000000	1.218213
3630.000000	1.216205
3628.000000	1.219777
3626.000000	1.223337
3624.000000	1.222139
3622.000000	1.219525
3620.000000	1.218639
3618.000000	1.220045
3616.000000	1.220552
3614.000000	1.219518
3612.000000	1.218933
3610.000000	1.218958
3608.000000	1.220152
3606.000000	1.221361
3604.000000	1.220975
3602.000000	1.220283
3600.000000	1.220178
3598.000000	1.219998
3596.000000	1.219758
3594.000000	1.220029
3592.000000	1.219690
3590.000000	1.218173
3588.000000	1.218044
3586.000000	1.219847
3584.000000	1.220732
3582.000000	1.220323
3580.000000	1.220000
3578.000000	1.219995
3576.000000	1.220033
3574.000000	1.220014
3572.000000	1.219452
3570.000000	1.218085
3568.000000	1.217601
3566.000000	1.218993
3564.000000	1.220086
3562.000000	1.220022
3560.000000	1.219933
3558.000000	1.220046
3556.000000	1.219879
3554.000000	1.219566
3552.000000	1.219627
3550.000000	1.219675
3548.000000	1.219319
3546.000000	1.219404
3544.000000	1.220041
3542.000000	1.220359
3540.000000	1.220241
3538.000000	1.220128
3536.000000	1.220214
3534.000000	1.220353
3532.000000	1.220278
3530.000000	1.220174
3528.000000	1.220262
3526.000000	1.220404
3524.000000	1.220571
3522.000000	1.220885
3520.000000	1.221136
3518.000000	1.221286
3516.000000	1.221408
3514.000000	1.221424
3512.000000	1.221425
3510.000000	1.221624
3508.000000	1.221946
3506.000000	1.221940
3504.000000	1.221905
3502.000000	1.222385
3500.000000	1.222890
3498.000000	1.223019
3496.000000	1.223083
3494.000000	1.223315
3492.000000	1.223513
3490.000000	1.223619
3488.000000	1.223822
3486.000000	1.224142
3484.000000	1.224406
3482.000000	1.224639
3480.000000	1.224961
3478.000000	1.225338
3476.000000	1.225681
3474.000000	1.226025
3472.000000	1.226287
3470.000000	1.226476
3468.000000	1.226799
3466.000000	1.227281
3464.000000	1.227735
3462.000000	1.228117
3460.000000	1.228478
3458.000000	1.228841
3456.000000	1.229192
3454.000000	1.229536
3452.000000	1.229839
3450.000000	1.230044
3448.000000	1.230307
3446.000000	1.230815
3444.000000	1.231339
3442.000000	1.231774
3440.000000	1.232201
3438.000000	1.232534
3436.000000	1.232884
3434.000000	1.233370
3432.000000	1.233851
3430.000000	1.234177
3428.000000	1.234472
3426.000000	1.234810
3424.000000	1.235107
3422.000000	1.235385
3420.000000	1.235703
3418.000000	1.236054
3416.000000	1.236338
3414.000000	1.236547
3412.000000	1.236750
3410.000000	1.236976
3408.000000	1.237284
3406.000000	1.237562
3404.000000	1.237752
3402.000000	1.237929
3400.000000	1.238098
3398.000000	1.238233
3396.000000	1.238343
3394.000000	1.238424
3392.000000	1.238546
3390.000000	1.238825
3388.000000	1.239072
3386.000000	1.239177
3384.000000	1.239227
3382.000000	1.239299
3380.000000	1.239473
3378.000000	1.239644
3376.000000	1.239747
3374.000000	1.239873
3372.000000	1.239886
3370.000000	1.239818
3368.000000	1.239870
3366.000000	1.240023
3364.000000	1.240199
3362.000000	1.240299
3360.000000	1.240326
3358.000000	1.240427
3356.000000	1.240551
3354.000000	1.240566
3352.000000	1.240541
3350.000000	1.240623
3348.000000	1.240784
3346.000000	1.240942
3344.000000	1.241047
3342.000000	1.241057
3340.000000	1.241025
3338.000000	1.240988
3336.000000	1.241064
3334.000000	1.241233
3332.000000	1.241328
3330.000000	1.241403
3328.000000	1.241500
3326.000000	1.241612
3324.000000	1.241694
3322.000000	1.241679
3320.000000	1.241651
3318.000000	1.241675
3316.000000	1.241753
3314.000000	1.241869
3312.000000	1.241924
3310.000000	1.241924
3308.000000	1.241871
3306.000000	1.241839
3304.000000	1.241950
3302.000000	1.242078
3300.000000	1.242111
3298.000000	1.242130
3296.000000	1.242164
3294.000000	1.242211
3292.000000	1.242297
3290.000000	1.242432
3288.000000	1.242539
3286.000000	1.242560
3284.000000	1.242553
3282.000000	1.242607
3280.000000	1.242583
3278.000000	1.242507
3276.000000	1.242499
3274.000000	1.242477
3272.000000	1.242455
3270.000000	1.242572
3268.000000	1.242743
3266.000000	1.242815
3264.000000	1.242874
3262.000000	1.242974
3260.000000	1.243052
3258.000000	1.243038
3256.000000	1.243023
3254.000000	1.243092
3252.000000	1.243162
3250.000000	1.243161
3248.000000	1.243117
3246.000000	1.243113
3244.000000	1.243255
3242.000000	1.243409
3240.000000	1.243464
3238.000000	1.243478
3236.000000	1.243422
3234.000000	1.243371
3232.000000	1.243485
3230.000000	1.243709
3228.000000	1.243844
3226.000000	1.243831
3224.000000	1.243795
3222.000000	1.243826
3220.000000	1.243905
3218.000000	1.243998
3216.000000	1.243965
3214.000000	1.243859
3212.000000	1.243903
3210.000000	1.244068
3208.000000	1.244195
3206.000000	1.244198
3204.000000	1.244139
3202.000000	1.244130
3200.000000	1.244206
3198.000000	1.244318
3196.000000	1.244404
3194.000000	1.244450
3192.000000	1.244417
3190.000000	1.244363
3188.000000	1.244340
3186.000000	1.244338
3184.000000	1.244380
3182.000000	1.244427
3180.000000	1.244446
3178.000000	1.244518
3176.000000	1.244634
3174.000000	1.244679
3172.000000	1.244686
3170.000000	1.244728
3168.000000	1.244799
3166.000000	1.244858
3164.000000	1.244817
3162.000000	1.244797
3160.000000	1.244911
3158.000000	1.245013
3156.000000	1.245050
3154.000000	1.244996
3152.000000	1.244965
3150.000000	1.245058
3148.000000	1.245144
3146.000000	1.245182
3144.000000	1.245188
3142.000000	1.245179
3140.000000	1.245228
3138.000000	1.245345
3136.000000	1.245438
3134.000000	1.245517
3132.000000	1.245618
3130.000000	1.245645
3128.000000	1.245591
3126.000000	1.245583
3124.000000	1.245576
3122.000000	1.245537
3120.000000	1.245483
3118.000000	1.245452
3116.000000	1.245552
3114.000000	1.245724
3112.000000	1.245723
3110.000000	1.245606
3108.000000	1.245550
3106.000000	1.245516
3104.000000	1.245493
3102.000000	1.245479
3100.000000	1.245481
3098.000000	1.245452
3096.000000	1.245428
3094.000000	1.245412
3092.000000	1.245328
3090.000000	1.245214
3088.000000	1.245157
3086.000000	1.245116
3084.000000	1.245009
3082.000000	1.244890
3080.000000	1.244889
3078.000000	1.244936
3076.000000	1.244913
3074.000000	1.244746
3072.000000	1.244558
3070.000000	1.244424
3068.000000	1.244380
3066.000000	1.244412
3064.000000	1.244476
3062.000000	1.244508
3060.000000	1.244442
3058.000000	1.244333
3056.000000	1.244265
3054.000000	1.244231
3052.000000	1.244207
3050.000000	1.244225
3048.000000	1.244240
3046.000000	1.244152
3044.000000	1.243985
3042.000000	1.243919
3040.000000	1.243972
3038.000000	1.243969
3036.000000	1.243855
3034.000000	1.243760
3032.000000	1.243802
3030.000000	1.243834
3028.000000	1.243667
3026.000000	1.243451
3024.000000	1.243355
3022.000000	1.243354
3020.000000	1.243431
3018.000000	1.243645
3016.000000	1.243938
3014.000000	1.244176
3012.000000	1.244280
3010.000000	1.244266
3008.000000	1.244121
3006.000000	1.243901
3004.000000	1.243757
3002.000000	1.243629
3000.000000	1.243537
2998.000000	1.243459
2996.000000	1.243339
2994.000000	1.243200
2992.000000	1.243182
2990.000000	1.243212
2988.000000	1.243165
2986.000000	1.243123
2984.000000	1.243077
2982.000000	1.243021
2980.000000	1.242970
2978.000000	1.242911
2976.000000	1.242787
2974.000000	1.242709
2972.000000	1.242700
2970.000000	1.242747
2968.000000	1.242985
2966.000000	1.243463
2964.000000	1.244134
2962.000000	1.244827
2960.000000	1.245278
2958.000000	1.245281
2956.000000	1.244956
2954.000000	1.244474
2952.000000	1.243998
2950.000000	1.243527
2948.000000	1.242965
2946.000000	1.242385
2944.000000	1.241941
2942.000000	1.241607
2940.000000	1.241338
2938.000000	1.241219
2936.000000	1.241349
2934.000000	1.241486
2932.000000	1.241448
2930.000000	1.241354
2928.000000	1.241629
2926.000000	1.242349
2924.000000	1.243262
2922.000000	1.244145
2920.000000	1.244774
2918.000000	1.245007
2916.000000	1.244865
2914.000000	1.244608
2912.000000	1.244320
2910.000000	1.243886
2908.000000	1.243495
2906.000000	1.243316
2904.000000	1.243247
2902.000000	1.243169
2900.000000	1.243036
2898.000000	1.242887
2896.000000	1.242791
2894.000000	1.242700
2892.000000	1.242604
2890.000000	1.242556
2888.000000	1.242444
2886.000000	1.242269
2884.000000	1.242112
2882.000000	1.241902
2880.000000	1.241682
2878.000000	1.241518
2876.000000	1.241334
2874.000000	1.241062
2872.000000	1.240811
2870.000000	1.240524
2868.000000	1.240166
2866.000000	1.239897
2864.000000	1.239953
2862.000000	1.240492
2860.000000	1.241289
2858.000000	1.241864
2856.000000	1.242158
2854.000000	1.242288
2852.000000	1.242491
2850.000000	1.242830
2848.000000	1.243040
2846.000000	1.242917
2844.000000	1.242610
2842.000000	1.242337
2840.000000	1.242094
2838.000000	1.241889
2836.000000	1.241772
2834.000000	1.241662
2832.000000	1.241588
2830.000000	1.241529
2828.000000	1.241463
2826.000000	1.241441
2824.000000	1.241429
2822.000000	1.241366
2820.000000	1.241312
2818.000000	1.241256
2816.000000	1.241189
2814.000000	1.241150
2812.000000	1.241105
2810.000000	1.241013
2808.000000	1.240969
2806.000000	1.240945
2804.000000	1.240917
2802.000000	1.240886
2800.000000	1.240878
2798.000000	1.240901
2796.000000	1.240884
2794.000000	1.240853
2792.000000	1.240829
2790.000000	1.240823
2788.000000	1.240880
2786.000000	1.240896
2784.000000	1.240882
2782.000000	1.240896
2780.000000	1.240877
2778.000000	1.240813
2776.000000	1.240748
2774.000000	1.240676
2772.000000	1.240694
2770.000000	1.240723
2768.000000	1.240660
2766.000000	1.240611
2764.000000	1.240626
2762.000000	1.240647
2760.000000	1.240665
2758.000000	1.240648
2756.000000	1.240640
2754.000000	1.240696
2752.000000	1.240705
2750.000000	1.240624
2748.000000	1.240637
2746.000000	1.240694
2744.000000	1.240726
2742.000000	1.240750
2740.000000	1.240796
2738.000000	1.240803
2736.000000	1.240826
2734.000000	1.240891
2732.000000	1.240915
2730.000000	1.240865
2728.000000	1.240837
2726.000000	1.240873
2724.000000	1.240959
2722.000000	1.241040
2720.000000	1.241083
2718.000000	1.241072
2716.000000	1.241139
2714.000000	1.241335
2712.000000	1.241471
2710.000000	1.241462
2708.000000	1.241444
2706.000000	1.241506
2704.000000	1.241585
2702.000000	1.241695
2700.000000	1.241798
2698.000000	1.241859
2696.000000	1.241943
2694.000000	1.242005
2692.000000	1.242052
2690.000000	1.242120
2688.000000	1.242241
2686.000000	1.242370
2684.000000	1.242421
2682.000000	1.242429
2680.000000	1.242500
2678.000000	1.242577
2676.000000	1.242634
2674.000000	1.242700
2672.000000	1.242770
2670.000000	1.242857
2668.000000	1.242951
2666.000000	1.243050
2664.000000	1.243177
2662.000000	1.243267
2660.000000	1.243311
2658.000000	1.243348
2656.000000	1.243389
2654.000000	1.243452
2652.000000	1.243566
2650.000000	1.243655
2648.000000	1.243716
2646.000000	1.243735
2644.000000	1.243749
2642.000000	1.243786
2640.000000	1.243812
2638.000000	1.243791
2636.000000	1.243785
2634.000000	1.243835
2632.000000	1.243872
2630.000000	1.243888
2628.000000	1.243930
2626.000000	1.243924
2624.000000	1.243906
2622.000000	1.243905
2620.000000	1.243970
2618.000000	1.244032
2616.000000	1.244025
2614.000000	1.244018
2612.000000	1.244052
2610.000000	1.244090
2608.000000	1.244123
2606.000000	1.244138
2604.000000	1.244143
2602.000000	1.244134
2600.000000	1.244178
2598.000000	1.244220
2596.000000	1.244176
2594.000000	1.244148
2592.000000	1.244222
2590.000000	1.244292
2588.000000	1.244369
2586.000000	1.244376
2584.000000	1.244346
2582.000000	1.244368
2580.000000	1.244372
2578.000000	1.244325
2576.000000	1.244393
2574.000000	1.244468
2572.000000	1.244439
2570.000000	1.244397
2568.000000	1.244435
2566.000000	1.244471
2564.000000	1.244448
2562.000000	1.244423
2560.000000	1.244465
2558.000000	1.244555
2556.000000	1.244561
2554.000000	1.244467
2552.000000	1.244435
2550.000000	1.244464
2548.000000	1.244481
2546.000000	1.244479
2544.000000	1.244496
2542.000000	1.244460
2540.000000	1.244391
2538.000000	1.244371
2536.000000	1.244414
2534.000000	1.244420
2532.000000	1.244374
2530.000000	1.244359
2528.000000	1.244350
2526.000000	1.244331
2524.000000	1.244374
2522.000000	1.244384
2520.000000	1.244373
2518.000000	1.244361
2516.000000	1.244348
2514.000000	1.244313
2512.000000	1.244284
2510.000000	1.244287
2508.000000	1.244293
2506.000000	1.244306
2504.000000	1.244256
2502.000000	1.244203
2500.000000	1.244275
2498.000000	1.244337
2496.000000	1.244314
2494.000000	1.244267
2492.000000	1.244278
2490.000000	1.244301
2488.000000	1.244280
2486.000000	1.244232
2484.000000	1.244203
2482.000000	1.244226
2480.000000	1.244224
2478.000000	1.244202
2476.000000	1.244196
2474.000000	1.244210
2472.000000	1.244253
2470.000000	1.244265
2468.000000	1.244243
2466.000000	1.244232
2464.000000	1.244249
2462.000000	1.244252
2460.000000	1.244273
2458.000000	1.244245
2456.000000	1.244217
2454.000000	1.244236
2452.000000	1.244258
2450.000000	1.244262
2448.000000	1.244254
2446.000000	1.244210
2444.000000	1.244196
2442.000000	1.244180
2440.000000	1.244144
2438.000000	1.244159
2436.000000	1.244171
2434.000000	1.244150
2432.000000	1.244175
2430.000000	1.244187
2428.000000	1.244184
2426.000000	1.244176
2424.000000	1.244168
2422.000000	1.244138
2420.000000	1.244120
2418.000000	1.244095
2416.000000	1.244090
2414.000000	1.244132
2412.000000	1.244091
2410.000000	1.243974
2408.000000	1.243961
2406.000000	1.243933
2404.000000	1.243920
2402.000000	1.243980
2400.000000	1.244037
2398.000000	1.243984
2396.000000	1.243915
2394.000000	1.243858
2392.000000	1.243877
2390.000000	1.243921
2388.000000	1.243852
2386.000000	1.243743
2384.000000	1.243647
2382.000000	1.243528
2380.000000	1.243389
2378.000000	1.243207
2376.000000	1.242924
2374.000000	1.242521
2372.000000	1.242122
2370.000000	1.241788
2368.000000	1.241564
2366.000000	1.241428
2364.000000	1.241463
2362.000000	1.241596
2360.000000	1.241820
2358.000000	1.242170
2356.000000	1.242605
2354.000000	1.243093
2352.000000	1.243535
2350.000000	1.243473
2348.000000	1.242795
2346.000000	1.242256
2344.000000	1.242416
2342.000000	1.243117
2340.000000	1.243857
2338.000000	1.243986
2336.000000	1.243551
2334.000000	1.243067
2332.000000	1.242832
2330.000000	1.242819
2328.000000	1.242899
2326.000000	1.242949
2324.000000	1.243036
2322.000000	1.243158
2320.000000	1.243247
2318.000000	1.243294
2316.000000	1.243403
2314.000000	1.243516
2312.000000	1.243612
2310.000000	1.243631
2308.000000	1.243670
2306.000000	1.243662
2304.000000	1.243624
2302.000000	1.243640
2300.000000	1.243695
2298.000000	1.243703
2296.000000	1.243710
2294.000000	1.243682
2292.000000	1.243710
2290.000000	1.243752
2288.000000	1.243778
2286.000000	1.243801
2284.000000	1.243768
2282.000000	1.243725
2280.000000	1.243764
2278.000000	1.243800
2276.000000	1.243810
2274.000000	1.243809
2272.000000	1.243814
2270.000000	1.243830
2268.000000	1.243834
2266.000000	1.243786
2264.000000	1.243770
2262.000000	1.243718
2260.000000	1.243662
2258.000000	1.243605
2256.000000	1.243632
2254.000000	1.243671
2252.000000	1.243622
2250.000000	1.243560
2248.000000	1.243576
2246.000000	1.243551
2244.000000	1.243536
2242.000000	1.243508
2240.000000	1.243485
2238.000000	1.243442
2236.000000	1.243400
2234.000000	1.243348
2232.000000	1.243337
2230.000000	1.243314
2228.000000	1.243280
2226.000000	1.243251
2224.000000	1.243244
2222.000000	1.243196
2220.000000	1.243142
2218.000000	1.243069
2216.000000	1.243017
2214.000000	1.243007
2212.000000	1.243011
2210.000000	1.242955
2208.000000	1.242890
2206.000000	1.242788
2204.000000	1.242728
2202.000000	1.242725
2200.000000	1.242761
2198.000000	1.242729
2196.000000	1.242672
2194.000000	1.242567
2192.000000	1.242523
2190.000000	1.242520
2188.000000	1.242474
2186.000000	1.242419
2184.000000	1.242421
2182.000000	1.242379
2180.000000	1.242346
2178.000000	1.242261
2176.000000	1.242228
2174.000000	1.242204
2172.000000	1.242106
2170.000000	1.242015
2168.000000	1.242041
2166.000000	1.242018
2164.000000	1.241979
2162.000000	1.241884
2160.000000	1.241789
2158.000000	1.241724
2156.000000	1.241727
2154.000000	1.241689
2152.000000	1.241608
2150.000000	1.241538
2148.000000	1.241498
2146.000000	1.241432
2144.000000	1.241384
2142.000000	1.241350
2140.000000	1.241295
2138.000000	1.241194
2136.000000	1.241154
2134.000000	1.241088
2132.000000	1.241004
2130.000000	1.240961
2128.000000	1.240959
2126.000000	1.240906
2124.000000	1.240854
2122.000000	1.240770
2120.000000	1.240716
2118.000000	1.240666
2116.000000	1.240604
2114.000000	1.240554
2112.000000	1.240548
2110.000000	1.240492
2108.000000	1.240416
2106.000000	1.240360
2104.000000	1.240342
2102.000000	1.240339
2100.000000	1.240337
2098.000000	1.240290
2096.000000	1.240267
2094.000000	1.240173
2092.000000	1.240067
2090.000000	1.240030
2088.000000	1.240024
2086.000000	1.239962
2084.000000	1.239912
2082.000000	1.239826
2080.000000	1.239791
2078.000000	1.239796
2076.000000	1.239827
2074.000000	1.239785
2072.000000	1.239732
2070.000000	1.239709
2068.000000	1.239708
2066.000000	1.239607
2064.000000	1.239583
2062.000000	1.239535
2060.000000	1.239449
2058.000000	1.239407
2056.000000	1.239383
2054.000000	1.239344
2052.000000	1.239330
2050.000000	1.239297
2048.000000	1.239298
2046.000000	1.239277
2044.000000	1.239203
2042.000000	1.239101
2040.000000	1.239074
2038.000000	1.239010
2036.000000	1.238962
2034.000000	1.238926
2032.000000	1.238912
2030.000000	1.238893
2028.000000	1.238937
2026.000000	1.238822
2024.000000	1.238745
2022.000000	1.238751
2020.000000	1.238643
2018.000000	1.238497
2016.000000	1.238574
2014.000000	1.238618
2012.000000	1.238605
2010.000000	1.238560
2008.000000	1.238539
2006.000000	1.238516
2004.000000	1.238505
2002.000000	1.238494
2000.000000	1.238467
1998.000000	1.238418
1996.000000	1.238356
1994.000000	1.238038
1992.000000	1.237983
1990.000000	1.238194
1988.000000	1.238238
1986.000000	1.238207
1984.000000	1.238158
1982.000000	1.238121
1980.000000	1.238121
1978.000000	1.238112
1976.000000	1.238132
1974.000000	1.238126
1972.000000	1.238111
1970.000000	1.237994
1968.000000	1.237840
1966.000000	1.237958
1964.000000	1.238069
1962.000000	1.237948
1960.000000	1.237868
1958.000000	1.238086
1956.000000	1.238091
1954.000000	1.237934
1952.000000	1.237988
1950.000000	1.238023
1948.000000	1.238010
1946.000000	1.237809
1944.000000	1.237472
1942.000000	1.237631
1940.000000	1.238006
1938.000000	1.237945
1936.000000	1.237951
1934.000000	1.238035
1932.000000	1.238067
1930.000000	1.237974
1928.000000	1.237980
1926.000000	1.237861
1924.000000	1.237649
1922.000000	1.237685
1920.000000	1.237292
1918.000000	1.237287
1916.000000	1.238188
1914.000000	1.238286
1912.000000	1.238098
1910.000000	1.237887
1908.000000	1.238041
1906.000000	1.238199
1904.000000	1.238265
1902.000000	1.238216
1900.000000	1.238239
1898.000000	1.238104
1896.000000	1.238034
1894.000000	1.238092
1892.000000	1.237852
1890.000000	1.237585
1888.000000	1.238104
1886.000000	1.238207
1884.000000	1.238217
1882.000000	1.238204
1880.000000	1.238263
1878.000000	1.238278
1876.000000	1.238286
1874.000000	1.238159
1872.000000	1.237490
1870.000000	1.236582
1868.000000	1.237381
1866.000000	1.238184
1864.000000	1.238134
1862.000000	1.237947
1860.000000	1.238028
1858.000000	1.238087
1856.000000	1.238170
1854.000000	1.238112
1852.000000	1.238128
1850.000000	1.237917
1848.000000	1.237352
1846.000000	1.235672
1844.000000	1.236018
1842.000000	1.238124
1840.000000	1.238211
1838.000000	1.237872
1836.000000	1.237945
1834.000000	1.237761
1832.000000	1.236752
1830.000000	1.236589
1828.000000	1.237433
1826.000000	1.237099
1824.000000	1.237731
1822.000000	1.238297
1820.000000	1.238224
1818.000000	1.238103
1816.000000	1.238289
1814.000000	1.238084
1812.000000	1.237680
1810.000000	1.237827
1808.000000	1.238239
1806.000000	1.238148
1804.000000	1.237625
1802.000000	1.236981
1800.000000	1.237390
1798.000000	1.237883
1796.000000	1.237274
1794.000000	1.235410
1792.000000	1.236008
1790.000000	1.238055
1788.000000	1.238084
1786.000000	1.237377
1784.000000	1.237695
1782.000000	1.237658
1780.000000	1.237790
1778.000000	1.238007
1776.000000	1.236807
1774.000000	1.234249
1772.000000	1.235075
1770.000000	1.237128
1768.000000	1.237501
1766.000000	1.238414
1764.000000	1.237293
1762.000000	1.236810
1760.000000	1.237857
1758.000000	1.237463
1756.000000	1.237822
1754.000000	1.237117
1752.000000	1.235168
1750.000000	1.236376
1748.000000	1.237716
1746.000000	1.238047
1744.000000	1.237805
1742.000000	1.236952
1740.000000	1.236784
1738.000000	1.237341
1736.000000	1.233130
1734.000000	1.232807
1732.000000	1.238143
1730.000000	1.239138
1728.000000	1.239228
1726.000000	1.239177
1724.000000	1.239159
1722.000000	1.238661
1720.000000	1.235145
1718.000000	1.232768
1716.000000	1.236497
1714.000000	1.239072
1712.000000	1.239748
1710.000000	1.239189
1708.000000	1.238323
1706.000000	1.237612
1704.000000	1.237420
1702.000000	1.232583
1700.000000	1.232893
1698.000000	1.234747
1696.000000	1.234572
1694.000000	1.239935
1692.000000	1.240587
1690.000000	1.239489
1688.000000	1.237474
1686.000000	1.232134
1684.000000	1.234364
1682.000000	1.240182
1680.000000	1.240333
1678.000000	1.238783
1676.000000	1.236981
1674.000000	1.238846
1672.000000	1.238407
1670.000000	1.237462
1668.000000	1.239899
1666.000000	1.240619
1664.000000	1.239045
1662.000000	1.239958
1660.000000	1.241219
1658.000000	1.240388
1656.000000	1.234672
1654.000000	1.228192
1652.000000	1.235429
1650.000000	1.240492
1648.000000	1.236709
1646.000000	1.237774
1644.000000	1.241409
1642.000000	1.241672
1640.000000	1.240625
1638.000000	1.237427
1636.000000	1.235936
1634.000000	1.240495
1632.000000	1.242220
1630.000000	1.241051
1628.000000	1.240687
1626.000000	1.240241
1624.000000	1.239390
1622.000000	1.240708
1620.000000	1.239934
1618.000000	1.236412
1616.000000	1.238513
1614.000000	1.241875
1612.000000	1.241378
1610.000000	1.241496
1608.000000	1.242163
1606.000000	1.242836
1604.000000	1.242981
1602.000000	1.243148
1600.000000	1.243176
1598.000000	1.243199
1596.000000	1.242982
1594.000000	1.242964
1592.000000	1.242920
1590.000000	1.242879
1588.000000	1.242855
1586.000000	1.242910
1584.000000	1.242963
1582.000000	1.243046
1580.000000	1.242071
1578.000000	1.238165
1576.000000	1.238463
1574.000000	1.242980
1572.000000	1.241498
1570.000000	1.240204
1568.000000	1.241937
1566.000000	1.242303
1564.000000	1.241353
1562.000000	1.236136
1560.000000	1.230462
1558.000000	1.235986
1556.000000	1.240616
1554.000000	1.241440
1552.000000	1.242567
1550.000000	1.242554
1548.000000	1.242394
1546.000000	1.240616
1544.000000	1.238252
1542.000000	1.234583
1540.000000	1.234499
1538.000000	1.240942
1536.000000	1.242221
1534.000000	1.240461
1532.000000	1.242176
1530.000000	1.242255
1528.000000	1.240709
1526.000000	1.239949
1524.000000	1.238349
1522.000000	1.236223
1520.000000	1.239000
1518.000000	1.240221
1516.000000	1.240814
1514.000000	1.241518
1512.000000	1.241070
1510.000000	1.238701
1508.000000	1.233685
1506.000000	1.235691
1504.000000	1.241284
1502.000000	1.240384
1500.000000	1.236999
1498.000000	1.234628
1496.000000	1.237409
1494.000000	1.242806
1492.000000	1.243884
1490.000000	1.243798
1488.000000	1.244454
1486.000000	1.244672
1484.000000	1.244296
1482.000000	1.243549
1480.000000	1.243227
1478.000000	1.241927
1476.000000	1.240189
1474.000000	1.238283
1472.000000	1.239836
1470.000000	1.242629
1468.000000	1.242106
1466.000000	1.240511
1464.000000	1.241381
1462.000000	1.241885
1460.000000	1.238291
1458.000000	1.234056
1456.000000	1.237176
1454.000000	1.241210
1452.000000	1.241849
1450.000000	1.242806
1448.000000	1.243417
1446.000000	1.243745
1444.000000	1.243149
1442.000000	1.242806
1440.000000	1.241541
1438.000000	1.238979
1436.000000	1.240222
1434.000000	1.242507
1432.000000	1.241762
1430.000000	1.241674
1428.000000	1.242124
1426.000000	1.241903
1424.000000	1.241533
1422.000000	1.240273
1420.000000	1.238275
1418.000000	1.240461
1416.000000	1.242142
1414.000000	1.242132
1412.000000	1.241767
1410.000000	1.241503
1408.000000	1.240954
1406.000000	1.240698
1404.000000	1.241544
1402.000000	1.242194
1400.000000	1.241706
1398.000000	1.241871
1396.000000	1.241179
1394.000000	1.241488
1392.000000	1.242252
1390.000000	1.241325
1388.000000	1.240290
1386.000000	1.241165
1384.000000	1.242120
1382.000000	1.242425
1380.000000	1.242084
1378.000000	1.241632
1376.000000	1.241029
1374.000000	1.241121
1372.000000	1.241677
1370.000000	1.241542
1368.000000	1.241440
1366.000000	1.241245
1364.000000	1.240533
1362.000000	1.240643
1360.000000	1.241157
1358.000000	1.241236
1356.000000	1.241078
1354.000000	1.241125
1352.000000	1.241140
1350.000000	1.241067
1348.000000	1.241030
1346.000000	1.240984
1344.000000	1.240810
1342.000000	1.240473
1340.000000	1.240232
1338.000000	1.240599
1336.000000	1.240842
1334.000000	1.240878
1332.000000	1.240760
1330.000000	1.240630
1328.000000	1.240528
1326.000000	1.240561
1324.000000	1.240486
1322.000000	1.240351
1320.000000	1.240134
1318.000000	1.240083
1316.000000	1.240067
1314.000000	1.239982
1312.000000	1.239880
1310.000000	1.239837
1308.000000	1.239801
1306.000000	1.239808
1304.000000	1.239725
1302.000000	1.239650
1300.000000	1.239533
1298.000000	1.239489
1296.000000	1.239476
1294.000000	1.239490
1292.000000	1.239426
1290.000000	1.239402
1288.000000	1.239334
1286.000000	1.239303
1284.000000	1.239284
1282.000000	1.239355
1280.000000	1.239364
1278.000000	1.239433
1276.000000	1.239506
1274.000000	1.239566
1272.000000	1.239583
1270.000000	1.239763
1268.000000	1.240269
1266.000000	1.241514
1264.000000	1.243587
1262.000000	1.246228
1260.000000	1.248317
1258.000000	1.248934
1256.000000	1.247917
1254.000000	1.246049
1252.000000	1.244212
1250.000000	1.243130
1248.000000	1.242727
1246.000000	1.242604
1244.000000	1.242586
1242.000000	1.242800
1240.000000	1.242952
1238.000000	1.243212
1236.000000	1.243555
1234.000000	1.243836
1232.000000	1.243926
1230.000000	1.244140
1228.000000	1.244381
1226.000000	1.244624
1224.000000	1.244901
1222.000000	1.245155
1220.000000	1.245345
1218.000000	1.245660
1216.000000	1.245909
1214.000000	1.246178
1212.000000	1.246390
1210.000000	1.246620
1208.000000	1.246896
1206.000000	1.247218
1204.000000	1.247391
1202.000000	1.247618
1200.000000	1.247974
1198.000000	1.248315
1196.000000	1.248540
1194.000000	1.248867
1192.000000	1.249105
1190.000000	1.249453
1188.000000	1.249873
1186.000000	1.250156
1184.000000	1.250047
1182.000000	1.250210
1180.000000	1.251283
1178.000000	1.252139
1176.000000	1.252253
1174.000000	1.252446
1172.000000	1.252668
1170.000000	1.252976
1168.000000	1.253307
1166.000000	1.253771
1164.000000	1.254271
1162.000000	1.254628
1160.000000	1.254921
1158.000000	1.255439
1156.000000	1.255709
1154.000000	1.255828
1152.000000	1.256154
1150.000000	1.256582
1148.000000	1.256670
1146.000000	1.256878
1144.000000	1.257167
1142.000000	1.257796
1140.000000	1.258341
1138.000000	1.258410
1136.000000	1.258542
1134.000000	1.258875
1132.000000	1.259108
1130.000000	1.259262
1128.000000	1.259523
1126.000000	1.259863
1124.000000	1.259959
1122.000000	1.260144
1120.000000	1.260473
1118.000000	1.260788
1116.000000	1.260933
1114.000000	1.261203
1112.000000	1.261593
1110.000000	1.262105
1108.000000	1.262536
1106.000000	1.263067
1104.000000	1.263699
1102.000000	1.264239
1100.000000	1.264614
1098.000000	1.265089
1096.000000	1.265472
1094.000000	1.265932
1092.000000	1.266254
1090.000000	1.266161
1088.000000	1.265959
1086.000000	1.266115
1084.000000	1.266077
1082.000000	1.265944
1080.000000	1.265419
1078.000000	1.264904
1076.000000	1.264759
1074.000000	1.264763
1072.000000	1.264272
1070.000000	1.263903
1068.000000	1.263629
1066.000000	1.263252
1064.000000	1.262576
1062.000000	1.262144
1060.000000	1.261760
1058.000000	1.261163
1056.000000	1.260312
1054.000000	1.258862
1052.000000	1.258437
1050.000000	1.259965
1048.000000	1.261116
1046.000000	1.260565
1044.000000	1.259457
1042.000000	1.258575
1040.000000	1.257637
1038.000000	1.257565
1036.000000	1.257753
1034.000000	1.257432
1032.000000	1.256320
1030.000000	1.255597
1028.000000	1.255129
1026.000000	1.254856
1024.000000	1.254912
1022.000000	1.254917
1020.000000	1.254313
1018.000000	1.253617
1016.000000	1.252840
1014.000000	1.251845
1012.000000	1.250325
1010.000000	1.248289
1008.000000	1.246127
1006.000000	1.244576
1004.000000	1.242455
1002.000000	1.238375
1000.000000	1.237669
