PE IR       SUBTECH     SPECTRUM    ASCII       PEDS        4.00        
   -1
TE110A_053_120K.ASC
20/05/14
14:08:09.00
20/05/14
14:08:09.00
Administrator
TE110A.Thursday, May 14 2020, 001.
1000.000000
#HDR
-1
-1
#GR
cm-1
A
1.0
0.0
6000.000000
-2.000000
2501
8
1.268119
1.218011
#DATA
6000.000000	1.251406
5998.000000	1.251723
5996.000000	1.251633
5994.000000	1.251383
5992.000000	1.250951
5990.000000	1.250925
5988.000000	1.250964
5986.000000	1.250728
5984.000000	1.250763
5982.000000	1.250692
5980.000000	1.250844
5978.000000	1.251032
5976.000000	1.251318
5974.000000	1.251350
5972.000000	1.250853
5970.000000	1.250078
5968.000000	1.249962
5966.000000	1.250406
5964.000000	1.250760
5962.000000	1.250834
5960.000000	1.250681
5958.000000	1.250404
5956.000000	1.250159
5954.000000	1.249822
5952.000000	1.249756
5950.000000	1.249778
5948.000000	1.249957
5946.000000	1.250189
5944.000000	1.250337
5942.000000	1.250500
5940.000000	1.250463
5938.000000	1.250473
5936.000000	1.250609
5934.000000	1.250595
5932.000000	1.250166
5930.000000	1.249610
5928.000000	1.249422
5926.000000	1.249747
5924.000000	1.250074
5922.000000	1.249771
5920.000000	1.249761
5918.000000	1.250192
5916.000000	1.250211
5914.000000	1.250045
5912.000000	1.249676
5910.000000	1.249537
5908.000000	1.249595
5906.000000	1.249752
5904.000000	1.250041
5902.000000	1.250480
5900.000000	1.250498
5898.000000	1.250112
5896.000000	1.249700
5894.000000	1.249779
5892.000000	1.249990
5890.000000	1.250064
5888.000000	1.249382
5886.000000	1.248278
5884.000000	1.247820
5882.000000	1.247936
5880.000000	1.248861
5878.000000	1.249054
5876.000000	1.248719
5874.000000	1.248497
5872.000000	1.248749
5870.000000	1.249188
5868.000000	1.249271
5866.000000	1.249007
5864.000000	1.248614
5862.000000	1.248105
5860.000000	1.247989
5858.000000	1.248171
5856.000000	1.248430
5854.000000	1.248443
5852.000000	1.248236
5850.000000	1.248067
5848.000000	1.247809
5846.000000	1.247724
5844.000000	1.247827
5842.000000	1.248439
5840.000000	1.249002
5838.000000	1.249003
5836.000000	1.248611
5834.000000	1.248312
5832.000000	1.247842
5830.000000	1.247502
5828.000000	1.247538
5826.000000	1.248146
5824.000000	1.248657
5822.000000	1.248487
5820.000000	1.248171
5818.000000	1.247944
5816.000000	1.247836
5814.000000	1.247964
5812.000000	1.248423
5810.000000	1.248670
5808.000000	1.248437
5806.000000	1.248069
5804.000000	1.247816
5802.000000	1.247777
5800.000000	1.247796
5798.000000	1.248040
5796.000000	1.248552
5794.000000	1.248995
5792.000000	1.248895
5790.000000	1.248445
5788.000000	1.248124
5786.000000	1.247953
5784.000000	1.247815
5782.000000	1.247666
5780.000000	1.247578
5778.000000	1.247571
5776.000000	1.247673
5774.000000	1.247851
5772.000000	1.248042
5770.000000	1.248201
5768.000000	1.247980
5766.000000	1.247559
5764.000000	1.247506
5762.000000	1.247981
5760.000000	1.248321
5758.000000	1.247746
5756.000000	1.246915
5754.000000	1.246592
5752.000000	1.247065
5750.000000	1.247513
5748.000000	1.247561
5746.000000	1.247426
5744.000000	1.247000
5742.000000	1.246546
5740.000000	1.246267
5738.000000	1.246172
5736.000000	1.246578
5734.000000	1.246986
5732.000000	1.247314
5730.000000	1.247386
5728.000000	1.246926
5726.000000	1.246472
5724.000000	1.246514
5722.000000	1.246774
5720.000000	1.246847
5718.000000	1.246641
5716.000000	1.246689
5714.000000	1.246900
5712.000000	1.246945
5710.000000	1.246915
5708.000000	1.247116
5706.000000	1.247185
5704.000000	1.246798
5702.000000	1.246196
5700.000000	1.245996
5698.000000	1.246174
5696.000000	1.246568
5694.000000	1.246668
5692.000000	1.246630
5690.000000	1.246275
5688.000000	1.245767
5686.000000	1.245586
5684.000000	1.245739
5682.000000	1.245572
5680.000000	1.245200
5678.000000	1.245236
5676.000000	1.245940
5674.000000	1.246450
5672.000000	1.246312
5670.000000	1.245876
5668.000000	1.245759
5666.000000	1.245728
5664.000000	1.245433
5662.000000	1.245239
5660.000000	1.245230
5658.000000	1.245653
5656.000000	1.245972
5654.000000	1.246051
5652.000000	1.246244
5650.000000	1.246471
5648.000000	1.246646
5646.000000	1.246402
5644.000000	1.245855
5642.000000	1.245296
5640.000000	1.245284
5638.000000	1.245399
5636.000000	1.245725
5634.000000	1.245739
5632.000000	1.245640
5630.000000	1.245389
5628.000000	1.245238
5626.000000	1.245552
5624.000000	1.245757
5622.000000	1.245645
5620.000000	1.245521
5618.000000	1.245662
5616.000000	1.245920
5614.000000	1.245704
5612.000000	1.245344
5610.000000	1.245156
5608.000000	1.245165
5606.000000	1.245306
5604.000000	1.245389
5602.000000	1.245539
5600.000000	1.245338
5598.000000	1.244931
5596.000000	1.244707
5594.000000	1.244521
5592.000000	1.244660
5590.000000	1.244860
5588.000000	1.245134
5586.000000	1.245141
5584.000000	1.244861
5582.000000	1.244827
5580.000000	1.244876
5578.000000	1.245069
5576.000000	1.244953
5574.000000	1.244854
5572.000000	1.244871
5570.000000	1.244748
5568.000000	1.244451
5566.000000	1.244134
5564.000000	1.244209
5562.000000	1.244303
5560.000000	1.244250
5558.000000	1.244234
5556.000000	1.244156
5554.000000	1.243940
5552.000000	1.243763
5550.000000	1.243948
5548.000000	1.244325
5546.000000	1.244404
5544.000000	1.244317
5542.000000	1.244235
5540.000000	1.244146
5538.000000	1.244099
5536.000000	1.244041
5534.000000	1.244182
5532.000000	1.244225
5530.000000	1.244006
5528.000000	1.243948
5526.000000	1.244089
5524.000000	1.244481
5522.000000	1.244688
5520.000000	1.244557
5518.000000	1.244217
5516.000000	1.244115
5514.000000	1.244177
5512.000000	1.244164
5510.000000	1.243728
5508.000000	1.243611
5506.000000	1.243637
5504.000000	1.243554
5502.000000	1.243353
5500.000000	1.243247
5498.000000	1.243217
5496.000000	1.243010
5494.000000	1.242841
5492.000000	1.242929
5490.000000	1.243035
5488.000000	1.242996
5486.000000	1.243135
5484.000000	1.243548
5482.000000	1.243734
5480.000000	1.243241
5478.000000	1.242642
5476.000000	1.242574
5474.000000	1.242957
5472.000000	1.243066
5470.000000	1.242836
5468.000000	1.242652
5466.000000	1.242795
5464.000000	1.243137
5462.000000	1.243225
5460.000000	1.243187
5458.000000	1.243365
5456.000000	1.243350
5454.000000	1.243034
5452.000000	1.242619
5450.000000	1.242494
5448.000000	1.242600
5446.000000	1.242635
5444.000000	1.242792
5442.000000	1.243168
5440.000000	1.243374
5438.000000	1.243073
5436.000000	1.242616
5434.000000	1.242380
5432.000000	1.242260
5430.000000	1.242147
5428.000000	1.242486
5426.000000	1.242986
5424.000000	1.243225
5422.000000	1.243178
5420.000000	1.243150
5418.000000	1.242671
5416.000000	1.241911
5414.000000	1.241678
5412.000000	1.242293
5410.000000	1.243104
5408.000000	1.243246
5406.000000	1.242786
5404.000000	1.242561
5402.000000	1.242799
5400.000000	1.242775
5398.000000	1.241844
5396.000000	1.241146
5394.000000	1.241574
5392.000000	1.242413
5390.000000	1.242437
5388.000000	1.241881
5386.000000	1.241705
5384.000000	1.242071
5382.000000	1.242395
5380.000000	1.242124
5378.000000	1.241647
5376.000000	1.241573
5374.000000	1.241922
5372.000000	1.241870
5370.000000	1.241473
5368.000000	1.241156
5366.000000	1.241313
5364.000000	1.241595
5362.000000	1.241962
5360.000000	1.242022
5358.000000	1.241638
5356.000000	1.241274
5354.000000	1.241319
5352.000000	1.241562
5350.000000	1.241591
5348.000000	1.241416
5346.000000	1.241275
5344.000000	1.241350
5342.000000	1.241383
5340.000000	1.241411
5338.000000	1.241464
5336.000000	1.241540
5334.000000	1.241480
5332.000000	1.241260
5330.000000	1.241101
5328.000000	1.241253
5326.000000	1.241823
5324.000000	1.242278
5322.000000	1.242158
5320.000000	1.241611
5318.000000	1.241222
5316.000000	1.241170
5314.000000	1.241122
5312.000000	1.241119
5310.000000	1.241273
5308.000000	1.241584
5306.000000	1.241572
5304.000000	1.241267
5302.000000	1.241083
5300.000000	1.241250
5298.000000	1.241489
5296.000000	1.241656
5294.000000	1.241458
5292.000000	1.241110
5290.000000	1.241048
5288.000000	1.241090
5286.000000	1.240961
5284.000000	1.240704
5282.000000	1.240974
5280.000000	1.241369
5278.000000	1.241429
5276.000000	1.241165
5274.000000	1.240820
5272.000000	1.240595
5270.000000	1.240677
5268.000000	1.240769
5266.000000	1.240539
5264.000000	1.240147
5262.000000	1.240277
5260.000000	1.240722
5258.000000	1.240738
5256.000000	1.240486
5254.000000	1.240384
5252.000000	1.240491
5250.000000	1.240568
5248.000000	1.240496
5246.000000	1.240447
5244.000000	1.240639
5242.000000	1.240989
5240.000000	1.241146
5238.000000	1.240879
5236.000000	1.240463
5234.000000	1.240300
5232.000000	1.240576
5230.000000	1.240910
5228.000000	1.240792
5226.000000	1.240527
5224.000000	1.240583
5222.000000	1.240825
5220.000000	1.240870
5218.000000	1.240697
5216.000000	1.240568
5214.000000	1.240427
5212.000000	1.240189
5210.000000	1.239935
5208.000000	1.240059
5206.000000	1.240556
5204.000000	1.240936
5202.000000	1.240868
5200.000000	1.240479
5198.000000	1.240172
5196.000000	1.240199
5194.000000	1.240431
5192.000000	1.240498
5190.000000	1.240342
5188.000000	1.240155
5186.000000	1.240158
5184.000000	1.240279
5182.000000	1.240327
5180.000000	1.240182
5178.000000	1.240117
5176.000000	1.240179
5174.000000	1.240228
5172.000000	1.240209
5170.000000	1.240289
5168.000000	1.240309
5166.000000	1.240204
5164.000000	1.240225
5162.000000	1.240257
5160.000000	1.240272
5158.000000	1.240341
5156.000000	1.240558
5154.000000	1.240496
5152.000000	1.240138
5150.000000	1.240177
5148.000000	1.240575
5146.000000	1.240652
5144.000000	1.240359
5142.000000	1.240306
5140.000000	1.240445
5138.000000	1.240309
5136.000000	1.240110
5134.000000	1.240030
5132.000000	1.239950
5130.000000	1.239852
5128.000000	1.239876
5126.000000	1.239909
5124.000000	1.239954
5122.000000	1.240170
5120.000000	1.240393
5118.000000	1.240362
5116.000000	1.240155
5114.000000	1.240026
5112.000000	1.240079
5110.000000	1.240188
5108.000000	1.240230
5106.000000	1.240108
5104.000000	1.239877
5102.000000	1.239933
5100.000000	1.240305
5098.000000	1.240491
5096.000000	1.240228
5094.000000	1.239941
5092.000000	1.239952
5090.000000	1.240112
5088.000000	1.240228
5086.000000	1.240216
5084.000000	1.239961
5082.000000	1.239827
5080.000000	1.239942
5078.000000	1.239994
5076.000000	1.239857
5074.000000	1.239826
5072.000000	1.240040
5070.000000	1.240053
5068.000000	1.239845
5066.000000	1.239770
5064.000000	1.239906
5062.000000	1.239973
5060.000000	1.239937
5058.000000	1.239908
5056.000000	1.239940
5054.000000	1.240098
5052.000000	1.240388
5050.000000	1.240627
5048.000000	1.240601
5046.000000	1.240362
5044.000000	1.239972
5042.000000	1.239809
5040.000000	1.239868
5038.000000	1.239930
5036.000000	1.239866
5034.000000	1.239938
5032.000000	1.240036
5030.000000	1.240041
5028.000000	1.239971
5026.000000	1.239953
5024.000000	1.239952
5022.000000	1.239940
5020.000000	1.239881
5018.000000	1.239827
5016.000000	1.239759
5014.000000	1.239722
5012.000000	1.239829
5010.000000	1.239937
5008.000000	1.239876
5006.000000	1.239656
5004.000000	1.239500
5002.000000	1.239475
5000.000000	1.239529
4998.000000	1.239722
4996.000000	1.239846
4994.000000	1.239777
4992.000000	1.239562
4990.000000	1.239455
4988.000000	1.239648
4986.000000	1.239779
4984.000000	1.239697
4982.000000	1.239680
4980.000000	1.239873
4978.000000	1.240081
4976.000000	1.239955
4974.000000	1.239658
4972.000000	1.239593
4970.000000	1.239929
4968.000000	1.240239
4966.000000	1.240223
4964.000000	1.240032
4962.000000	1.239898
4960.000000	1.239891
4958.000000	1.239882
4956.000000	1.239680
4954.000000	1.239467
4952.000000	1.239516
4950.000000	1.239760
4948.000000	1.240036
4946.000000	1.240045
4944.000000	1.239978
4942.000000	1.240075
4940.000000	1.240157
4938.000000	1.239968
4936.000000	1.239791
4934.000000	1.239735
4932.000000	1.239682
4930.000000	1.239671
4928.000000	1.239690
4926.000000	1.239846
4924.000000	1.240073
4922.000000	1.240125
4920.000000	1.239917
4918.000000	1.239835
4916.000000	1.239900
4914.000000	1.240076
4912.000000	1.240163
4910.000000	1.239993
4908.000000	1.239671
4906.000000	1.239646
4904.000000	1.239920
4902.000000	1.240072
4900.000000	1.239908
4898.000000	1.239853
4896.000000	1.239995
4894.000000	1.239977
4892.000000	1.239671
4890.000000	1.239423
4888.000000	1.239364
4886.000000	1.239438
4884.000000	1.239564
4882.000000	1.239583
4880.000000	1.239510
4878.000000	1.239462
4876.000000	1.239482
4874.000000	1.239510
4872.000000	1.239639
4870.000000	1.239782
4868.000000	1.239790
4866.000000	1.239713
4864.000000	1.239703
4862.000000	1.239712
4860.000000	1.239776
4858.000000	1.239997
4856.000000	1.240168
4854.000000	1.240066
4852.000000	1.239794
4850.000000	1.239655
4848.000000	1.239703
4846.000000	1.239860
4844.000000	1.239965
4842.000000	1.239889
4840.000000	1.239725
4838.000000	1.239803
4836.000000	1.240070
4834.000000	1.240147
4832.000000	1.240048
4830.000000	1.239980
4828.000000	1.239831
4826.000000	1.239617
4824.000000	1.239487
4822.000000	1.239478
4820.000000	1.239633
4818.000000	1.239889
4816.000000	1.239876
4814.000000	1.239603
4812.000000	1.239510
4810.000000	1.239601
4808.000000	1.239707
4806.000000	1.239682
4804.000000	1.239562
4802.000000	1.239493
4800.000000	1.239661
4798.000000	1.239840
4796.000000	1.239764
4794.000000	1.239531
4792.000000	1.239418
4790.000000	1.239613
4788.000000	1.239805
4786.000000	1.239733
4784.000000	1.239536
4782.000000	1.239523
4780.000000	1.239711
4778.000000	1.239761
4776.000000	1.239658
4774.000000	1.239646
4772.000000	1.239748
4770.000000	1.239647
4768.000000	1.239422
4766.000000	1.239343
4764.000000	1.239490
4762.000000	1.239726
4760.000000	1.239852
4758.000000	1.239773
4756.000000	1.239649
4754.000000	1.239576
4752.000000	1.239549
4750.000000	1.239586
4748.000000	1.239523
4746.000000	1.239457
4744.000000	1.239593
4742.000000	1.239768
4740.000000	1.239599
4738.000000	1.239458
4736.000000	1.239571
4734.000000	1.239737
4732.000000	1.239711
4730.000000	1.239588
4728.000000	1.239453
4726.000000	1.239464
4724.000000	1.239532
4722.000000	1.239559
4720.000000	1.239584
4718.000000	1.239626
4716.000000	1.239642
4714.000000	1.239647
4712.000000	1.239573
4710.000000	1.239476
4708.000000	1.239577
4706.000000	1.239687
4704.000000	1.239516
4702.000000	1.239284
4700.000000	1.239327
4698.000000	1.239530
4696.000000	1.239637
4694.000000	1.239573
4692.000000	1.239533
4690.000000	1.239678
4688.000000	1.239864
4686.000000	1.239850
4684.000000	1.239530
4682.000000	1.239251
4680.000000	1.239305
4678.000000	1.239526
4676.000000	1.239695
4674.000000	1.239825
4672.000000	1.239820
4670.000000	1.239649
4668.000000	1.239455
4666.000000	1.239412
4664.000000	1.239471
4662.000000	1.239444
4660.000000	1.239426
4658.000000	1.239502
4656.000000	1.239497
4654.000000	1.239414
4652.000000	1.239388
4650.000000	1.239257
4648.000000	1.239147
4646.000000	1.239323
4644.000000	1.239590
4642.000000	1.239718
4640.000000	1.239731
4638.000000	1.239595
4636.000000	1.239354
4634.000000	1.239338
4632.000000	1.239585
4630.000000	1.239620
4628.000000	1.239405
4626.000000	1.239291
4624.000000	1.239385
4622.000000	1.239536
4620.000000	1.239658
4618.000000	1.239524
4616.000000	1.239305
4614.000000	1.239351
4612.000000	1.239396
4610.000000	1.239213
4608.000000	1.239059
4606.000000	1.239099
4604.000000	1.239225
4602.000000	1.239435
4600.000000	1.239495
4598.000000	1.239336
4596.000000	1.239220
4594.000000	1.239318
4592.000000	1.239401
4590.000000	1.239387
4588.000000	1.239340
4586.000000	1.239362
4584.000000	1.239440
4582.000000	1.239458
4580.000000	1.239345
4578.000000	1.239353
4576.000000	1.239444
4574.000000	1.239453
4572.000000	1.239444
4570.000000	1.239562
4568.000000	1.239666
4566.000000	1.239695
4564.000000	1.239692
4562.000000	1.239601
4560.000000	1.239359
4558.000000	1.239234
4556.000000	1.239413
4554.000000	1.239627
4552.000000	1.239652
4550.000000	1.239528
4548.000000	1.239377
4546.000000	1.239346
4544.000000	1.239412
4542.000000	1.239367
4540.000000	1.239215
4538.000000	1.239131
4536.000000	1.239228
4534.000000	1.239332
4532.000000	1.239319
4530.000000	1.239382
4528.000000	1.239615
4526.000000	1.239708
4524.000000	1.239531
4522.000000	1.239354
4520.000000	1.239289
4518.000000	1.239295
4516.000000	1.239305
4514.000000	1.239263
4512.000000	1.239172
4510.000000	1.239153
4508.000000	1.239266
4506.000000	1.239403
4504.000000	1.239400
4502.000000	1.239317
4500.000000	1.239380
4498.000000	1.239509
4496.000000	1.239481
4494.000000	1.239284
4492.000000	1.239108
4490.000000	1.239116
4488.000000	1.239253
4486.000000	1.239346
4484.000000	1.239377
4482.000000	1.239393
4480.000000	1.239400
4478.000000	1.239301
4476.000000	1.239132
4474.000000	1.239037
4472.000000	1.239105
4470.000000	1.239247
4468.000000	1.239341
4466.000000	1.239349
4464.000000	1.239345
4462.000000	1.239397
4460.000000	1.239371
4458.000000	1.239226
4456.000000	1.239196
4454.000000	1.239397
4452.000000	1.239499
4450.000000	1.239370
4448.000000	1.239217
4446.000000	1.239180
4444.000000	1.239177
4442.000000	1.239213
4440.000000	1.239244
4438.000000	1.239204
4436.000000	1.239071
4434.000000	1.239009
4432.000000	1.238989
4430.000000	1.239023
4428.000000	1.239198
4426.000000	1.239452
4424.000000	1.239508
4422.000000	1.239266
4420.000000	1.238947
4418.000000	1.238795
4416.000000	1.238836
4414.000000	1.238977
4412.000000	1.239071
4410.000000	1.238991
4408.000000	1.238906
4406.000000	1.238972
4404.000000	1.239091
4402.000000	1.239090
4400.000000	1.238976
4398.000000	1.238961
4396.000000	1.239059
4394.000000	1.239018
4392.000000	1.238932
4390.000000	1.238994
4388.000000	1.239062
4386.000000	1.239094
4384.000000	1.239201
4382.000000	1.239277
4380.000000	1.239283
4378.000000	1.239183
4376.000000	1.238998
4374.000000	1.238945
4372.000000	1.239003
4370.000000	1.239029
4368.000000	1.239108
4366.000000	1.239140
4364.000000	1.239033
4362.000000	1.238973
4360.000000	1.239006
4358.000000	1.239036
4356.000000	1.239091
4354.000000	1.239127
4352.000000	1.239100
4350.000000	1.239081
4348.000000	1.239038
4346.000000	1.238911
4344.000000	1.238827
4342.000000	1.238967
4340.000000	1.239179
4338.000000	1.239106
4336.000000	1.238771
4334.000000	1.238628
4332.000000	1.238759
4330.000000	1.238846
4328.000000	1.238763
4326.000000	1.238638
4324.000000	1.238642
4322.000000	1.238768
4320.000000	1.238797
4318.000000	1.238776
4316.000000	1.238858
4314.000000	1.238903
4312.000000	1.238799
4310.000000	1.238605
4308.000000	1.238442
4306.000000	1.238443
4304.000000	1.238606
4302.000000	1.238758
4300.000000	1.238733
4298.000000	1.238618
4296.000000	1.238509
4294.000000	1.238478
4292.000000	1.238535
4290.000000	1.238499
4288.000000	1.238401
4286.000000	1.238507
4284.000000	1.238738
4282.000000	1.238826
4280.000000	1.238702
4278.000000	1.238550
4276.000000	1.238496
4274.000000	1.238403
4272.000000	1.238273
4270.000000	1.238268
4268.000000	1.238373
4266.000000	1.238491
4264.000000	1.238561
4262.000000	1.238554
4260.000000	1.238477
4258.000000	1.238420
4256.000000	1.238429
4254.000000	1.238409
4252.000000	1.238309
4250.000000	1.238249
4248.000000	1.238267
4246.000000	1.238219
4244.000000	1.238111
4242.000000	1.238110
4240.000000	1.238192
4238.000000	1.238235
4236.000000	1.238289
4234.000000	1.238330
4232.000000	1.238227
4230.000000	1.238049
4228.000000	1.237959
4226.000000	1.237982
4224.000000	1.237950
4222.000000	1.237784
4220.000000	1.237729
4218.000000	1.237782
4216.000000	1.237806
4214.000000	1.237926
4212.000000	1.238038
4210.000000	1.238087
4208.000000	1.238123
4206.000000	1.237967
4204.000000	1.237708
4202.000000	1.237617
4200.000000	1.237721
4198.000000	1.237896
4196.000000	1.237879
4194.000000	1.237758
4192.000000	1.237802
4190.000000	1.237855
4188.000000	1.237798
4186.000000	1.237773
4184.000000	1.237642
4182.000000	1.237504
4180.000000	1.237663
4178.000000	1.237831
4176.000000	1.237633
4174.000000	1.237367
4172.000000	1.237387
4170.000000	1.237578
4168.000000	1.237651
4166.000000	1.237574
4164.000000	1.237481
4162.000000	1.237517
4160.000000	1.237518
4158.000000	1.237352
4156.000000	1.237194
4154.000000	1.237177
4152.000000	1.237310
4150.000000	1.237478
4148.000000	1.237349
4146.000000	1.237105
4144.000000	1.237138
4142.000000	1.237271
4140.000000	1.237213
4138.000000	1.237080
4136.000000	1.237055
4134.000000	1.237138
4132.000000	1.237159
4130.000000	1.236993
4128.000000	1.236786
4126.000000	1.236807
4124.000000	1.236963
4122.000000	1.236984
4120.000000	1.236821
4118.000000	1.236605
4116.000000	1.236558
4114.000000	1.236715
4112.000000	1.236833
4110.000000	1.236827
4108.000000	1.236745
4106.000000	1.236697
4104.000000	1.236734
4102.000000	1.236768
4100.000000	1.236774
4098.000000	1.236728
4096.000000	1.236530
4094.000000	1.236410
4092.000000	1.236468
4090.000000	1.236567
4088.000000	1.236617
4086.000000	1.236492
4084.000000	1.236246
4082.000000	1.236134
4080.000000	1.236188
4078.000000	1.236311
4076.000000	1.236345
4074.000000	1.236328
4072.000000	1.236281
4070.000000	1.236118
4068.000000	1.236034
4066.000000	1.236178
4064.000000	1.236235
4062.000000	1.236057
4060.000000	1.235845
4058.000000	1.235760
4056.000000	1.235763
4054.000000	1.235843
4052.000000	1.235879
4050.000000	1.235821
4048.000000	1.235842
4046.000000	1.235873
4044.000000	1.235701
4042.000000	1.235552
4040.000000	1.235569
4038.000000	1.235594
4036.000000	1.235501
4034.000000	1.235381
4032.000000	1.235422
4030.000000	1.235592
4028.000000	1.235596
4026.000000	1.235474
4024.000000	1.235377
4022.000000	1.235341
4020.000000	1.235456
4018.000000	1.235517
4016.000000	1.235319
4014.000000	1.235155
4012.000000	1.235118
4010.000000	1.235131
4008.000000	1.235175
4006.000000	1.235177
4004.000000	1.235138
4002.000000	1.235123
4000.000000	1.235093
3998.000000	1.234977
3996.000000	1.234911
3994.000000	1.234979
3992.000000	1.234929
3990.000000	1.234766
3988.000000	1.234687
3986.000000	1.234656
3984.000000	1.234560
3982.000000	1.234480
3980.000000	1.234467
3978.000000	1.234386
3976.000000	1.234293
3974.000000	1.234410
3972.000000	1.234541
3970.000000	1.234490
3968.000000	1.234436
3966.000000	1.234400
3964.000000	1.234218
3962.000000	1.234055
3960.000000	1.234018
3958.000000	1.234018
3956.000000	1.234029
3954.000000	1.233962
3952.000000	1.233670
3950.000000	1.233390
3948.000000	1.233469
3946.000000	1.233515
3944.000000	1.233259
3942.000000	1.233427
3940.000000	1.233839
3938.000000	1.233776
3936.000000	1.233279
3934.000000	1.232788
3932.000000	1.232895
3930.000000	1.233363
3928.000000	1.233289
3926.000000	1.232897
3924.000000	1.232864
3922.000000	1.232755
3920.000000	1.232211
3918.000000	1.232208
3916.000000	1.233127
3914.000000	1.233730
3912.000000	1.233470
3910.000000	1.232908
3908.000000	1.231638
3906.000000	1.229775
3904.000000	1.229215
3902.000000	1.230245
3900.000000	1.231713
3898.000000	1.233114
3896.000000	1.233064
3894.000000	1.231277
3892.000000	1.230679
3890.000000	1.231702
3888.000000	1.230807
3886.000000	1.230042
3884.000000	1.231513
3882.000000	1.231629
3880.000000	1.231608
3878.000000	1.232422
3876.000000	1.231536
3874.000000	1.229798
3872.000000	1.228115
3870.000000	1.228676
3868.000000	1.230829
3866.000000	1.230596
3864.000000	1.230351
3862.000000	1.231609
3860.000000	1.231707
3858.000000	1.228062
3856.000000	1.221228
3854.000000	1.221027
3852.000000	1.229892
3850.000000	1.235046
3848.000000	1.233359
3846.000000	1.230910
3844.000000	1.229649
3842.000000	1.228318
3840.000000	1.225993
3838.000000	1.226424
3836.000000	1.230013
3834.000000	1.231284
3832.000000	1.230835
3830.000000	1.231086
3828.000000	1.230809
3826.000000	1.229922
3824.000000	1.227823
3822.000000	1.226691
3820.000000	1.228114
3818.000000	1.227427
3816.000000	1.227875
3814.000000	1.231857
3812.000000	1.232271
3810.000000	1.228838
3808.000000	1.226939
3806.000000	1.228152
3804.000000	1.227244
3802.000000	1.226079
3800.000000	1.229397
3798.000000	1.231144
3796.000000	1.230725
3794.000000	1.231307
3792.000000	1.231237
3790.000000	1.230694
3788.000000	1.230368
3786.000000	1.230216
3784.000000	1.230251
3782.000000	1.229706
3780.000000	1.229285
3778.000000	1.230147
3776.000000	1.230735
3774.000000	1.229880
3772.000000	1.228346
3770.000000	1.228172
3768.000000	1.229169
3766.000000	1.229577
3764.000000	1.229615
3762.000000	1.228757
3760.000000	1.227957
3758.000000	1.228538
3756.000000	1.227224
3754.000000	1.222706
3752.000000	1.220561
3750.000000	1.223722
3748.000000	1.224938
3746.000000	1.221617
3744.000000	1.224370
3742.000000	1.230336
3740.000000	1.228460
3738.000000	1.224067
3736.000000	1.223802
3734.000000	1.225741
3732.000000	1.227733
3730.000000	1.228924
3728.000000	1.227938
3726.000000	1.227142
3724.000000	1.227525
3722.000000	1.227895
3720.000000	1.228363
3718.000000	1.228396
3716.000000	1.226877
3714.000000	1.224155
3712.000000	1.224053
3710.000000	1.227009
3708.000000	1.228798
3706.000000	1.228228
3704.000000	1.226700
3702.000000	1.226541
3700.000000	1.227947
3698.000000	1.228361
3696.000000	1.227585
3694.000000	1.226016
3692.000000	1.223180
3690.000000	1.221495
3688.000000	1.224687
3686.000000	1.228644
3684.000000	1.228215
3682.000000	1.226320
3680.000000	1.224264
3678.000000	1.220751
3676.000000	1.220355
3674.000000	1.223453
3672.000000	1.222838
3670.000000	1.223088
3668.000000	1.226725
3666.000000	1.227476
3664.000000	1.226313
3662.000000	1.225709
3660.000000	1.224568
3658.000000	1.222835
3656.000000	1.223276
3654.000000	1.223569
3652.000000	1.220147
3650.000000	1.218724
3648.000000	1.222448
3646.000000	1.225679
3644.000000	1.225646
3642.000000	1.224723
3640.000000	1.224348
3638.000000	1.224086
3636.000000	1.223582
3634.000000	1.222723
3632.000000	1.220050
3630.000000	1.218011
3628.000000	1.221544
3626.000000	1.225164
3624.000000	1.223993
3622.000000	1.221325
3620.000000	1.220420
3618.000000	1.221889
3616.000000	1.222548
3614.000000	1.221578
3612.000000	1.220872
3610.000000	1.220779
3608.000000	1.221926
3606.000000	1.223115
3604.000000	1.222722
3602.000000	1.221994
3600.000000	1.221860
3598.000000	1.221694
3596.000000	1.221504
3594.000000	1.221891
3592.000000	1.221606
3590.000000	1.220040
3588.000000	1.219905
3586.000000	1.221710
3584.000000	1.222506
3582.000000	1.222027
3580.000000	1.221743
3578.000000	1.221648
3576.000000	1.221513
3574.000000	1.221530
3572.000000	1.221106
3570.000000	1.219889
3568.000000	1.219456
3566.000000	1.220761
3564.000000	1.221767
3562.000000	1.221659
3560.000000	1.221620
3558.000000	1.221764
3556.000000	1.221596
3554.000000	1.221342
3552.000000	1.221475
3550.000000	1.221557
3548.000000	1.221162
3546.000000	1.221155
3544.000000	1.221761
3542.000000	1.222191
3540.000000	1.222162
3538.000000	1.221940
3536.000000	1.221958
3534.000000	1.222114
3532.000000	1.222018
3530.000000	1.221943
3528.000000	1.222068
3526.000000	1.222186
3524.000000	1.222351
3522.000000	1.222831
3520.000000	1.223198
3518.000000	1.223215
3516.000000	1.223256
3514.000000	1.223330
3512.000000	1.223336
3510.000000	1.223452
3508.000000	1.223741
3506.000000	1.223784
3504.000000	1.223761
3502.000000	1.224172
3500.000000	1.224563
3498.000000	1.224652
3496.000000	1.224838
3494.000000	1.225106
3492.000000	1.225272
3490.000000	1.225469
3488.000000	1.225765
3486.000000	1.226086
3484.000000	1.226228
3482.000000	1.226400
3480.000000	1.226827
3478.000000	1.227137
3476.000000	1.227404
3474.000000	1.227807
3472.000000	1.228126
3470.000000	1.228327
3468.000000	1.228596
3466.000000	1.229040
3464.000000	1.229442
3462.000000	1.229784
3460.000000	1.230209
3458.000000	1.230553
3456.000000	1.230828
3454.000000	1.231157
3452.000000	1.231576
3450.000000	1.231926
3448.000000	1.232115
3446.000000	1.232454
3444.000000	1.232982
3442.000000	1.233526
3440.000000	1.233995
3438.000000	1.234311
3436.000000	1.234576
3434.000000	1.235002
3432.000000	1.235487
3430.000000	1.235911
3428.000000	1.236353
3426.000000	1.236758
3424.000000	1.237001
3422.000000	1.237143
3420.000000	1.237452
3418.000000	1.237920
3416.000000	1.238257
3414.000000	1.238434
3412.000000	1.238613
3410.000000	1.238860
3408.000000	1.239102
3406.000000	1.239279
3404.000000	1.239386
3402.000000	1.239435
3400.000000	1.239562
3398.000000	1.239870
3396.000000	1.240124
3394.000000	1.240180
3392.000000	1.240290
3390.000000	1.240562
3388.000000	1.240796
3386.000000	1.240884
3384.000000	1.240917
3382.000000	1.241070
3380.000000	1.241314
3378.000000	1.241463
3376.000000	1.241525
3374.000000	1.241528
3372.000000	1.241521
3370.000000	1.241478
3368.000000	1.241526
3366.000000	1.241809
3364.000000	1.242007
3362.000000	1.241971
3360.000000	1.242056
3358.000000	1.242301
3356.000000	1.242394
3354.000000	1.242445
3352.000000	1.242522
3350.000000	1.242649
3348.000000	1.242811
3346.000000	1.242889
3344.000000	1.242948
3342.000000	1.242952
3340.000000	1.242871
3338.000000	1.242840
3336.000000	1.242910
3334.000000	1.243031
3332.000000	1.243153
3330.000000	1.243198
3328.000000	1.243149
3326.000000	1.243168
3324.000000	1.243332
3322.000000	1.243462
3320.000000	1.243440
3318.000000	1.243473
3316.000000	1.243622
3314.000000	1.243677
3312.000000	1.243700
3310.000000	1.243712
3308.000000	1.243629
3306.000000	1.243652
3304.000000	1.243833
3302.000000	1.244029
3300.000000	1.244095
3298.000000	1.244049
3296.000000	1.244070
3294.000000	1.244049
3292.000000	1.244065
3290.000000	1.244167
3288.000000	1.244265
3286.000000	1.244344
3284.000000	1.244319
3282.000000	1.244240
3280.000000	1.244295
3278.000000	1.244437
3276.000000	1.244440
3274.000000	1.244422
3272.000000	1.244417
3270.000000	1.244471
3268.000000	1.244623
3266.000000	1.244797
3264.000000	1.244849
3262.000000	1.244736
3260.000000	1.244651
3258.000000	1.244694
3256.000000	1.244780
3254.000000	1.244845
3252.000000	1.244900
3250.000000	1.245040
3248.000000	1.245104
3246.000000	1.245049
3244.000000	1.245112
3242.000000	1.245178
3240.000000	1.245257
3238.000000	1.245453
3236.000000	1.245520
3234.000000	1.245433
3232.000000	1.245437
3230.000000	1.245519
3228.000000	1.245565
3226.000000	1.245586
3224.000000	1.245590
3222.000000	1.245667
3220.000000	1.245866
3218.000000	1.246026
3216.000000	1.245964
3214.000000	1.245812
3212.000000	1.245773
3210.000000	1.245804
3208.000000	1.245895
3206.000000	1.245990
3204.000000	1.246023
3202.000000	1.246087
3200.000000	1.246142
3198.000000	1.246123
3196.000000	1.246134
3194.000000	1.246202
3192.000000	1.246213
3190.000000	1.246177
3188.000000	1.246168
3186.000000	1.246197
3184.000000	1.246315
3182.000000	1.246408
3180.000000	1.246445
3178.000000	1.246418
3176.000000	1.246419
3174.000000	1.246504
3172.000000	1.246521
3170.000000	1.246582
3168.000000	1.246642
3166.000000	1.246678
3164.000000	1.246747
3162.000000	1.246811
3160.000000	1.246813
3158.000000	1.246755
3156.000000	1.246790
3154.000000	1.246811
3152.000000	1.246804
3150.000000	1.246935
3148.000000	1.247077
3146.000000	1.247076
3144.000000	1.247017
3142.000000	1.247047
3140.000000	1.247127
3138.000000	1.247184
3136.000000	1.247233
3134.000000	1.247355
3132.000000	1.247467
3130.000000	1.247451
3128.000000	1.247441
3126.000000	1.247478
3124.000000	1.247533
3122.000000	1.247535
3120.000000	1.247495
3118.000000	1.247440
3116.000000	1.247449
3114.000000	1.247514
3112.000000	1.247488
3110.000000	1.247340
3108.000000	1.247309
3106.000000	1.247373
3104.000000	1.247389
3102.000000	1.247400
3100.000000	1.247383
3098.000000	1.247332
3096.000000	1.247246
3094.000000	1.247186
3092.000000	1.247138
3090.000000	1.247107
3088.000000	1.247122
3086.000000	1.247016
3084.000000	1.246804
3082.000000	1.246656
3080.000000	1.246631
3078.000000	1.246703
3076.000000	1.246729
3074.000000	1.246650
3072.000000	1.246574
3070.000000	1.246501
3068.000000	1.246384
3066.000000	1.246261
3064.000000	1.246294
3062.000000	1.246373
3060.000000	1.246307
3058.000000	1.246204
3056.000000	1.246161
3054.000000	1.246114
3052.000000	1.245989
3050.000000	1.245952
3048.000000	1.245996
3046.000000	1.245906
3044.000000	1.245803
3042.000000	1.245762
3040.000000	1.245772
3038.000000	1.245790
3036.000000	1.245733
3034.000000	1.245663
3032.000000	1.245650
3030.000000	1.245603
3028.000000	1.245466
3026.000000	1.245363
3024.000000	1.245320
3022.000000	1.245305
3020.000000	1.245407
3018.000000	1.245556
3016.000000	1.245795
3014.000000	1.246081
3012.000000	1.246163
3010.000000	1.246013
3008.000000	1.245744
3006.000000	1.245528
3004.000000	1.245452
3002.000000	1.245402
3000.000000	1.245327
2998.000000	1.245282
2996.000000	1.245183
2994.000000	1.245046
2992.000000	1.244971
2990.000000	1.244937
2988.000000	1.244996
2986.000000	1.245023
2984.000000	1.244934
2982.000000	1.244820
2980.000000	1.244752
2978.000000	1.244755
2976.000000	1.244766
2974.000000	1.244683
2972.000000	1.244594
2970.000000	1.244664
2968.000000	1.244879
2966.000000	1.245345
2964.000000	1.246028
2962.000000	1.246727
2960.000000	1.247258
2958.000000	1.247290
2956.000000	1.246936
2954.000000	1.246419
2952.000000	1.245832
2950.000000	1.245229
2948.000000	1.244690
2946.000000	1.244221
2944.000000	1.243746
2942.000000	1.243366
2940.000000	1.243099
2938.000000	1.242997
2936.000000	1.243167
2934.000000	1.243280
2932.000000	1.243358
2930.000000	1.243493
2928.000000	1.243702
2926.000000	1.244299
2924.000000	1.245284
2922.000000	1.246134
2920.000000	1.246626
2918.000000	1.246894
2916.000000	1.246889
2914.000000	1.246563
2912.000000	1.246146
2910.000000	1.245799
2908.000000	1.245466
2906.000000	1.245239
2904.000000	1.245102
2902.000000	1.244911
2900.000000	1.244836
2898.000000	1.244749
2896.000000	1.244596
2894.000000	1.244549
2892.000000	1.244596
2890.000000	1.244591
2888.000000	1.244443
2886.000000	1.244219
2884.000000	1.243980
2882.000000	1.243785
2880.000000	1.243634
2878.000000	1.243378
2876.000000	1.243079
2874.000000	1.242871
2872.000000	1.242652
2870.000000	1.242255
2868.000000	1.241822
2866.000000	1.241588
2864.000000	1.241734
2862.000000	1.242355
2860.000000	1.243162
2858.000000	1.243708
2856.000000	1.243993
2854.000000	1.244200
2852.000000	1.244401
2850.000000	1.244669
2848.000000	1.244883
2846.000000	1.244841
2844.000000	1.244552
2842.000000	1.244180
2840.000000	1.243943
2838.000000	1.243816
2836.000000	1.243653
2834.000000	1.243499
2832.000000	1.243453
2830.000000	1.243415
2828.000000	1.243350
2826.000000	1.243301
2824.000000	1.243188
2822.000000	1.243119
2820.000000	1.243164
2818.000000	1.243150
2816.000000	1.243068
2814.000000	1.243016
2812.000000	1.243030
2810.000000	1.243071
2808.000000	1.242994
2806.000000	1.242934
2804.000000	1.242896
2802.000000	1.242756
2800.000000	1.242752
2798.000000	1.242867
2796.000000	1.242909
2794.000000	1.242863
2792.000000	1.242824
2790.000000	1.242815
2788.000000	1.242871
2786.000000	1.242885
2784.000000	1.242762
2782.000000	1.242685
2780.000000	1.242685
2778.000000	1.242677
2776.000000	1.242613
2774.000000	1.242560
2772.000000	1.242610
2770.000000	1.242563
2768.000000	1.242506
2766.000000	1.242524
2764.000000	1.242552
2762.000000	1.242536
2760.000000	1.242474
2758.000000	1.242451
2756.000000	1.242529
2754.000000	1.242594
2752.000000	1.242571
2750.000000	1.242487
2748.000000	1.242544
2746.000000	1.242669
2744.000000	1.242680
2742.000000	1.242663
2740.000000	1.242721
2738.000000	1.242712
2736.000000	1.242651
2734.000000	1.242687
2732.000000	1.242756
2730.000000	1.242828
2728.000000	1.242834
2726.000000	1.242801
2724.000000	1.242865
2722.000000	1.242941
2720.000000	1.242984
2718.000000	1.242995
2716.000000	1.243025
2714.000000	1.243063
2712.000000	1.243131
2710.000000	1.243182
2708.000000	1.243254
2706.000000	1.243372
2704.000000	1.243491
2702.000000	1.243600
2700.000000	1.243663
2698.000000	1.243677
2696.000000	1.243735
2694.000000	1.243900
2692.000000	1.244051
2690.000000	1.244114
2688.000000	1.244204
2686.000000	1.244269
2684.000000	1.244263
2682.000000	1.244345
2680.000000	1.244501
2678.000000	1.244565
2676.000000	1.244586
2674.000000	1.244649
2672.000000	1.244689
2670.000000	1.244705
2668.000000	1.244737
2666.000000	1.244863
2664.000000	1.245054
2662.000000	1.245099
2660.000000	1.245099
2658.000000	1.245173
2656.000000	1.245219
2654.000000	1.245338
2652.000000	1.245522
2650.000000	1.245544
2648.000000	1.245493
2646.000000	1.245531
2644.000000	1.245655
2642.000000	1.245763
2640.000000	1.245739
2638.000000	1.245694
2636.000000	1.245722
2634.000000	1.245740
2632.000000	1.245807
2630.000000	1.245897
2628.000000	1.245899
2626.000000	1.245854
2624.000000	1.245772
2622.000000	1.245718
2620.000000	1.245761
2618.000000	1.245802
2616.000000	1.245794
2614.000000	1.245825
2612.000000	1.245901
2610.000000	1.245979
2608.000000	1.246051
2606.000000	1.246064
2604.000000	1.246051
2602.000000	1.246005
2600.000000	1.246030
2598.000000	1.246076
2596.000000	1.246057
2594.000000	1.246079
2592.000000	1.246100
2590.000000	1.246138
2588.000000	1.246220
2586.000000	1.246249
2584.000000	1.246308
2582.000000	1.246339
2580.000000	1.246309
2578.000000	1.246223
2576.000000	1.246234
2574.000000	1.246290
2572.000000	1.246289
2570.000000	1.246307
2568.000000	1.246301
2566.000000	1.246311
2564.000000	1.246423
2562.000000	1.246427
2560.000000	1.246372
2558.000000	1.246406
2556.000000	1.246399
2554.000000	1.246377
2552.000000	1.246414
2550.000000	1.246426
2548.000000	1.246431
2546.000000	1.246390
2544.000000	1.246375
2542.000000	1.246419
2540.000000	1.246368
2538.000000	1.246252
2536.000000	1.246232
2534.000000	1.246276
2532.000000	1.246284
2530.000000	1.246257
2528.000000	1.246291
2526.000000	1.246295
2524.000000	1.246281
2522.000000	1.246205
2520.000000	1.246149
2518.000000	1.246145
2516.000000	1.246156
2514.000000	1.246192
2512.000000	1.246215
2510.000000	1.246258
2508.000000	1.246299
2506.000000	1.246252
2504.000000	1.246156
2502.000000	1.246132
2500.000000	1.246163
2498.000000	1.246117
2496.000000	1.246178
2494.000000	1.246263
2492.000000	1.246275
2490.000000	1.246260
2488.000000	1.246229
2486.000000	1.246162
2484.000000	1.246166
2482.000000	1.246255
2480.000000	1.246220
2478.000000	1.246099
2476.000000	1.246092
2474.000000	1.246118
2472.000000	1.246114
2470.000000	1.246155
2468.000000	1.246210
2466.000000	1.246146
2464.000000	1.246142
2462.000000	1.246189
2460.000000	1.246242
2458.000000	1.246262
2456.000000	1.246228
2454.000000	1.246216
2452.000000	1.246227
2450.000000	1.246220
2448.000000	1.246233
2446.000000	1.246204
2444.000000	1.246108
2442.000000	1.246078
2440.000000	1.246108
2438.000000	1.246077
2436.000000	1.246100
2434.000000	1.246093
2432.000000	1.246073
2430.000000	1.246075
2428.000000	1.246068
2426.000000	1.246099
2424.000000	1.246097
2422.000000	1.246041
2420.000000	1.246034
2418.000000	1.246052
2416.000000	1.246052
2414.000000	1.246057
2412.000000	1.246000
2410.000000	1.245871
2408.000000	1.245839
2406.000000	1.245902
2404.000000	1.245952
2402.000000	1.245952
2400.000000	1.245951
2398.000000	1.245813
2396.000000	1.245716
2394.000000	1.245732
2392.000000	1.245819
2390.000000	1.245809
2388.000000	1.245716
2386.000000	1.245647
2384.000000	1.245611
2382.000000	1.245453
2380.000000	1.245262
2378.000000	1.245117
2376.000000	1.244903
2374.000000	1.244510
2372.000000	1.244156
2370.000000	1.243813
2368.000000	1.243491
2366.000000	1.243348
2364.000000	1.243316
2362.000000	1.243471
2360.000000	1.243773
2358.000000	1.244083
2356.000000	1.244482
2354.000000	1.244959
2352.000000	1.245439
2350.000000	1.245393
2348.000000	1.244645
2346.000000	1.244136
2344.000000	1.244334
2342.000000	1.244987
2340.000000	1.245720
2338.000000	1.245853
2336.000000	1.245341
2334.000000	1.244840
2332.000000	1.244718
2330.000000	1.244743
2328.000000	1.244819
2326.000000	1.244924
2324.000000	1.245111
2322.000000	1.245259
2320.000000	1.245374
2318.000000	1.245425
2316.000000	1.245383
2314.000000	1.245443
2312.000000	1.245508
2310.000000	1.245519
2308.000000	1.245583
2306.000000	1.245619
2304.000000	1.245636
2302.000000	1.245559
2300.000000	1.245509
2298.000000	1.245514
2296.000000	1.245550
2294.000000	1.245660
2292.000000	1.245684
2290.000000	1.245629
2288.000000	1.245641
2286.000000	1.245674
2284.000000	1.245730
2282.000000	1.245748
2280.000000	1.245698
2278.000000	1.245637
2276.000000	1.245667
2274.000000	1.245736
2272.000000	1.245734
2270.000000	1.245740
2268.000000	1.245762
2266.000000	1.245733
2264.000000	1.245743
2262.000000	1.245667
2260.000000	1.245587
2258.000000	1.245639
2256.000000	1.245682
2254.000000	1.245603
2252.000000	1.245488
2250.000000	1.245482
2248.000000	1.245551
2246.000000	1.245537
2244.000000	1.245435
2242.000000	1.245411
2240.000000	1.245472
2238.000000	1.245448
2236.000000	1.245443
2234.000000	1.245346
2232.000000	1.245194
2230.000000	1.245136
2228.000000	1.245107
2226.000000	1.245072
2224.000000	1.245029
2222.000000	1.244992
2220.000000	1.245121
2218.000000	1.245223
2216.000000	1.245166
2214.000000	1.245024
2212.000000	1.244926
2210.000000	1.244891
2208.000000	1.244897
2206.000000	1.244771
2204.000000	1.244647
2202.000000	1.244620
2200.000000	1.244644
2198.000000	1.244670
2196.000000	1.244634
2194.000000	1.244530
2192.000000	1.244435
2190.000000	1.244351
2188.000000	1.244333
2186.000000	1.244326
2184.000000	1.244328
2182.000000	1.244373
2180.000000	1.244335
2178.000000	1.244260
2176.000000	1.244182
2174.000000	1.244065
2172.000000	1.243985
2170.000000	1.244000
2168.000000	1.244077
2166.000000	1.243985
2164.000000	1.243818
2162.000000	1.243726
2160.000000	1.243683
2158.000000	1.243626
2156.000000	1.243596
2154.000000	1.243604
2152.000000	1.243547
2150.000000	1.243384
2148.000000	1.243280
2146.000000	1.243258
2144.000000	1.243344
2142.000000	1.243288
2140.000000	1.243212
2138.000000	1.243193
2136.000000	1.243163
2134.000000	1.243123
2132.000000	1.243084
2130.000000	1.242987
2128.000000	1.242938
2126.000000	1.242916
2124.000000	1.242888
2122.000000	1.242796
2120.000000	1.242714
2118.000000	1.242653
2116.000000	1.242623
2114.000000	1.242494
2112.000000	1.242408
2110.000000	1.242385
2108.000000	1.242383
2106.000000	1.242350
2104.000000	1.242298
2102.000000	1.242181
2100.000000	1.242147
2098.000000	1.242267
2096.000000	1.242358
2094.000000	1.242193
2092.000000	1.241979
2090.000000	1.241907
2088.000000	1.241961
2086.000000	1.241977
2084.000000	1.241990
2082.000000	1.241931
2080.000000	1.241844
2078.000000	1.241731
2076.000000	1.241745
2074.000000	1.241745
2072.000000	1.241692
2070.000000	1.241652
2068.000000	1.241626
2066.000000	1.241509
2064.000000	1.241396
2062.000000	1.241351
2060.000000	1.241390
2058.000000	1.241381
2056.000000	1.241337
2054.000000	1.241271
2052.000000	1.241265
2050.000000	1.241232
2048.000000	1.241165
2046.000000	1.241059
2044.000000	1.240972
2042.000000	1.240961
2040.000000	1.241080
2038.000000	1.241121
2036.000000	1.241044
2034.000000	1.240952
2032.000000	1.240932
2030.000000	1.240899
2028.000000	1.240933
2026.000000	1.240919
2024.000000	1.240847
2022.000000	1.240746
2020.000000	1.240582
2018.000000	1.240423
2016.000000	1.240488
2014.000000	1.240554
2012.000000	1.240508
2010.000000	1.240446
2008.000000	1.240427
2006.000000	1.240348
2004.000000	1.240296
2002.000000	1.240309
2000.000000	1.240376
1998.000000	1.240403
1996.000000	1.240374
1994.000000	1.240139
1992.000000	1.240078
1990.000000	1.240230
1988.000000	1.240264
1986.000000	1.240240
1984.000000	1.240181
1982.000000	1.240111
1980.000000	1.240065
1978.000000	1.239995
1976.000000	1.239998
1974.000000	1.240066
1972.000000	1.240038
1970.000000	1.239831
1968.000000	1.239689
1966.000000	1.239886
1964.000000	1.240022
1962.000000	1.239850
1960.000000	1.239784
1958.000000	1.240129
1956.000000	1.240198
1954.000000	1.240049
1952.000000	1.239983
1950.000000	1.239875
1948.000000	1.239843
1946.000000	1.239644
1944.000000	1.239327
1942.000000	1.239537
1940.000000	1.239978
1938.000000	1.240003
1936.000000	1.240045
1934.000000	1.240002
1932.000000	1.239984
1930.000000	1.239975
1928.000000	1.240009
1926.000000	1.239839
1924.000000	1.239607
1922.000000	1.239638
1920.000000	1.239172
1918.000000	1.239084
1916.000000	1.239990
1914.000000	1.240042
1912.000000	1.239823
1910.000000	1.239724
1908.000000	1.239971
1906.000000	1.240147
1904.000000	1.240216
1902.000000	1.240158
1900.000000	1.240182
1898.000000	1.240072
1896.000000	1.240044
1894.000000	1.240137
1892.000000	1.239910
1890.000000	1.239659
1888.000000	1.240181
1886.000000	1.240219
1884.000000	1.240148
1882.000000	1.240228
1880.000000	1.240318
1878.000000	1.240230
1876.000000	1.240185
1874.000000	1.240065
1872.000000	1.239423
1870.000000	1.238486
1868.000000	1.239185
1866.000000	1.239995
1864.000000	1.240107
1862.000000	1.240036
1860.000000	1.240094
1858.000000	1.240100
1856.000000	1.240120
1854.000000	1.239979
1852.000000	1.239970
1850.000000	1.239822
1848.000000	1.239342
1846.000000	1.237668
1844.000000	1.237969
1842.000000	1.240077
1840.000000	1.240160
1838.000000	1.239804
1836.000000	1.239888
1834.000000	1.239785
1832.000000	1.238772
1830.000000	1.238520
1828.000000	1.239352
1826.000000	1.239085
1824.000000	1.239790
1822.000000	1.240324
1820.000000	1.240144
1818.000000	1.240044
1816.000000	1.240200
1814.000000	1.240012
1812.000000	1.239709
1810.000000	1.239856
1808.000000	1.240157
1806.000000	1.240090
1804.000000	1.239619
1802.000000	1.238968
1800.000000	1.239293
1798.000000	1.239758
1796.000000	1.239263
1794.000000	1.237427
1792.000000	1.237994
1790.000000	1.240024
1788.000000	1.240016
1786.000000	1.239265
1784.000000	1.239576
1782.000000	1.239589
1780.000000	1.239764
1778.000000	1.240026
1776.000000	1.238894
1774.000000	1.236297
1772.000000	1.237040
1770.000000	1.239065
1768.000000	1.239433
1766.000000	1.240437
1764.000000	1.239346
1762.000000	1.238857
1760.000000	1.239959
1758.000000	1.239589
1756.000000	1.239839
1754.000000	1.239079
1752.000000	1.237155
1750.000000	1.238353
1748.000000	1.239720
1746.000000	1.240072
1744.000000	1.239807
1742.000000	1.238940
1740.000000	1.238865
1738.000000	1.239552
1736.000000	1.235328
1734.000000	1.234853
1732.000000	1.240158
1730.000000	1.241248
1728.000000	1.241312
1726.000000	1.241195
1724.000000	1.241170
1722.000000	1.240632
1720.000000	1.237004
1718.000000	1.234680
1716.000000	1.238587
1714.000000	1.241190
1712.000000	1.241817
1710.000000	1.241235
1708.000000	1.240373
1706.000000	1.239597
1704.000000	1.239389
1702.000000	1.234595
1700.000000	1.234896
1698.000000	1.236711
1696.000000	1.236503
1694.000000	1.241885
1692.000000	1.242584
1690.000000	1.241496
1688.000000	1.239428
1686.000000	1.233998
1684.000000	1.236183
1682.000000	1.242010
1680.000000	1.242313
1678.000000	1.240845
1676.000000	1.238972
1674.000000	1.240786
1672.000000	1.240377
1670.000000	1.239405
1668.000000	1.241789
1666.000000	1.242592
1664.000000	1.241065
1662.000000	1.241931
1660.000000	1.243158
1658.000000	1.242302
1656.000000	1.236642
1654.000000	1.230209
1652.000000	1.237414
1650.000000	1.242461
1648.000000	1.238691
1646.000000	1.239756
1644.000000	1.243452
1642.000000	1.243777
1640.000000	1.242603
1638.000000	1.239279
1636.000000	1.237888
1634.000000	1.242536
1632.000000	1.244174
1630.000000	1.242895
1628.000000	1.242557
1626.000000	1.242138
1624.000000	1.241221
1622.000000	1.242487
1620.000000	1.241780
1618.000000	1.238425
1616.000000	1.240683
1614.000000	1.243974
1612.000000	1.243282
1610.000000	1.243344
1608.000000	1.244065
1606.000000	1.244845
1604.000000	1.244939
1602.000000	1.245064
1600.000000	1.245120
1598.000000	1.245138
1596.000000	1.244931
1594.000000	1.244899
1592.000000	1.244912
1590.000000	1.244996
1588.000000	1.245033
1586.000000	1.244935
1584.000000	1.244815
1582.000000	1.244962
1580.000000	1.244081
1578.000000	1.240162
1576.000000	1.240390
1574.000000	1.244819
1572.000000	1.243322
1570.000000	1.242065
1568.000000	1.243918
1566.000000	1.244283
1564.000000	1.243205
1562.000000	1.238044
1560.000000	1.232374
1558.000000	1.237890
1556.000000	1.242604
1554.000000	1.243472
1552.000000	1.244618
1550.000000	1.244590
1548.000000	1.244363
1546.000000	1.242421
1544.000000	1.239935
1542.000000	1.236470
1540.000000	1.236581
1538.000000	1.242912
1536.000000	1.244032
1534.000000	1.242357
1532.000000	1.244269
1530.000000	1.244405
1528.000000	1.242840
1526.000000	1.241995
1524.000000	1.240388
1522.000000	1.238317
1520.000000	1.241090
1518.000000	1.242238
1516.000000	1.242824
1514.000000	1.243548
1512.000000	1.243146
1510.000000	1.240762
1508.000000	1.235746
1506.000000	1.237858
1504.000000	1.243480
1502.000000	1.242537
1500.000000	1.238939
1498.000000	1.236422
1496.000000	1.239249
1494.000000	1.244769
1492.000000	1.245854
1490.000000	1.245636
1488.000000	1.246335
1486.000000	1.246651
1484.000000	1.246325
1482.000000	1.245532
1480.000000	1.245157
1478.000000	1.243880
1476.000000	1.242225
1474.000000	1.240409
1472.000000	1.241924
1470.000000	1.244587
1468.000000	1.243998
1466.000000	1.242393
1464.000000	1.243357
1462.000000	1.243900
1460.000000	1.240261
1458.000000	1.236089
1456.000000	1.239261
1454.000000	1.243168
1452.000000	1.243727
1450.000000	1.244748
1448.000000	1.245319
1446.000000	1.245541
1444.000000	1.244878
1442.000000	1.244561
1440.000000	1.243406
1438.000000	1.240969
1436.000000	1.242307
1434.000000	1.244611
1432.000000	1.243842
1430.000000	1.243684
1428.000000	1.244176
1426.000000	1.243948
1424.000000	1.243464
1422.000000	1.242214
1420.000000	1.240370
1418.000000	1.242553
1416.000000	1.244102
1414.000000	1.243976
1412.000000	1.243636
1410.000000	1.243535
1408.000000	1.243115
1406.000000	1.242870
1404.000000	1.243640
1402.000000	1.244199
1400.000000	1.243713
1398.000000	1.243841
1396.000000	1.243094
1394.000000	1.243474
1392.000000	1.244304
1390.000000	1.243354
1388.000000	1.242202
1386.000000	1.242964
1384.000000	1.243868
1382.000000	1.244119
1380.000000	1.243770
1378.000000	1.243432
1376.000000	1.242919
1374.000000	1.242971
1372.000000	1.243488
1370.000000	1.243534
1368.000000	1.243555
1366.000000	1.243331
1364.000000	1.242577
1362.000000	1.242675
1360.000000	1.243077
1358.000000	1.243054
1356.000000	1.242931
1354.000000	1.243116
1352.000000	1.243162
1350.000000	1.243122
1348.000000	1.243096
1346.000000	1.242948
1344.000000	1.242823
1342.000000	1.242551
1340.000000	1.242200
1338.000000	1.242441
1336.000000	1.242718
1334.000000	1.242786
1332.000000	1.242691
1330.000000	1.242656
1328.000000	1.242554
1326.000000	1.242504
1324.000000	1.242452
1322.000000	1.242398
1320.000000	1.242169
1318.000000	1.242125
1316.000000	1.242237
1314.000000	1.242215
1312.000000	1.242062
1310.000000	1.241892
1308.000000	1.241636
1306.000000	1.241689
1304.000000	1.241803
1302.000000	1.241692
1300.000000	1.241483
1298.000000	1.241488
1296.000000	1.241476
1294.000000	1.241420
1292.000000	1.241226
1290.000000	1.241222
1288.000000	1.241463
1286.000000	1.241537
1284.000000	1.241326
1282.000000	1.241295
1280.000000	1.241376
1278.000000	1.241398
1276.000000	1.241301
1274.000000	1.241342
1272.000000	1.241344
1270.000000	1.241685
1268.000000	1.242454
1266.000000	1.243811
1264.000000	1.245643
1262.000000	1.247997
1260.000000	1.250057
1258.000000	1.250814
1256.000000	1.249830
1254.000000	1.247921
1252.000000	1.246203
1250.000000	1.245240
1248.000000	1.244647
1246.000000	1.244521
1244.000000	1.244424
1242.000000	1.244520
1240.000000	1.244974
1238.000000	1.245372
1236.000000	1.245491
1234.000000	1.245699
1232.000000	1.245969
1230.000000	1.246273
1228.000000	1.246283
1226.000000	1.246399
1224.000000	1.246760
1222.000000	1.247230
1220.000000	1.247487
1218.000000	1.247656
1216.000000	1.247801
1214.000000	1.247999
1212.000000	1.248191
1210.000000	1.248589
1208.000000	1.249080
1206.000000	1.249274
1204.000000	1.249310
1202.000000	1.249630
1200.000000	1.249910
1198.000000	1.250152
1196.000000	1.250340
1194.000000	1.250734
1192.000000	1.250973
1190.000000	1.251254
1188.000000	1.251566
1186.000000	1.251855
1184.000000	1.251907
1182.000000	1.252122
1180.000000	1.253165
1178.000000	1.254023
1176.000000	1.254033
1174.000000	1.254283
1172.000000	1.254671
1170.000000	1.254957
1168.000000	1.255262
1166.000000	1.255757
1164.000000	1.256149
1162.000000	1.256346
1160.000000	1.256555
1158.000000	1.257092
1156.000000	1.257540
1154.000000	1.257704
1152.000000	1.257760
1150.000000	1.257941
1148.000000	1.258385
1146.000000	1.258967
1144.000000	1.259300
1142.000000	1.259657
1140.000000	1.259935
1138.000000	1.260075
1136.000000	1.260282
1134.000000	1.260550
1132.000000	1.260717
1130.000000	1.261059
1128.000000	1.261222
1126.000000	1.261560
1124.000000	1.262038
1122.000000	1.262422
1120.000000	1.262633
1118.000000	1.262868
1116.000000	1.263219
1114.000000	1.263602
1112.000000	1.263954
1110.000000	1.264507
1108.000000	1.265078
1106.000000	1.265197
1104.000000	1.265210
1102.000000	1.265992
1100.000000	1.266542
1098.000000	1.267047
1096.000000	1.267437
1094.000000	1.267493
1092.000000	1.267277
1090.000000	1.267576
1088.000000	1.268053
1086.000000	1.268119
1084.000000	1.267595
1082.000000	1.267635
1080.000000	1.267956
1078.000000	1.267421
1076.000000	1.266913
1074.000000	1.267206
1072.000000	1.267259
1070.000000	1.266779
1068.000000	1.265669
1066.000000	1.264866
1064.000000	1.264541
1062.000000	1.264831
1060.000000	1.264799
1058.000000	1.263895
1056.000000	1.261855
1054.000000	1.260529
1052.000000	1.260959
1050.000000	1.261983
1048.000000	1.262399
1046.000000	1.262040
1044.000000	1.261062
1042.000000	1.260495
1040.000000	1.260066
1038.000000	1.259291
1036.000000	1.258500
1034.000000	1.258561
1032.000000	1.258087
1030.000000	1.257601
1028.000000	1.256865
1026.000000	1.256793
1024.000000	1.256929
1022.000000	1.256289
1020.000000	1.255599
1018.000000	1.255257
1016.000000	1.254739
1014.000000	1.253900
1012.000000	1.252156
1010.000000	1.250102
1008.000000	1.248490
1006.000000	1.247395
1004.000000	1.245785
1002.000000	1.243218
1000.000000	1.240554
