PE IR       SUBTECH     SPECTRUM    ASCII       PEDS        4.00        
   -1
TE110A_001_80K.ASC
20/05/14
10:48:29.00
20/05/14
10:48:29.00
Administrator
AK004, Thursday, May 14 2020, 001.
1000.000000
#HDR
-1
-1
#GR
cm-1
A
1.0
0.0
6000.000000
-2.000000
2501
8
0.842831
0.814203
#DATA
6000.000000	0.818673
5998.000000	0.818556
5996.000000	0.818433
5994.000000	0.818223
5992.000000	0.818240
5990.000000	0.818623
5988.000000	0.818892
5986.000000	0.818807
5984.000000	0.818549
5982.000000	0.818359
5980.000000	0.818334
5978.000000	0.818325
5976.000000	0.818226
5974.000000	0.818168
5972.000000	0.818080
5970.000000	0.818253
5968.000000	0.818733
5966.000000	0.819225
5964.000000	0.819333
5962.000000	0.819078
5960.000000	0.818886
5958.000000	0.818825
5956.000000	0.819027
5954.000000	0.819134
5952.000000	0.819075
5950.000000	0.818880
5948.000000	0.818663
5946.000000	0.818684
5944.000000	0.818770
5942.000000	0.818729
5940.000000	0.818620
5938.000000	0.818597
5936.000000	0.818508
5934.000000	0.818597
5932.000000	0.818552
5930.000000	0.818445
5928.000000	0.818560
5926.000000	0.818357
5924.000000	0.818270
5922.000000	0.818354
5920.000000	0.818502
5918.000000	0.818808
5916.000000	0.818718
5914.000000	0.818679
5912.000000	0.818701
5910.000000	0.818740
5908.000000	0.818855
5906.000000	0.818765
5904.000000	0.818815
5902.000000	0.818887
5900.000000	0.818921
5898.000000	0.818999
5896.000000	0.819021
5894.000000	0.819068
5892.000000	0.819099
5890.000000	0.818940
5888.000000	0.818712
5886.000000	0.818684
5884.000000	0.818788
5882.000000	0.818891
5880.000000	0.818905
5878.000000	0.818674
5876.000000	0.818633
5874.000000	0.818786
5872.000000	0.818940
5870.000000	0.818880
5868.000000	0.818665
5866.000000	0.818649
5864.000000	0.818736
5862.000000	0.818908
5860.000000	0.818924
5858.000000	0.818856
5856.000000	0.818784
5854.000000	0.818642
5852.000000	0.818737
5850.000000	0.819037
5848.000000	0.819410
5846.000000	0.819530
5844.000000	0.819294
5842.000000	0.819071
5840.000000	0.819091
5838.000000	0.819126
5836.000000	0.819133
5834.000000	0.818921
5832.000000	0.818819
5830.000000	0.818868
5828.000000	0.818875
5826.000000	0.818994
5824.000000	0.819031
5822.000000	0.819187
5820.000000	0.819396
5818.000000	0.819347
5816.000000	0.819263
5814.000000	0.819153
5812.000000	0.819331
5810.000000	0.819418
5808.000000	0.819484
5806.000000	0.819461
5804.000000	0.819482
5802.000000	0.819432
5800.000000	0.819253
5798.000000	0.819271
5796.000000	0.819406
5794.000000	0.819478
5792.000000	0.819412
5790.000000	0.819073
5788.000000	0.818885
5786.000000	0.818755
5784.000000	0.818680
5782.000000	0.818905
5780.000000	0.819183
5778.000000	0.819426
5776.000000	0.819437
5774.000000	0.819411
5772.000000	0.819444
5770.000000	0.819399
5768.000000	0.819186
5766.000000	0.819090
5764.000000	0.819111
5762.000000	0.819203
5760.000000	0.819371
5758.000000	0.819550
5756.000000	0.819593
5754.000000	0.819395
5752.000000	0.819168
5750.000000	0.819111
5748.000000	0.819199
5746.000000	0.819052
5744.000000	0.818828
5742.000000	0.818647
5740.000000	0.818659
5738.000000	0.818911
5736.000000	0.819129
5734.000000	0.819403
5732.000000	0.819576
5730.000000	0.819633
5728.000000	0.819580
5726.000000	0.819481
5724.000000	0.819455
5722.000000	0.819426
5720.000000	0.819426
5718.000000	0.819393
5716.000000	0.819475
5714.000000	0.819669
5712.000000	0.819780
5710.000000	0.819762
5708.000000	0.819474
5706.000000	0.819295
5704.000000	0.819290
5702.000000	0.819450
5700.000000	0.819561
5698.000000	0.819667
5696.000000	0.819828
5694.000000	0.819827
5692.000000	0.819721
5690.000000	0.819504
5688.000000	0.819553
5686.000000	0.819622
5684.000000	0.819661
5682.000000	0.819589
5680.000000	0.819498
5678.000000	0.819478
5676.000000	0.819514
5674.000000	0.819606
5672.000000	0.819539
5670.000000	0.819361
5668.000000	0.819359
5666.000000	0.819430
5664.000000	0.819561
5662.000000	0.819607
5660.000000	0.819513
5658.000000	0.819319
5656.000000	0.819161
5654.000000	0.819276
5652.000000	0.819531
5650.000000	0.819592
5648.000000	0.819441
5646.000000	0.819288
5644.000000	0.819306
5642.000000	0.819475
5640.000000	0.819623
5638.000000	0.819545
5636.000000	0.819400
5634.000000	0.819461
5632.000000	0.819575
5630.000000	0.819532
5628.000000	0.819390
5626.000000	0.819438
5624.000000	0.819595
5622.000000	0.819744
5620.000000	0.819784
5618.000000	0.819764
5616.000000	0.819690
5614.000000	0.819663
5612.000000	0.819681
5610.000000	0.819671
5608.000000	0.819580
5606.000000	0.819649
5604.000000	0.819888
5602.000000	0.820043
5600.000000	0.820143
5598.000000	0.820099
5596.000000	0.819921
5594.000000	0.819621
5592.000000	0.819382
5590.000000	0.819350
5588.000000	0.819466
5586.000000	0.819737
5584.000000	0.820038
5582.000000	0.820177
5580.000000	0.820164
5578.000000	0.819963
5576.000000	0.819720
5574.000000	0.819525
5572.000000	0.819494
5570.000000	0.819634
5568.000000	0.819657
5566.000000	0.819577
5564.000000	0.819500
5562.000000	0.819511
5560.000000	0.819665
5558.000000	0.819725
5556.000000	0.819573
5554.000000	0.819436
5552.000000	0.819435
5550.000000	0.819583
5548.000000	0.819691
5546.000000	0.819884
5544.000000	0.820062
5542.000000	0.819989
5540.000000	0.819782
5538.000000	0.819565
5536.000000	0.819472
5534.000000	0.819334
5532.000000	0.819399
5530.000000	0.819641
5528.000000	0.819814
5526.000000	0.819848
5524.000000	0.819728
5522.000000	0.819746
5520.000000	0.819738
5518.000000	0.819722
5516.000000	0.819651
5514.000000	0.819589
5512.000000	0.819656
5510.000000	0.819782
5508.000000	0.819907
5506.000000	0.819982
5504.000000	0.820011
5502.000000	0.819878
5500.000000	0.819765
5498.000000	0.819703
5496.000000	0.819720
5494.000000	0.819628
5492.000000	0.819536
5490.000000	0.819564
5488.000000	0.819573
5486.000000	0.819615
5484.000000	0.819623
5482.000000	0.819621
5480.000000	0.819623
5478.000000	0.819628
5476.000000	0.819724
5474.000000	0.819735
5472.000000	0.819674
5470.000000	0.819567
5468.000000	0.819462
5466.000000	0.819406
5464.000000	0.819411
5462.000000	0.819421
5460.000000	0.819391
5458.000000	0.819432
5456.000000	0.819517
5454.000000	0.819614
5452.000000	0.819656
5450.000000	0.819606
5448.000000	0.819616
5446.000000	0.819633
5444.000000	0.819637
5442.000000	0.819605
5440.000000	0.819510
5438.000000	0.819393
5436.000000	0.819365
5434.000000	0.819344
5432.000000	0.819352
5430.000000	0.819585
5428.000000	0.819826
5426.000000	0.819924
5424.000000	0.819742
5422.000000	0.819605
5420.000000	0.819631
5418.000000	0.819645
5416.000000	0.819639
5414.000000	0.819628
5412.000000	0.819709
5410.000000	0.819831
5408.000000	0.819790
5406.000000	0.819566
5404.000000	0.819441
5402.000000	0.819397
5400.000000	0.819327
5398.000000	0.819300
5396.000000	0.819511
5394.000000	0.819745
5392.000000	0.819800
5390.000000	0.819600
5388.000000	0.819579
5386.000000	0.819648
5384.000000	0.819801
5382.000000	0.819836
5380.000000	0.819761
5378.000000	0.819621
5376.000000	0.819425
5374.000000	0.819382
5372.000000	0.819411
5370.000000	0.819459
5368.000000	0.819410
5366.000000	0.819368
5364.000000	0.819340
5362.000000	0.819374
5360.000000	0.819470
5358.000000	0.819493
5356.000000	0.819388
5354.000000	0.819305
5352.000000	0.819357
5350.000000	0.819394
5348.000000	0.819305
5346.000000	0.819410
5344.000000	0.819469
5342.000000	0.819342
5340.000000	0.819308
5338.000000	0.819531
5336.000000	0.819829
5334.000000	0.819812
5332.000000	0.819689
5330.000000	0.819577
5328.000000	0.819520
5326.000000	0.819545
5324.000000	0.819582
5322.000000	0.819676
5320.000000	0.819780
5318.000000	0.819773
5316.000000	0.819684
5314.000000	0.819578
5312.000000	0.819493
5310.000000	0.819406
5308.000000	0.819346
5306.000000	0.819372
5304.000000	0.819397
5302.000000	0.819406
5300.000000	0.819389
5298.000000	0.819315
5296.000000	0.819337
5294.000000	0.819423
5292.000000	0.819456
5290.000000	0.819304
5288.000000	0.819145
5286.000000	0.819109
5284.000000	0.819230
5282.000000	0.819368
5280.000000	0.819445
5278.000000	0.819395
5276.000000	0.819298
5274.000000	0.819226
5272.000000	0.819101
5270.000000	0.819070
5268.000000	0.819224
5266.000000	0.819358
5264.000000	0.819346
5262.000000	0.819272
5260.000000	0.819247
5258.000000	0.819162
5256.000000	0.819095
5254.000000	0.819137
5252.000000	0.819185
5250.000000	0.819205
5248.000000	0.819219
5246.000000	0.819266
5244.000000	0.819262
5242.000000	0.819276
5240.000000	0.819243
5238.000000	0.819159
5236.000000	0.819155
5234.000000	0.819229
5232.000000	0.819260
5230.000000	0.819213
5228.000000	0.819197
5226.000000	0.819245
5224.000000	0.819236
5222.000000	0.819177
5220.000000	0.819152
5218.000000	0.819246
5216.000000	0.819310
5214.000000	0.819173
5212.000000	0.819061
5210.000000	0.819142
5208.000000	0.819294
5206.000000	0.819283
5204.000000	0.819258
5202.000000	0.819262
5200.000000	0.819175
5198.000000	0.819062
5196.000000	0.819121
5194.000000	0.819258
5192.000000	0.819251
5190.000000	0.819123
5188.000000	0.819067
5186.000000	0.819112
5184.000000	0.819137
5182.000000	0.819040
5180.000000	0.818923
5178.000000	0.818923
5176.000000	0.819002
5174.000000	0.819039
5172.000000	0.819077
5170.000000	0.819123
5168.000000	0.819113
5166.000000	0.819038
5164.000000	0.818984
5162.000000	0.818990
5160.000000	0.818976
5158.000000	0.818902
5156.000000	0.818901
5154.000000	0.818935
5152.000000	0.818985
5150.000000	0.818977
5148.000000	0.818997
5146.000000	0.818968
5144.000000	0.818946
5142.000000	0.819010
5140.000000	0.819108
5138.000000	0.819150
5136.000000	0.819100
5134.000000	0.819001
5132.000000	0.818874
5130.000000	0.818893
5128.000000	0.819094
5126.000000	0.819298
5124.000000	0.819387
5122.000000	0.819373
5120.000000	0.819250
5118.000000	0.819087
5116.000000	0.819092
5114.000000	0.819206
5112.000000	0.819258
5110.000000	0.819245
5108.000000	0.819259
5106.000000	0.819235
5104.000000	0.819172
5102.000000	0.819071
5100.000000	0.818947
5098.000000	0.818865
5096.000000	0.818924
5094.000000	0.819047
5092.000000	0.819108
5090.000000	0.819156
5088.000000	0.819220
5086.000000	0.819241
5084.000000	0.819131
5082.000000	0.819001
5080.000000	0.818988
5078.000000	0.818962
5076.000000	0.818909
5074.000000	0.818785
5072.000000	0.818759
5070.000000	0.818784
5068.000000	0.818870
5066.000000	0.818954
5064.000000	0.818989
5062.000000	0.818933
5060.000000	0.818959
5058.000000	0.819072
5056.000000	0.819116
5054.000000	0.819031
5052.000000	0.818975
5050.000000	0.818964
5048.000000	0.818965
5046.000000	0.818985
5044.000000	0.818974
5042.000000	0.818937
5040.000000	0.818993
5038.000000	0.819170
5036.000000	0.819254
5034.000000	0.819221
5032.000000	0.819184
5030.000000	0.819168
5028.000000	0.819116
5026.000000	0.819064
5024.000000	0.819069
5022.000000	0.819075
5020.000000	0.819098
5018.000000	0.819121
5016.000000	0.819103
5014.000000	0.819060
5012.000000	0.819034
5010.000000	0.819126
5008.000000	0.819160
5006.000000	0.819019
5004.000000	0.818899
5002.000000	0.818940
5000.000000	0.819044
4998.000000	0.819073
4996.000000	0.819096
4994.000000	0.819098
4992.000000	0.819126
4990.000000	0.819175
4988.000000	0.819201
4986.000000	0.819174
4984.000000	0.819135
4982.000000	0.819031
4980.000000	0.818948
4978.000000	0.818865
4976.000000	0.818835
4974.000000	0.818910
4972.000000	0.818980
4970.000000	0.818939
4968.000000	0.818856
4966.000000	0.818829
4964.000000	0.818822
4962.000000	0.818810
4960.000000	0.818828
4958.000000	0.818847
4956.000000	0.818981
4954.000000	0.819034
4952.000000	0.818962
4950.000000	0.818912
4948.000000	0.818952
4946.000000	0.818942
4944.000000	0.818899
4942.000000	0.819031
4940.000000	0.819107
4938.000000	0.819011
4936.000000	0.818851
4934.000000	0.818822
4932.000000	0.818853
4930.000000	0.818834
4928.000000	0.818843
4926.000000	0.818964
4924.000000	0.819032
4922.000000	0.818898
4920.000000	0.818777
4918.000000	0.818826
4916.000000	0.818874
4914.000000	0.818780
4912.000000	0.818782
4910.000000	0.818930
4908.000000	0.818968
4906.000000	0.818886
4904.000000	0.818861
4902.000000	0.818894
4900.000000	0.818810
4898.000000	0.818727
4896.000000	0.818826
4894.000000	0.819018
4892.000000	0.819087
4890.000000	0.818968
4888.000000	0.818851
4886.000000	0.818857
4884.000000	0.818859
4882.000000	0.818781
4880.000000	0.818735
4878.000000	0.818742
4876.000000	0.818699
4874.000000	0.818687
4872.000000	0.818737
4870.000000	0.818808
4868.000000	0.818798
4866.000000	0.818808
4864.000000	0.818871
4862.000000	0.818873
4860.000000	0.818805
4858.000000	0.818792
4856.000000	0.818910
4854.000000	0.818943
4852.000000	0.818864
4850.000000	0.818789
4848.000000	0.818826
4846.000000	0.818878
4844.000000	0.818890
4842.000000	0.818918
4840.000000	0.818988
4838.000000	0.819001
4836.000000	0.818874
4834.000000	0.818764
4832.000000	0.818829
4830.000000	0.818851
4828.000000	0.818722
4826.000000	0.818701
4824.000000	0.818780
4822.000000	0.818761
4820.000000	0.818766
4818.000000	0.818937
4816.000000	0.818983
4814.000000	0.818806
4812.000000	0.818646
4810.000000	0.818679
4808.000000	0.818782
4806.000000	0.818845
4804.000000	0.818916
4802.000000	0.818948
4800.000000	0.818982
4798.000000	0.819046
4796.000000	0.819002
4794.000000	0.818825
4792.000000	0.818730
4790.000000	0.818775
4788.000000	0.818840
4786.000000	0.818821
4784.000000	0.818730
4782.000000	0.818598
4780.000000	0.818541
4778.000000	0.818503
4776.000000	0.818551
4774.000000	0.818625
4772.000000	0.818627
4770.000000	0.818544
4768.000000	0.818475
4766.000000	0.818465
4764.000000	0.818499
4762.000000	0.818597
4760.000000	0.818687
4758.000000	0.818697
4756.000000	0.818717
4754.000000	0.818911
4752.000000	0.819030
4750.000000	0.818922
4748.000000	0.818796
4746.000000	0.818794
4744.000000	0.818796
4742.000000	0.818785
4740.000000	0.818783
4738.000000	0.818720
4736.000000	0.818603
4734.000000	0.818544
4732.000000	0.818642
4730.000000	0.818764
4728.000000	0.818796
4726.000000	0.818777
4724.000000	0.818805
4722.000000	0.818846
4720.000000	0.818803
4718.000000	0.818696
4716.000000	0.818690
4714.000000	0.818746
4712.000000	0.818736
4710.000000	0.818683
4708.000000	0.818739
4706.000000	0.818843
4704.000000	0.818864
4702.000000	0.818746
4700.000000	0.818654
4698.000000	0.818684
4696.000000	0.818775
4694.000000	0.818762
4692.000000	0.818619
4690.000000	0.818491
4688.000000	0.818488
4686.000000	0.818573
4684.000000	0.818594
4682.000000	0.818540
4680.000000	0.818506
4678.000000	0.818503
4676.000000	0.818512
4674.000000	0.818539
4672.000000	0.818578
4670.000000	0.818616
4668.000000	0.818671
4666.000000	0.818675
4664.000000	0.818597
4662.000000	0.818569
4660.000000	0.818644
4658.000000	0.818713
4656.000000	0.818685
4654.000000	0.818572
4652.000000	0.818522
4650.000000	0.818604
4648.000000	0.818737
4646.000000	0.818767
4644.000000	0.818764
4642.000000	0.818734
4640.000000	0.818652
4638.000000	0.818541
4636.000000	0.818500
4634.000000	0.818522
4632.000000	0.818563
4630.000000	0.818554
4628.000000	0.818547
4626.000000	0.818581
4624.000000	0.818571
4622.000000	0.818534
4620.000000	0.818597
4618.000000	0.818688
4616.000000	0.818688
4614.000000	0.818643
4612.000000	0.818598
4610.000000	0.818644
4608.000000	0.818767
4606.000000	0.818763
4604.000000	0.818617
4602.000000	0.818551
4600.000000	0.818541
4598.000000	0.818525
4596.000000	0.818502
4594.000000	0.818514
4592.000000	0.818613
4590.000000	0.818761
4588.000000	0.818785
4586.000000	0.818707
4584.000000	0.818605
4582.000000	0.818521
4580.000000	0.818494
4578.000000	0.818521
4576.000000	0.818605
4574.000000	0.818689
4572.000000	0.818681
4570.000000	0.818643
4568.000000	0.818670
4566.000000	0.818702
4564.000000	0.818729
4562.000000	0.818737
4560.000000	0.818689
4558.000000	0.818694
4556.000000	0.818776
4554.000000	0.818768
4552.000000	0.818695
4550.000000	0.818729
4548.000000	0.818777
4546.000000	0.818666
4544.000000	0.818567
4542.000000	0.818650
4540.000000	0.818763
4538.000000	0.818774
4536.000000	0.818746
4534.000000	0.818695
4532.000000	0.818654
4530.000000	0.818614
4528.000000	0.818573
4526.000000	0.818594
4524.000000	0.818686
4522.000000	0.818789
4520.000000	0.818825
4518.000000	0.818762
4516.000000	0.818701
4514.000000	0.818708
4512.000000	0.818737
4510.000000	0.818803
4508.000000	0.818851
4506.000000	0.818788
4504.000000	0.818708
4502.000000	0.818719
4500.000000	0.818792
4498.000000	0.818812
4496.000000	0.818753
4494.000000	0.818698
4492.000000	0.818730
4490.000000	0.818775
4488.000000	0.818764
4486.000000	0.818717
4484.000000	0.818697
4482.000000	0.818668
4480.000000	0.818654
4478.000000	0.818725
4476.000000	0.818862
4474.000000	0.818912
4472.000000	0.818899
4470.000000	0.818934
4468.000000	0.818967
4466.000000	0.818905
4464.000000	0.818859
4462.000000	0.818847
4460.000000	0.818792
4458.000000	0.818741
4456.000000	0.818790
4454.000000	0.818903
4452.000000	0.818959
4450.000000	0.818928
4448.000000	0.818909
4446.000000	0.818913
4444.000000	0.818877
4442.000000	0.818852
4440.000000	0.818934
4438.000000	0.819055
4436.000000	0.819073
4434.000000	0.819003
4432.000000	0.818948
4430.000000	0.818937
4428.000000	0.818960
4426.000000	0.818996
4424.000000	0.819041
4422.000000	0.819080
4420.000000	0.819019
4418.000000	0.818892
4416.000000	0.818887
4414.000000	0.818967
4412.000000	0.818970
4410.000000	0.818950
4408.000000	0.818996
4406.000000	0.819039
4404.000000	0.819016
4402.000000	0.818977
4400.000000	0.818921
4398.000000	0.818861
4396.000000	0.818910
4394.000000	0.818994
4392.000000	0.818959
4390.000000	0.818854
4388.000000	0.818784
4386.000000	0.818795
4384.000000	0.818911
4382.000000	0.819033
4380.000000	0.819089
4378.000000	0.819085
4376.000000	0.819061
4374.000000	0.819064
4372.000000	0.819123
4370.000000	0.819197
4368.000000	0.819201
4366.000000	0.819135
4364.000000	0.819069
4362.000000	0.819080
4360.000000	0.819134
4358.000000	0.819157
4356.000000	0.819174
4354.000000	0.819186
4352.000000	0.819172
4350.000000	0.819161
4348.000000	0.819160
4346.000000	0.819139
4344.000000	0.819088
4342.000000	0.819079
4340.000000	0.819171
4338.000000	0.819192
4336.000000	0.819152
4334.000000	0.819186
4332.000000	0.819207
4330.000000	0.819137
4328.000000	0.819090
4326.000000	0.819095
4324.000000	0.819145
4322.000000	0.819204
4320.000000	0.819226
4318.000000	0.819195
4316.000000	0.819208
4314.000000	0.819236
4312.000000	0.819212
4310.000000	0.819191
4308.000000	0.819169
4306.000000	0.819104
4304.000000	0.819085
4302.000000	0.819115
4300.000000	0.819124
4298.000000	0.819161
4296.000000	0.819191
4294.000000	0.819157
4292.000000	0.819145
4290.000000	0.819153
4288.000000	0.819134
4286.000000	0.819163
4284.000000	0.819210
4282.000000	0.819234
4280.000000	0.819240
4278.000000	0.819203
4276.000000	0.819193
4274.000000	0.819225
4272.000000	0.819168
4270.000000	0.819112
4268.000000	0.819174
4266.000000	0.819209
4264.000000	0.819199
4262.000000	0.819210
4260.000000	0.819250
4258.000000	0.819297
4256.000000	0.819294
4254.000000	0.819278
4252.000000	0.819329
4250.000000	0.819299
4248.000000	0.819203
4246.000000	0.819228
4244.000000	0.819320
4242.000000	0.819342
4240.000000	0.819328
4238.000000	0.819274
4236.000000	0.819251
4234.000000	0.819274
4232.000000	0.819190
4230.000000	0.819112
4228.000000	0.819186
4226.000000	0.819245
4224.000000	0.819243
4222.000000	0.819293
4220.000000	0.819316
4218.000000	0.819270
4216.000000	0.819235
4214.000000	0.819204
4212.000000	0.819179
4210.000000	0.819216
4208.000000	0.819249
4206.000000	0.819205
4204.000000	0.819157
4202.000000	0.819194
4200.000000	0.819247
4198.000000	0.819277
4196.000000	0.819318
4194.000000	0.819296
4192.000000	0.819245
4190.000000	0.819260
4188.000000	0.819274
4186.000000	0.819276
4184.000000	0.819325
4182.000000	0.819328
4180.000000	0.819251
4178.000000	0.819207
4176.000000	0.819265
4174.000000	0.819377
4172.000000	0.819424
4170.000000	0.819378
4168.000000	0.819350
4166.000000	0.819383
4164.000000	0.819453
4162.000000	0.819495
4160.000000	0.819437
4158.000000	0.819340
4156.000000	0.819311
4154.000000	0.819317
4152.000000	0.819315
4150.000000	0.819331
4148.000000	0.819369
4146.000000	0.819366
4144.000000	0.819344
4142.000000	0.819324
4140.000000	0.819302
4138.000000	0.819295
4136.000000	0.819304
4134.000000	0.819319
4132.000000	0.819301
4130.000000	0.819252
4128.000000	0.819227
4126.000000	0.819206
4124.000000	0.819205
4122.000000	0.819223
4120.000000	0.819182
4118.000000	0.819112
4116.000000	0.819116
4114.000000	0.819187
4112.000000	0.819218
4110.000000	0.819185
4108.000000	0.819183
4106.000000	0.819232
4104.000000	0.819220
4102.000000	0.819129
4100.000000	0.819086
4098.000000	0.819121
4096.000000	0.819192
4094.000000	0.819261
4092.000000	0.819264
4090.000000	0.819245
4088.000000	0.819261
4086.000000	0.819273
4084.000000	0.819260
4082.000000	0.819228
4080.000000	0.819205
4078.000000	0.819203
4076.000000	0.819204
4074.000000	0.819189
4072.000000	0.819169
4070.000000	0.819199
4068.000000	0.819254
4066.000000	0.819262
4064.000000	0.819238
4062.000000	0.819193
4060.000000	0.819134
4058.000000	0.819106
4056.000000	0.819136
4054.000000	0.819160
4052.000000	0.819164
4050.000000	0.819219
4048.000000	0.819251
4046.000000	0.819214
4044.000000	0.819182
4042.000000	0.819145
4040.000000	0.819105
4038.000000	0.819110
4036.000000	0.819145
4034.000000	0.819152
4032.000000	0.819118
4030.000000	0.819096
4028.000000	0.819130
4026.000000	0.819148
4024.000000	0.819091
4022.000000	0.819064
4020.000000	0.819069
4018.000000	0.819010
4016.000000	0.818951
4014.000000	0.818950
4012.000000	0.818967
4010.000000	0.818978
4008.000000	0.819030
4006.000000	0.819086
4004.000000	0.819046
4002.000000	0.819000
4000.000000	0.819008
3998.000000	0.818963
3996.000000	0.818924
3994.000000	0.818942
3992.000000	0.818942
3990.000000	0.818952
3988.000000	0.819003
3986.000000	0.819059
3984.000000	0.819056
3982.000000	0.819010
3980.000000	0.818999
3978.000000	0.818994
3976.000000	0.818955
3974.000000	0.818916
3972.000000	0.818957
3970.000000	0.819004
3968.000000	0.818986
3966.000000	0.818967
3964.000000	0.818921
3962.000000	0.818865
3960.000000	0.818855
3958.000000	0.818817
3956.000000	0.818744
3954.000000	0.818733
3952.000000	0.818801
3950.000000	0.818811
3948.000000	0.818732
3946.000000	0.818745
3944.000000	0.818827
3942.000000	0.818837
3940.000000	0.818830
3938.000000	0.818820
3936.000000	0.818782
3934.000000	0.818755
3932.000000	0.818731
3930.000000	0.818695
3928.000000	0.818642
3926.000000	0.818628
3924.000000	0.818637
3922.000000	0.818541
3920.000000	0.818424
3918.000000	0.818494
3916.000000	0.818678
3914.000000	0.818733
3912.000000	0.818663
3910.000000	0.818523
3908.000000	0.818298
3906.000000	0.818151
3904.000000	0.818229
3902.000000	0.818405
3900.000000	0.818550
3898.000000	0.818665
3896.000000	0.818650
3894.000000	0.818495
3892.000000	0.818480
3890.000000	0.818481
3888.000000	0.818305
3886.000000	0.818370
3884.000000	0.818575
3882.000000	0.818535
3880.000000	0.818553
3878.000000	0.818572
3876.000000	0.818378
3874.000000	0.818177
3872.000000	0.818092
3870.000000	0.818258
3868.000000	0.818415
3866.000000	0.818304
3864.000000	0.818323
3862.000000	0.818497
3860.000000	0.818485
3858.000000	0.817944
3856.000000	0.817186
3854.000000	0.817493
3852.000000	0.818575
3850.000000	0.818855
3848.000000	0.818475
3846.000000	0.818237
3844.000000	0.818160
3842.000000	0.817927
3840.000000	0.817687
3838.000000	0.817983
3836.000000	0.818439
3834.000000	0.818390
3832.000000	0.818203
3830.000000	0.818194
3828.000000	0.818199
3826.000000	0.818085
3824.000000	0.817815
3822.000000	0.817815
3820.000000	0.817989
3818.000000	0.817857
3816.000000	0.818016
3814.000000	0.818422
3812.000000	0.818251
3810.000000	0.817788
3808.000000	0.817764
3806.000000	0.817962
3804.000000	0.817739
3802.000000	0.817750
3800.000000	0.818224
3798.000000	0.818294
3796.000000	0.818215
3794.000000	0.818291
3792.000000	0.818201
3790.000000	0.818078
3788.000000	0.818093
3786.000000	0.818110
3784.000000	0.818106
3782.000000	0.818062
3780.000000	0.818037
3778.000000	0.818123
3776.000000	0.818130
3774.000000	0.817985
3772.000000	0.817826
3770.000000	0.817805
3768.000000	0.817854
3766.000000	0.817888
3764.000000	0.817857
3762.000000	0.817667
3760.000000	0.817583
3758.000000	0.817677
3756.000000	0.817459
3754.000000	0.816952
3752.000000	0.816929
3750.000000	0.817392
3748.000000	0.817324
3746.000000	0.816967
3744.000000	0.817462
3742.000000	0.817945
3740.000000	0.817481
3738.000000	0.816957
3736.000000	0.816987
3734.000000	0.817251
3732.000000	0.817455
3730.000000	0.817451
3728.000000	0.817252
3726.000000	0.817176
3724.000000	0.817194
3722.000000	0.817174
3720.000000	0.817189
3718.000000	0.817129
3716.000000	0.816855
3714.000000	0.816595
3712.000000	0.816840
3710.000000	0.817743
3708.000000	0.818570
3706.000000	0.818427
3704.000000	0.817702
3702.000000	0.817340
3700.000000	0.817318
3698.000000	0.817272
3696.000000	0.817184
3694.000000	0.816937
3692.000000	0.816548
3690.000000	0.816478
3688.000000	0.816922
3686.000000	0.817206
3684.000000	0.816973
3682.000000	0.816672
3680.000000	0.816378
3678.000000	0.815968
3676.000000	0.816038
3674.000000	0.816342
3672.000000	0.816190
3670.000000	0.816301
3668.000000	0.816589
3666.000000	0.816452
3664.000000	0.816263
3662.000000	0.816192
3660.000000	0.816015
3658.000000	0.815860
3656.000000	0.816001
3654.000000	0.815941
3652.000000	0.815504
3650.000000	0.815482
3648.000000	0.815913
3646.000000	0.816078
3644.000000	0.815912
3642.000000	0.815782
3640.000000	0.815735
3638.000000	0.815621
3636.000000	0.815476
3634.000000	0.815324
3632.000000	0.814976
3630.000000	0.814886
3628.000000	0.815385
3626.000000	0.815593
3624.000000	0.815240
3622.000000	0.814886
3620.000000	0.814881
3618.000000	0.815073
3616.000000	0.815031
3614.000000	0.814854
3612.000000	0.814773
3610.000000	0.814768
3608.000000	0.814885
3606.000000	0.814923
3604.000000	0.814795
3602.000000	0.814963
3600.000000	0.815386
3598.000000	0.815401
3596.000000	0.815112
3594.000000	0.814977
3592.000000	0.814811
3590.000000	0.814529
3588.000000	0.814511
3586.000000	0.814663
3584.000000	0.814670
3582.000000	0.814589
3580.000000	0.814521
3578.000000	0.814492
3576.000000	0.814483
3574.000000	0.814486
3572.000000	0.814410
3570.000000	0.814227
3568.000000	0.814203
3566.000000	0.814358
3564.000000	0.814440
3562.000000	0.814404
3560.000000	0.814331
3558.000000	0.814326
3556.000000	0.814348
3554.000000	0.814340
3552.000000	0.814313
3550.000000	0.814286
3548.000000	0.814269
3546.000000	0.814339
3544.000000	0.814424
3542.000000	0.814396
3540.000000	0.814376
3538.000000	0.814407
3536.000000	0.814407
3534.000000	0.814427
3532.000000	0.814455
3530.000000	0.814420
3528.000000	0.814412
3526.000000	0.814428
3524.000000	0.814478
3522.000000	0.814576
3520.000000	0.814602
3518.000000	0.814616
3516.000000	0.814678
3514.000000	0.814704
3512.000000	0.814730
3510.000000	0.814839
3508.000000	0.814948
3506.000000	0.814945
3504.000000	0.814938
3502.000000	0.815027
3500.000000	0.815179
3498.000000	0.815283
3496.000000	0.815290
3494.000000	0.815342
3492.000000	0.815477
3490.000000	0.815607
3488.000000	0.815756
3486.000000	0.815861
3484.000000	0.815879
3482.000000	0.815993
3480.000000	0.816177
3478.000000	0.816289
3476.000000	0.816390
3474.000000	0.816553
3472.000000	0.816775
3470.000000	0.816929
3468.000000	0.817052
3466.000000	0.817263
3464.000000	0.817518
3462.000000	0.817748
3460.000000	0.817915
3458.000000	0.818078
3456.000000	0.818289
3454.000000	0.818542
3452.000000	0.818773
3450.000000	0.819010
3448.000000	0.819262
3446.000000	0.819510
3444.000000	0.819757
3442.000000	0.820041
3440.000000	0.820369
3438.000000	0.820645
3436.000000	0.820873
3434.000000	0.821180
3432.000000	0.821549
3430.000000	0.821899
3428.000000	0.822240
3426.000000	0.822577
3424.000000	0.822867
3422.000000	0.823123
3420.000000	0.823444
3418.000000	0.823731
3416.000000	0.823952
3414.000000	0.824210
3412.000000	0.824445
3410.000000	0.824702
3408.000000	0.824974
3406.000000	0.825167
3404.000000	0.825338
3402.000000	0.825481
3400.000000	0.825634
3398.000000	0.825832
3396.000000	0.826033
3394.000000	0.826181
3392.000000	0.826294
3390.000000	0.826484
3388.000000	0.826665
3386.000000	0.826783
3384.000000	0.826927
3382.000000	0.827104
3380.000000	0.827265
3378.000000	0.827417
3376.000000	0.827591
3374.000000	0.827723
3372.000000	0.827705
3370.000000	0.827680
3368.000000	0.827826
3366.000000	0.828049
3364.000000	0.828212
3362.000000	0.828265
3360.000000	0.828324
3358.000000	0.828457
3356.000000	0.828582
3354.000000	0.828631
3352.000000	0.828637
3350.000000	0.828653
3348.000000	0.828717
3346.000000	0.828821
3344.000000	0.828940
3342.000000	0.828989
3340.000000	0.828922
3338.000000	0.828945
3336.000000	0.829051
3334.000000	0.829071
3332.000000	0.829072
3330.000000	0.829129
3328.000000	0.829208
3326.000000	0.829294
3324.000000	0.829365
3322.000000	0.829420
3320.000000	0.829438
3318.000000	0.829460
3316.000000	0.829537
3314.000000	0.829596
3312.000000	0.829704
3310.000000	0.829841
3308.000000	0.829896
3306.000000	0.829912
3304.000000	0.829990
3302.000000	0.830137
3300.000000	0.830270
3298.000000	0.830320
3296.000000	0.830353
3294.000000	0.830431
3292.000000	0.830534
3290.000000	0.830645
3288.000000	0.830724
3286.000000	0.830771
3284.000000	0.830853
3282.000000	0.830947
3280.000000	0.831008
3278.000000	0.831033
3276.000000	0.831055
3274.000000	0.831082
3272.000000	0.831146
3270.000000	0.831260
3268.000000	0.831328
3266.000000	0.831354
3264.000000	0.831418
3262.000000	0.831469
3260.000000	0.831505
3258.000000	0.831573
3256.000000	0.831660
3254.000000	0.831775
3252.000000	0.831815
3250.000000	0.831783
3248.000000	0.831841
3246.000000	0.831987
3244.000000	0.832102
3242.000000	0.832160
3240.000000	0.832204
3238.000000	0.832276
3236.000000	0.832384
3234.000000	0.832490
3232.000000	0.832607
3230.000000	0.832722
3228.000000	0.832862
3226.000000	0.833013
3224.000000	0.833106
3222.000000	0.833136
3220.000000	0.833150
3218.000000	0.833156
3216.000000	0.833173
3214.000000	0.833246
3212.000000	0.833270
3210.000000	0.833259
3208.000000	0.833277
3206.000000	0.833262
3204.000000	0.833185
3202.000000	0.833101
3200.000000	0.833015
3198.000000	0.832965
3196.000000	0.832960
3194.000000	0.832964
3192.000000	0.832969
3190.000000	0.832969
3188.000000	0.832950
3186.000000	0.832899
3184.000000	0.832879
3182.000000	0.832902
3180.000000	0.832897
3178.000000	0.832886
3176.000000	0.832900
3174.000000	0.832919
3172.000000	0.832936
3170.000000	0.832915
3168.000000	0.832855
3166.000000	0.832856
3164.000000	0.832872
3162.000000	0.832854
3160.000000	0.832793
3158.000000	0.832771
3156.000000	0.832843
3154.000000	0.832897
3152.000000	0.832909
3150.000000	0.832917
3148.000000	0.832887
3146.000000	0.832860
3144.000000	0.832895
3142.000000	0.832957
3140.000000	0.833004
3138.000000	0.833043
3136.000000	0.833042
3134.000000	0.833050
3132.000000	0.833114
3130.000000	0.833150
3128.000000	0.833176
3126.000000	0.833187
3124.000000	0.833189
3122.000000	0.833192
3120.000000	0.833236
3118.000000	0.833309
3116.000000	0.833347
3114.000000	0.833370
3112.000000	0.833390
3110.000000	0.833345
3108.000000	0.833296
3106.000000	0.833307
3104.000000	0.833326
3102.000000	0.833310
3100.000000	0.833299
3098.000000	0.833280
3096.000000	0.833250
3094.000000	0.833240
3092.000000	0.833198
3090.000000	0.833108
3088.000000	0.833006
3086.000000	0.832930
3084.000000	0.832851
3082.000000	0.832781
3080.000000	0.832731
3078.000000	0.832678
3076.000000	0.832649
3074.000000	0.832606
3072.000000	0.832506
3070.000000	0.832372
3068.000000	0.832288
3066.000000	0.832239
3064.000000	0.832172
3062.000000	0.832136
3060.000000	0.832084
3058.000000	0.831972
3056.000000	0.831930
3054.000000	0.831926
3052.000000	0.831860
3050.000000	0.831741
3048.000000	0.831626
3046.000000	0.831562
3044.000000	0.831479
3042.000000	0.831361
3040.000000	0.831299
3038.000000	0.831295
3036.000000	0.831232
3034.000000	0.831139
3032.000000	0.831110
3030.000000	0.831066
3028.000000	0.831005
3026.000000	0.830975
3024.000000	0.830925
3022.000000	0.830888
3020.000000	0.830844
3018.000000	0.830764
3016.000000	0.830720
3014.000000	0.830699
3012.000000	0.830677
3010.000000	0.830633
3008.000000	0.830526
3006.000000	0.830440
3004.000000	0.830425
3002.000000	0.830393
3000.000000	0.830355
2998.000000	0.830338
2996.000000	0.830296
2994.000000	0.830211
2992.000000	0.830195
2990.000000	0.830171
2988.000000	0.830090
2986.000000	0.830016
2984.000000	0.829950
2982.000000	0.829955
2980.000000	0.830023
2978.000000	0.830052
2976.000000	0.830036
2974.000000	0.830080
2972.000000	0.830175
2970.000000	0.830273
2968.000000	0.830397
2966.000000	0.830559
2964.000000	0.830707
2962.000000	0.830756
2960.000000	0.830639
2958.000000	0.830458
2956.000000	0.830254
2954.000000	0.830036
2952.000000	0.829802
2950.000000	0.829585
2948.000000	0.829416
2946.000000	0.829316
2944.000000	0.829278
2942.000000	0.829222
2940.000000	0.829172
2938.000000	0.829130
2936.000000	0.829070
2934.000000	0.829070
2932.000000	0.829086
2930.000000	0.829056
2928.000000	0.829084
2926.000000	0.829123
2924.000000	0.829162
2922.000000	0.829226
2920.000000	0.829286
2918.000000	0.829348
2916.000000	0.829306
2914.000000	0.829190
2912.000000	0.829129
2910.000000	0.829112
2908.000000	0.829092
2906.000000	0.829031
2904.000000	0.828938
2902.000000	0.828860
2900.000000	0.828806
2898.000000	0.828769
2896.000000	0.828759
2894.000000	0.828714
2892.000000	0.828641
2890.000000	0.828606
2888.000000	0.828576
2886.000000	0.828514
2884.000000	0.828429
2882.000000	0.828362
2880.000000	0.828373
2878.000000	0.828412
2876.000000	0.828349
2874.000000	0.828210
2872.000000	0.828153
2870.000000	0.828126
2868.000000	0.828045
2866.000000	0.827978
2864.000000	0.827956
2862.000000	0.828008
2860.000000	0.828055
2858.000000	0.828036
2856.000000	0.828019
2854.000000	0.828031
2852.000000	0.828088
2850.000000	0.828164
2848.000000	0.828209
2846.000000	0.828205
2844.000000	0.828143
2842.000000	0.828083
2840.000000	0.828061
2838.000000	0.828051
2836.000000	0.828076
2834.000000	0.828082
2832.000000	0.828061
2830.000000	0.828041
2828.000000	0.827999
2826.000000	0.827961
2824.000000	0.827947
2822.000000	0.827914
2820.000000	0.827891
2818.000000	0.827888
2816.000000	0.827860
2814.000000	0.827816
2812.000000	0.827791
2810.000000	0.827800
2808.000000	0.827795
2806.000000	0.827774
2804.000000	0.827756
2802.000000	0.827730
2800.000000	0.827736
2798.000000	0.827716
2796.000000	0.827676
2794.000000	0.827650
2792.000000	0.827623
2790.000000	0.827618
2788.000000	0.827639
2786.000000	0.827648
2784.000000	0.827624
2782.000000	0.827613
2780.000000	0.827638
2778.000000	0.827656
2776.000000	0.827660
2774.000000	0.827664
2772.000000	0.827645
2770.000000	0.827647
2768.000000	0.827634
2766.000000	0.827592
2764.000000	0.827574
2762.000000	0.827594
2760.000000	0.827609
2758.000000	0.827569
2756.000000	0.827548
2754.000000	0.827638
2752.000000	0.827684
2750.000000	0.827628
2748.000000	0.827607
2746.000000	0.827613
2744.000000	0.827608
2742.000000	0.827638
2740.000000	0.827668
2738.000000	0.827666
2736.000000	0.827656
2734.000000	0.827661
2732.000000	0.827685
2730.000000	0.827727
2728.000000	0.827733
2726.000000	0.827738
2724.000000	0.827800
2722.000000	0.827882
2720.000000	0.827936
2718.000000	0.827945
2716.000000	0.827974
2714.000000	0.828034
2712.000000	0.828058
2710.000000	0.828083
2708.000000	0.828170
2706.000000	0.828219
2704.000000	0.828238
2702.000000	0.828273
2700.000000	0.828279
2698.000000	0.828276
2696.000000	0.828306
2694.000000	0.828340
2692.000000	0.828375
2690.000000	0.828408
2688.000000	0.828458
2686.000000	0.828554
2684.000000	0.828613
2682.000000	0.828611
2680.000000	0.828663
2678.000000	0.828756
2676.000000	0.828794
2674.000000	0.828823
2672.000000	0.828889
2670.000000	0.828908
2668.000000	0.828885
2666.000000	0.828915
2664.000000	0.828977
2662.000000	0.829035
2660.000000	0.829077
2658.000000	0.829080
2656.000000	0.829126
2654.000000	0.829223
2652.000000	0.829301
2650.000000	0.829338
2648.000000	0.829353
2646.000000	0.829373
2644.000000	0.829398
2642.000000	0.829446
2640.000000	0.829523
2638.000000	0.829581
2636.000000	0.829603
2634.000000	0.829592
2632.000000	0.829617
2630.000000	0.829715
2628.000000	0.829801
2626.000000	0.829813
2624.000000	0.829785
2622.000000	0.829771
2620.000000	0.829798
2618.000000	0.829803
2616.000000	0.829820
2614.000000	0.829858
2612.000000	0.829894
2610.000000	0.829923
2608.000000	0.829956
2606.000000	0.829990
2604.000000	0.829995
2602.000000	0.830015
2600.000000	0.830066
2598.000000	0.830092
2596.000000	0.830115
2594.000000	0.830161
2592.000000	0.830223
2590.000000	0.830265
2588.000000	0.830277
2586.000000	0.830277
2584.000000	0.830259
2582.000000	0.830297
2580.000000	0.830338
2578.000000	0.830324
2576.000000	0.830349
2574.000000	0.830343
2572.000000	0.830308
2570.000000	0.830299
2568.000000	0.830301
2566.000000	0.830335
2564.000000	0.830399
2562.000000	0.830473
2560.000000	0.830538
2558.000000	0.830550
2556.000000	0.830532
2554.000000	0.830549
2552.000000	0.830547
2550.000000	0.830522
2548.000000	0.830548
2546.000000	0.830528
2544.000000	0.830511
2542.000000	0.830509
2540.000000	0.830511
2538.000000	0.830550
2536.000000	0.830577
2534.000000	0.830542
2532.000000	0.830527
2530.000000	0.830543
2528.000000	0.830520
2526.000000	0.830481
2524.000000	0.830473
2522.000000	0.830512
2520.000000	0.830558
2518.000000	0.830593
2516.000000	0.830589
2514.000000	0.830574
2512.000000	0.830564
2510.000000	0.830547
2508.000000	0.830551
2506.000000	0.830582
2504.000000	0.830641
2502.000000	0.830640
2500.000000	0.830596
2498.000000	0.830556
2496.000000	0.830519
2494.000000	0.830509
2492.000000	0.830533
2490.000000	0.830529
2488.000000	0.830498
2486.000000	0.830470
2484.000000	0.830491
2482.000000	0.830507
2480.000000	0.830468
2478.000000	0.830421
2476.000000	0.830406
2474.000000	0.830446
2472.000000	0.830464
2470.000000	0.830459
2468.000000	0.830476
2466.000000	0.830465
2464.000000	0.830449
2462.000000	0.830454
2460.000000	0.830538
2458.000000	0.830613
2456.000000	0.830599
2454.000000	0.830561
2452.000000	0.830549
2450.000000	0.830507
2448.000000	0.830455
2446.000000	0.830431
2444.000000	0.830413
2442.000000	0.830377
2440.000000	0.830342
2438.000000	0.830296
2436.000000	0.830239
2434.000000	0.830204
2432.000000	0.830127
2430.000000	0.830091
2428.000000	0.830091
2426.000000	0.830036
2424.000000	0.829974
2422.000000	0.829921
2420.000000	0.829904
2418.000000	0.829893
2416.000000	0.829845
2414.000000	0.829792
2412.000000	0.829758
2410.000000	0.829725
2408.000000	0.829670
2406.000000	0.829590
2404.000000	0.829491
2402.000000	0.829403
2400.000000	0.829292
2398.000000	0.829158
2396.000000	0.829082
2394.000000	0.829039
2392.000000	0.828978
2390.000000	0.828896
2388.000000	0.828801
2386.000000	0.828772
2384.000000	0.829107
2382.000000	0.830281
2380.000000	0.832187
2378.000000	0.833831
2376.000000	0.834699
2374.000000	0.835106
2372.000000	0.835340
2370.000000	0.835362
2368.000000	0.835254
2366.000000	0.835291
2364.000000	0.835551
2362.000000	0.835930
2360.000000	0.836358
2358.000000	0.836755
2356.000000	0.837089
2354.000000	0.837448
2352.000000	0.837886
2350.000000	0.838270
2348.000000	0.838530
2346.000000	0.838703
2344.000000	0.838882
2342.000000	0.838971
2340.000000	0.838787
2338.000000	0.838330
2336.000000	0.837820
2334.000000	0.837349
2332.000000	0.836910
2330.000000	0.836591
2328.000000	0.836368
2326.000000	0.836175
2324.000000	0.835955
2322.000000	0.835677
2320.000000	0.835469
2318.000000	0.835337
2316.000000	0.835193
2314.000000	0.835055
2312.000000	0.834963
2310.000000	0.834892
2308.000000	0.834804
2306.000000	0.834712
2304.000000	0.834642
2302.000000	0.834551
2300.000000	0.834482
2298.000000	0.834432
2296.000000	0.834362
2294.000000	0.834300
2292.000000	0.834256
2290.000000	0.834205
2288.000000	0.834153
2286.000000	0.834180
2284.000000	0.834466
2282.000000	0.834801
2280.000000	0.834677
2278.000000	0.834379
2276.000000	0.834233
2274.000000	0.834162
2272.000000	0.834129
2270.000000	0.834077
2268.000000	0.833963
2266.000000	0.833861
2264.000000	0.833806
2262.000000	0.833795
2260.000000	0.833777
2258.000000	0.833742
2256.000000	0.833704
2254.000000	0.833620
2252.000000	0.833546
2250.000000	0.833556
2248.000000	0.833557
2246.000000	0.833491
2244.000000	0.833431
2242.000000	0.833361
2240.000000	0.833343
2238.000000	0.833358
2236.000000	0.833287
2234.000000	0.833235
2232.000000	0.833200
2230.000000	0.833147
2228.000000	0.833100
2226.000000	0.833070
2224.000000	0.833036
2222.000000	0.832999
2220.000000	0.832945
2218.000000	0.832892
2216.000000	0.832863
2214.000000	0.832844
2212.000000	0.832793
2210.000000	0.832784
2208.000000	0.832770
2206.000000	0.832690
2204.000000	0.832631
2202.000000	0.832579
2200.000000	0.832544
2198.000000	0.832541
2196.000000	0.832540
2194.000000	0.832514
2192.000000	0.832438
2190.000000	0.832370
2188.000000	0.832350
2186.000000	0.832321
2184.000000	0.832284
2182.000000	0.832253
2180.000000	0.832219
2178.000000	0.832197
2176.000000	0.832207
2174.000000	0.832172
2172.000000	0.832076
2170.000000	0.832031
2168.000000	0.832059
2166.000000	0.832044
2164.000000	0.831972
2162.000000	0.831934
2160.000000	0.831912
2158.000000	0.831875
2156.000000	0.831849
2154.000000	0.831798
2152.000000	0.831730
2150.000000	0.831700
2148.000000	0.831694
2146.000000	0.831659
2144.000000	0.831595
2142.000000	0.831538
2140.000000	0.831516
2138.000000	0.831492
2136.000000	0.831427
2134.000000	0.831351
2132.000000	0.831344
2130.000000	0.831337
2128.000000	0.831285
2126.000000	0.831264
2124.000000	0.831280
2122.000000	0.831225
2120.000000	0.831178
2118.000000	0.831198
2116.000000	0.831184
2114.000000	0.831089
2112.000000	0.831048
2110.000000	0.831025
2108.000000	0.830962
2106.000000	0.830925
2104.000000	0.830881
2102.000000	0.830855
2100.000000	0.830812
2098.000000	0.830768
2096.000000	0.830781
2094.000000	0.830776
2092.000000	0.830725
2090.000000	0.830682
2088.000000	0.830673
2086.000000	0.830633
2084.000000	0.830597
2082.000000	0.830576
2080.000000	0.830573
2078.000000	0.830568
2076.000000	0.830472
2074.000000	0.830358
2072.000000	0.830352
2070.000000	0.830402
2068.000000	0.830412
2066.000000	0.830345
2064.000000	0.830277
2062.000000	0.830218
2060.000000	0.830194
2058.000000	0.830183
2056.000000	0.830115
2054.000000	0.830060
2052.000000	0.830077
2050.000000	0.830072
2048.000000	0.830027
2046.000000	0.829994
2044.000000	0.829975
2042.000000	0.829893
2040.000000	0.829829
2038.000000	0.829819
2036.000000	0.829805
2034.000000	0.829776
2032.000000	0.829686
2030.000000	0.829596
2028.000000	0.829571
2026.000000	0.829543
2024.000000	0.829529
2022.000000	0.829504
2020.000000	0.829431
2018.000000	0.829355
2016.000000	0.829336
2014.000000	0.829305
2012.000000	0.829273
2010.000000	0.829275
2008.000000	0.829289
2006.000000	0.829217
2004.000000	0.829164
2002.000000	0.829154
2000.000000	0.829112
1998.000000	0.829064
1996.000000	0.828993
1994.000000	0.828906
1992.000000	0.828912
1990.000000	0.828936
1988.000000	0.828914
1986.000000	0.828893
1984.000000	0.828855
1982.000000	0.828807
1980.000000	0.828756
1978.000000	0.828713
1976.000000	0.828683
1974.000000	0.828647
1972.000000	0.828611
1970.000000	0.828614
1968.000000	0.828604
1966.000000	0.828592
1964.000000	0.828588
1962.000000	0.828536
1960.000000	0.828487
1958.000000	0.828500
1956.000000	0.828510
1954.000000	0.828484
1952.000000	0.828456
1950.000000	0.828446
1948.000000	0.828427
1946.000000	0.828376
1944.000000	0.828306
1942.000000	0.828345
1940.000000	0.828441
1938.000000	0.828445
1936.000000	0.828441
1934.000000	0.828410
1932.000000	0.828359
1930.000000	0.828348
1928.000000	0.828367
1926.000000	0.828350
1924.000000	0.828333
1922.000000	0.828345
1920.000000	0.828274
1918.000000	0.828303
1916.000000	0.828438
1914.000000	0.828420
1912.000000	0.828353
1910.000000	0.828339
1908.000000	0.828363
1906.000000	0.828348
1904.000000	0.828356
1902.000000	0.828382
1900.000000	0.828398
1898.000000	0.828363
1896.000000	0.828371
1894.000000	0.828375
1892.000000	0.828330
1890.000000	0.828304
1888.000000	0.828340
1886.000000	0.828278
1884.000000	0.828227
1882.000000	0.828209
1880.000000	0.828171
1878.000000	0.828132
1876.000000	0.828106
1874.000000	0.828089
1872.000000	0.828012
1870.000000	0.827943
1868.000000	0.828029
1866.000000	0.828051
1864.000000	0.827987
1862.000000	0.827923
1860.000000	0.827926
1858.000000	0.827928
1856.000000	0.827931
1854.000000	0.827907
1852.000000	0.827877
1850.000000	0.827804
1848.000000	0.827685
1846.000000	0.827538
1844.000000	0.827733
1842.000000	0.827936
1840.000000	0.827862
1838.000000	0.827804
1836.000000	0.827760
1834.000000	0.827687
1832.000000	0.827570
1830.000000	0.827585
1828.000000	0.827671
1826.000000	0.827680
1824.000000	0.827797
1822.000000	0.827798
1820.000000	0.827757
1818.000000	0.827779
1816.000000	0.827846
1814.000000	0.827850
1812.000000	0.827850
1810.000000	0.827863
1808.000000	0.827860
1806.000000	0.827827
1804.000000	0.827721
1802.000000	0.827667
1800.000000	0.827793
1798.000000	0.827811
1796.000000	0.827654
1794.000000	0.827449
1792.000000	0.827620
1790.000000	0.827817
1788.000000	0.827752
1786.000000	0.827706
1784.000000	0.827775
1782.000000	0.827761
1780.000000	0.827836
1778.000000	0.827852
1776.000000	0.827666
1774.000000	0.827479
1772.000000	0.827780
1770.000000	0.827991
1768.000000	0.827993
1766.000000	0.828053
1764.000000	0.827883
1762.000000	0.827926
1760.000000	0.828071
1758.000000	0.828001
1756.000000	0.828093
1754.000000	0.828028
1752.000000	0.827914
1750.000000	0.828149
1748.000000	0.828255
1746.000000	0.828271
1744.000000	0.828234
1742.000000	0.828136
1740.000000	0.828231
1738.000000	0.828296
1736.000000	0.827809
1734.000000	0.828037
1732.000000	0.828597
1730.000000	0.828569
1728.000000	0.828614
1726.000000	0.828651
1724.000000	0.828670
1722.000000	0.828572
1720.000000	0.828180
1718.000000	0.828133
1716.000000	0.828646
1714.000000	0.828814
1712.000000	0.828839
1710.000000	0.828799
1708.000000	0.828724
1706.000000	0.828712
1704.000000	0.828719
1702.000000	0.828216
1700.000000	0.828529
1698.000000	0.828670
1696.000000	0.828707
1694.000000	0.829284
1692.000000	0.829170
1690.000000	0.829093
1688.000000	0.828886
1686.000000	0.828492
1684.000000	0.829058
1682.000000	0.829480
1680.000000	0.829325
1678.000000	0.829158
1676.000000	0.829051
1674.000000	0.829386
1672.000000	0.829315
1670.000000	0.829340
1668.000000	0.829672
1666.000000	0.829606
1664.000000	0.829401
1662.000000	0.829611
1660.000000	0.829750
1658.000000	0.829648
1656.000000	0.829050
1654.000000	0.828719
1652.000000	0.829774
1650.000000	0.829902
1648.000000	0.829448
1646.000000	0.829871
1644.000000	0.830202
1642.000000	0.830068
1640.000000	0.829937
1638.000000	0.829618
1636.000000	0.829665
1634.000000	0.830179
1632.000000	0.830124
1630.000000	0.829939
1628.000000	0.829916
1626.000000	0.829804
1624.000000	0.829718
1622.000000	0.829862
1620.000000	0.829641
1618.000000	0.829381
1616.000000	0.829830
1614.000000	0.830102
1612.000000	0.829991
1610.000000	0.830022
1608.000000	0.830106
1606.000000	0.830224
1604.000000	0.830267
1602.000000	0.830269
1600.000000	0.830214
1598.000000	0.830225
1596.000000	0.830221
1594.000000	0.830230
1592.000000	0.830250
1590.000000	0.830234
1588.000000	0.830226
1586.000000	0.830256
1584.000000	0.830285
1582.000000	0.830301
1580.000000	0.830193
1578.000000	0.829875
1576.000000	0.830185
1574.000000	0.830515
1572.000000	0.830051
1570.000000	0.830029
1568.000000	0.830326
1566.000000	0.830345
1564.000000	0.830221
1562.000000	0.829640
1560.000000	0.829368
1558.000000	0.830188
1556.000000	0.830374
1554.000000	0.830373
1552.000000	0.830499
1550.000000	0.830509
1548.000000	0.830478
1546.000000	0.830282
1544.000000	0.830093
1542.000000	0.829796
1540.000000	0.830017
1538.000000	0.830647
1536.000000	0.830450
1534.000000	0.830299
1532.000000	0.830536
1530.000000	0.830470
1528.000000	0.830321
1526.000000	0.830313
1524.000000	0.830135
1522.000000	0.829990
1520.000000	0.830314
1518.000000	0.830334
1516.000000	0.830435
1514.000000	0.830469
1512.000000	0.830366
1510.000000	0.830040
1508.000000	0.829655
1506.000000	0.830097
1504.000000	0.830460
1502.000000	0.830167
1500.000000	0.829865
1498.000000	0.829705
1496.000000	0.830117
1494.000000	0.830538
1492.000000	0.830496
1490.000000	0.830510
1488.000000	0.830516
1486.000000	0.830417
1484.000000	0.830339
1482.000000	0.830316
1480.000000	0.830260
1478.000000	0.830093
1476.000000	0.829964
1474.000000	0.829806
1472.000000	0.830043
1470.000000	0.830233
1468.000000	0.830098
1466.000000	0.829976
1464.000000	0.830065
1462.000000	0.830006
1460.000000	0.829545
1458.000000	0.829266
1456.000000	0.829798
1454.000000	0.829978
1452.000000	0.829814
1450.000000	0.829928
1448.000000	0.830079
1446.000000	0.830112
1444.000000	0.829982
1442.000000	0.829849
1440.000000	0.829608
1438.000000	0.829361
1436.000000	0.829557
1434.000000	0.829653
1432.000000	0.829519
1430.000000	0.829556
1428.000000	0.829572
1426.000000	0.829502
1424.000000	0.829466
1422.000000	0.829280
1420.000000	0.829139
1418.000000	0.829424
1416.000000	0.829412
1414.000000	0.829342
1412.000000	0.829328
1410.000000	0.829270
1408.000000	0.829162
1406.000000	0.829132
1404.000000	0.829202
1402.000000	0.829169
1400.000000	0.829096
1398.000000	0.829055
1396.000000	0.828911
1394.000000	0.828939
1392.000000	0.828914
1390.000000	0.828719
1388.000000	0.828637
1386.000000	0.828729
1384.000000	0.828727
1382.000000	0.828684
1380.000000	0.828654
1378.000000	0.828668
1376.000000	0.828603
1374.000000	0.828572
1372.000000	0.828546
1370.000000	0.828475
1368.000000	0.828405
1366.000000	0.828318
1364.000000	0.828246
1362.000000	0.828263
1360.000000	0.828261
1358.000000	0.828273
1356.000000	0.828324
1354.000000	0.828298
1352.000000	0.828184
1350.000000	0.828145
1348.000000	0.828182
1346.000000	0.828175
1344.000000	0.828161
1342.000000	0.828107
1340.000000	0.828103
1338.000000	0.828110
1336.000000	0.828085
1334.000000	0.828101
1332.000000	0.828090
1330.000000	0.828101
1328.000000	0.828147
1326.000000	0.828194
1324.000000	0.828180
1322.000000	0.828118
1320.000000	0.828086
1318.000000	0.828072
1316.000000	0.828081
1314.000000	0.828137
1312.000000	0.828209
1310.000000	0.828247
1308.000000	0.828229
1306.000000	0.828252
1304.000000	0.828234
1302.000000	0.828249
1300.000000	0.828346
1298.000000	0.828470
1296.000000	0.828506
1294.000000	0.828486
1292.000000	0.828416
1290.000000	0.828422
1288.000000	0.828446
1286.000000	0.828514
1284.000000	0.828552
1282.000000	0.828566
1280.000000	0.828661
1278.000000	0.828794
1276.000000	0.828914
1274.000000	0.829007
1272.000000	0.829256
1270.000000	0.829772
1268.000000	0.830442
1266.000000	0.831348
1264.000000	0.832527
1262.000000	0.833578
1260.000000	0.834052
1258.000000	0.833809
1256.000000	0.833062
1254.000000	0.832128
1252.000000	0.831455
1250.000000	0.831217
1248.000000	0.831097
1246.000000	0.831030
1244.000000	0.831090
1242.000000	0.831157
1240.000000	0.831193
1238.000000	0.831298
1236.000000	0.831509
1234.000000	0.831621
1232.000000	0.831622
1230.000000	0.831730
1228.000000	0.831854
1226.000000	0.831932
1224.000000	0.832049
1222.000000	0.832181
1220.000000	0.832234
1218.000000	0.832244
1216.000000	0.832302
1214.000000	0.832479
1212.000000	0.832612
1210.000000	0.832759
1208.000000	0.832928
1206.000000	0.833028
1204.000000	0.833190
1202.000000	0.833324
1200.000000	0.833440
1198.000000	0.833605
1196.000000	0.833782
1194.000000	0.833923
1192.000000	0.834125
1190.000000	0.834389
1188.000000	0.834618
1186.000000	0.834942
1184.000000	0.835230
1182.000000	0.835532
1180.000000	0.835856
1178.000000	0.836061
1176.000000	0.836151
1174.000000	0.836267
1172.000000	0.836503
1170.000000	0.836826
1168.000000	0.837106
1166.000000	0.837370
1164.000000	0.837569
1162.000000	0.837689
1160.000000	0.837826
1158.000000	0.838056
1156.000000	0.838159
1154.000000	0.838255
1152.000000	0.838410
1150.000000	0.838558
1148.000000	0.838616
1146.000000	0.838552
1144.000000	0.838751
1142.000000	0.839081
1140.000000	0.839216
1138.000000	0.839319
1136.000000	0.839302
1134.000000	0.839280
1132.000000	0.839337
1130.000000	0.839373
1128.000000	0.839447
1126.000000	0.839665
1124.000000	0.839801
1122.000000	0.839905
1120.000000	0.840148
1118.000000	0.840491
1116.000000	0.840716
1114.000000	0.840776
1112.000000	0.840758
1110.000000	0.840876
1108.000000	0.841125
1106.000000	0.841485
1104.000000	0.841825
1102.000000	0.842143
1100.000000	0.842448
1098.000000	0.842602
1096.000000	0.842477
1094.000000	0.842522
1092.000000	0.842799
1090.000000	0.842831
1088.000000	0.842425
1086.000000	0.842151
1084.000000	0.841978
1082.000000	0.841999
1080.000000	0.842003
1078.000000	0.841665
1076.000000	0.841538
1074.000000	0.841481
1072.000000	0.841040
1070.000000	0.840475
1068.000000	0.840263
1066.000000	0.840277
1064.000000	0.840037
1062.000000	0.839663
1060.000000	0.839245
1058.000000	0.838824
1056.000000	0.838195
1054.000000	0.837677
1052.000000	0.837264
1050.000000	0.837183
1048.000000	0.837124
1046.000000	0.836892
1044.000000	0.836442
1042.000000	0.835980
1040.000000	0.835710
1038.000000	0.835469
1036.000000	0.835062
1034.000000	0.834521
1032.000000	0.834078
1030.000000	0.833787
1028.000000	0.834004
1026.000000	0.833921
1024.000000	0.833476
1022.000000	0.833268
1020.000000	0.832795
1018.000000	0.832482
1016.000000	0.832457
1014.000000	0.831848
1012.000000	0.830986
1010.000000	0.830178
1008.000000	0.829316
1006.000000	0.828713
1004.000000	0.828240
1002.000000	0.827518
1000.000000	0.826908
