PE IR       SUBTECH     SPECTRUM    ASCII       PEDS        4.00        
   -1
TE110A_005_80K.ASC
20/05/14
11:41:17.00
20/05/14
11:41:17.00
Administrator
TE108A, Thursday, May 14 2020, 001.
1000.000000
#HDR
-1
-1
#GR
cm-1
A
1.0
0.0
6000.000000
-2.000000
2501
8
0.855562
0.822039
#DATA
6000.000000	0.830012
5998.000000	0.829810
5996.000000	0.829701
5994.000000	0.829692
5992.000000	0.829822
5990.000000	0.829970
5988.000000	0.830120
5986.000000	0.830315
5984.000000	0.830377
5982.000000	0.830299
5980.000000	0.830121
5978.000000	0.829918
5976.000000	0.829932
5974.000000	0.829975
5972.000000	0.830051
5970.000000	0.830230
5968.000000	0.830399
5966.000000	0.830398
5964.000000	0.830366
5962.000000	0.830215
5960.000000	0.830199
5958.000000	0.830089
5956.000000	0.829942
5954.000000	0.829967
5952.000000	0.830056
5950.000000	0.830223
5948.000000	0.830256
5946.000000	0.830143
5944.000000	0.830138
5942.000000	0.830242
5940.000000	0.830226
5938.000000	0.830140
5936.000000	0.830072
5934.000000	0.830134
5932.000000	0.830324
5930.000000	0.830393
5928.000000	0.830512
5926.000000	0.830708
5924.000000	0.830765
5922.000000	0.830596
5920.000000	0.830385
5918.000000	0.830341
5916.000000	0.830543
5914.000000	0.830737
5912.000000	0.830706
5910.000000	0.830534
5908.000000	0.830407
5906.000000	0.830358
5904.000000	0.830349
5902.000000	0.830357
5900.000000	0.830451
5898.000000	0.830512
5896.000000	0.830652
5894.000000	0.830613
5892.000000	0.830578
5890.000000	0.830568
5888.000000	0.830409
5886.000000	0.830255
5884.000000	0.830150
5882.000000	0.830275
5880.000000	0.830484
5878.000000	0.830481
5876.000000	0.830504
5874.000000	0.830583
5872.000000	0.830703
5870.000000	0.830697
5868.000000	0.830593
5866.000000	0.830499
5864.000000	0.830480
5862.000000	0.830450
5860.000000	0.830429
5858.000000	0.830447
5856.000000	0.830519
5854.000000	0.830610
5852.000000	0.830678
5850.000000	0.830686
5848.000000	0.830788
5846.000000	0.830761
5844.000000	0.830629
5842.000000	0.830485
5840.000000	0.830469
5838.000000	0.830613
5836.000000	0.830719
5834.000000	0.830731
5832.000000	0.830623
5830.000000	0.830585
5828.000000	0.830595
5826.000000	0.830687
5824.000000	0.830773
5822.000000	0.830725
5820.000000	0.830718
5818.000000	0.830751
5816.000000	0.830827
5814.000000	0.830872
5812.000000	0.830953
5810.000000	0.830985
5808.000000	0.830929
5806.000000	0.830909
5804.000000	0.831034
5802.000000	0.831086
5800.000000	0.831025
5798.000000	0.830928
5796.000000	0.830975
5794.000000	0.831010
5792.000000	0.830981
5790.000000	0.830982
5788.000000	0.831017
5786.000000	0.831003
5784.000000	0.830997
5782.000000	0.831031
5780.000000	0.830977
5778.000000	0.830908
5776.000000	0.830984
5774.000000	0.831030
5772.000000	0.831084
5770.000000	0.831018
5768.000000	0.830970
5766.000000	0.831043
5764.000000	0.831040
5762.000000	0.831048
5760.000000	0.831001
5758.000000	0.830992
5756.000000	0.831049
5754.000000	0.830880
5752.000000	0.830785
5750.000000	0.830740
5748.000000	0.830832
5746.000000	0.830757
5744.000000	0.830653
5742.000000	0.830695
5740.000000	0.830796
5738.000000	0.830914
5736.000000	0.830968
5734.000000	0.831033
5732.000000	0.831016
5730.000000	0.830999
5728.000000	0.831013
5726.000000	0.831129
5724.000000	0.831224
5722.000000	0.831204
5720.000000	0.831224
5718.000000	0.831257
5716.000000	0.831441
5714.000000	0.831596
5712.000000	0.831529
5710.000000	0.831356
5708.000000	0.831100
5706.000000	0.831052
5704.000000	0.831177
5702.000000	0.831289
5700.000000	0.831225
5698.000000	0.831049
5696.000000	0.831049
5694.000000	0.831167
5692.000000	0.831393
5690.000000	0.831476
5688.000000	0.831421
5686.000000	0.831224
5684.000000	0.831125
5682.000000	0.831160
5680.000000	0.831227
5678.000000	0.831172
5676.000000	0.831063
5674.000000	0.831041
5672.000000	0.831058
5670.000000	0.831055
5668.000000	0.831019
5666.000000	0.831079
5664.000000	0.831190
5662.000000	0.831221
5660.000000	0.831124
5658.000000	0.831065
5656.000000	0.831087
5654.000000	0.831183
5652.000000	0.831176
5650.000000	0.831130
5648.000000	0.831099
5646.000000	0.831096
5644.000000	0.831139
5642.000000	0.831212
5640.000000	0.831373
5638.000000	0.831494
5636.000000	0.831466
5634.000000	0.831309
5632.000000	0.831181
5630.000000	0.831089
5628.000000	0.831043
5626.000000	0.831155
5624.000000	0.831314
5622.000000	0.831391
5620.000000	0.831304
5618.000000	0.831177
5616.000000	0.831090
5614.000000	0.831143
5612.000000	0.831346
5610.000000	0.831560
5608.000000	0.831694
5606.000000	0.831626
5604.000000	0.831567
5602.000000	0.831481
5600.000000	0.831349
5598.000000	0.831245
5596.000000	0.831243
5594.000000	0.831375
5592.000000	0.831365
5590.000000	0.831291
5588.000000	0.831304
5586.000000	0.831392
5584.000000	0.831476
5582.000000	0.831476
5580.000000	0.831535
5578.000000	0.831471
5576.000000	0.831271
5574.000000	0.831185
5572.000000	0.831262
5570.000000	0.831420
5568.000000	0.831419
5566.000000	0.831295
5564.000000	0.831252
5562.000000	0.831251
5560.000000	0.831298
5558.000000	0.831360
5556.000000	0.831389
5554.000000	0.831427
5552.000000	0.831348
5550.000000	0.831319
5548.000000	0.831366
5546.000000	0.831462
5544.000000	0.831465
5542.000000	0.831267
5540.000000	0.831162
5538.000000	0.831246
5536.000000	0.831424
5534.000000	0.831528
5532.000000	0.831494
5530.000000	0.831383
5528.000000	0.831211
5526.000000	0.831140
5524.000000	0.831212
5522.000000	0.831255
5520.000000	0.831221
5518.000000	0.831228
5516.000000	0.831415
5514.000000	0.831594
5512.000000	0.831566
5510.000000	0.831404
5508.000000	0.831276
5506.000000	0.831234
5504.000000	0.831251
5502.000000	0.831288
5500.000000	0.831325
5498.000000	0.831252
5496.000000	0.831085
5494.000000	0.831010
5492.000000	0.831047
5490.000000	0.831077
5488.000000	0.831106
5486.000000	0.831145
5484.000000	0.831257
5482.000000	0.831247
5480.000000	0.831148
5478.000000	0.831087
5476.000000	0.831127
5474.000000	0.831251
5472.000000	0.831298
5470.000000	0.831231
5468.000000	0.831082
5466.000000	0.830919
5464.000000	0.830835
5462.000000	0.830864
5460.000000	0.830999
5458.000000	0.831107
5456.000000	0.831155
5454.000000	0.831148
5452.000000	0.831075
5450.000000	0.830924
5448.000000	0.830787
5446.000000	0.830720
5444.000000	0.830750
5442.000000	0.830888
5440.000000	0.830967
5438.000000	0.830909
5436.000000	0.830861
5434.000000	0.830883
5432.000000	0.830860
5430.000000	0.830783
5428.000000	0.830877
5426.000000	0.831149
5424.000000	0.831378
5422.000000	0.831442
5420.000000	0.831372
5418.000000	0.831128
5416.000000	0.830788
5414.000000	0.830568
5412.000000	0.830627
5410.000000	0.830886
5408.000000	0.831122
5406.000000	0.831213
5404.000000	0.831220
5402.000000	0.831240
5400.000000	0.831259
5398.000000	0.831109
5396.000000	0.830859
5394.000000	0.830750
5392.000000	0.830880
5390.000000	0.830985
5388.000000	0.830995
5386.000000	0.831082
5384.000000	0.831210
5382.000000	0.831261
5380.000000	0.831132
5378.000000	0.830955
5376.000000	0.830822
5374.000000	0.830853
5372.000000	0.831041
5370.000000	0.831186
5368.000000	0.831192
5366.000000	0.831144
5364.000000	0.831147
5362.000000	0.831170
5360.000000	0.831182
5358.000000	0.831092
5356.000000	0.830874
5354.000000	0.830697
5352.000000	0.830721
5350.000000	0.830781
5348.000000	0.830664
5346.000000	0.830535
5344.000000	0.830598
5342.000000	0.830726
5340.000000	0.830753
5338.000000	0.830816
5336.000000	0.830908
5334.000000	0.830997
5332.000000	0.830990
5330.000000	0.830917
5328.000000	0.830919
5326.000000	0.831001
5324.000000	0.831223
5322.000000	0.831333
5320.000000	0.831343
5318.000000	0.831292
5316.000000	0.831314
5314.000000	0.831317
5312.000000	0.831222
5310.000000	0.831104
5308.000000	0.831084
5306.000000	0.831191
5304.000000	0.831316
5302.000000	0.831316
5300.000000	0.831195
5298.000000	0.831070
5296.000000	0.831080
5294.000000	0.831099
5292.000000	0.830993
5290.000000	0.830950
5288.000000	0.831016
5286.000000	0.831163
5284.000000	0.831206
5282.000000	0.831137
5280.000000	0.831093
5278.000000	0.831156
5276.000000	0.831230
5274.000000	0.831236
5272.000000	0.831207
5270.000000	0.831155
5268.000000	0.831042
5266.000000	0.830811
5264.000000	0.830618
5262.000000	0.830564
5260.000000	0.830659
5258.000000	0.830688
5256.000000	0.830710
5254.000000	0.830770
5252.000000	0.830828
5250.000000	0.830739
5248.000000	0.830629
5246.000000	0.830671
5244.000000	0.830874
5242.000000	0.831055
5240.000000	0.831106
5238.000000	0.831090
5236.000000	0.831075
5234.000000	0.831030
5232.000000	0.830960
5230.000000	0.830962
5228.000000	0.830920
5226.000000	0.830878
5224.000000	0.830918
5222.000000	0.830981
5220.000000	0.831029
5218.000000	0.831080
5216.000000	0.831170
5214.000000	0.831199
5212.000000	0.831147
5210.000000	0.830946
5208.000000	0.830732
5206.000000	0.830746
5204.000000	0.831014
5202.000000	0.831176
5200.000000	0.831095
5198.000000	0.831030
5196.000000	0.831082
5194.000000	0.831162
5192.000000	0.831129
5190.000000	0.831046
5188.000000	0.831016
5186.000000	0.831021
5184.000000	0.830972
5182.000000	0.830892
5180.000000	0.830874
5178.000000	0.830970
5176.000000	0.831043
5174.000000	0.831030
5172.000000	0.830960
5170.000000	0.830919
5168.000000	0.830914
5166.000000	0.830867
5164.000000	0.830847
5162.000000	0.830826
5160.000000	0.830792
5158.000000	0.830770
5156.000000	0.830811
5154.000000	0.830837
5152.000000	0.830873
5150.000000	0.830985
5148.000000	0.831137
5146.000000	0.831190
5144.000000	0.831088
5142.000000	0.830953
5140.000000	0.830941
5138.000000	0.831073
5136.000000	0.831129
5134.000000	0.831149
5132.000000	0.831188
5130.000000	0.831238
5128.000000	0.831233
5126.000000	0.831264
5124.000000	0.831318
5122.000000	0.831246
5120.000000	0.831111
5118.000000	0.831038
5116.000000	0.831084
5114.000000	0.831131
5112.000000	0.831117
5110.000000	0.831093
5108.000000	0.831122
5106.000000	0.831180
5104.000000	0.831220
5102.000000	0.831214
5100.000000	0.831196
5098.000000	0.831158
5096.000000	0.831166
5094.000000	0.831149
5092.000000	0.831148
5090.000000	0.831229
5088.000000	0.831321
5086.000000	0.831242
5084.000000	0.831048
5082.000000	0.830965
5080.000000	0.831025
5078.000000	0.831149
5076.000000	0.831249
5074.000000	0.831254
5072.000000	0.831136
5070.000000	0.830996
5068.000000	0.830940
5066.000000	0.830946
5064.000000	0.831004
5062.000000	0.831094
5060.000000	0.831166
5058.000000	0.831197
5056.000000	0.831210
5054.000000	0.831193
5052.000000	0.831110
5050.000000	0.831066
5048.000000	0.831105
5046.000000	0.831176
5044.000000	0.831200
5042.000000	0.831199
5040.000000	0.831200
5038.000000	0.831213
5036.000000	0.831210
5034.000000	0.831227
5032.000000	0.831261
5030.000000	0.831261
5028.000000	0.831186
5026.000000	0.831134
5024.000000	0.831135
5022.000000	0.831188
5020.000000	0.831237
5018.000000	0.831276
5016.000000	0.831308
5014.000000	0.831381
5012.000000	0.831450
5010.000000	0.831430
5008.000000	0.831388
5006.000000	0.831360
5004.000000	0.831261
5002.000000	0.831137
5000.000000	0.831128
4998.000000	0.831171
4996.000000	0.831131
4994.000000	0.831069
4992.000000	0.831090
4990.000000	0.831213
4988.000000	0.831338
4986.000000	0.831361
4984.000000	0.831243
4982.000000	0.831086
4980.000000	0.831032
4978.000000	0.831127
4976.000000	0.831193
4974.000000	0.831177
4972.000000	0.831117
4970.000000	0.831085
4968.000000	0.831072
4966.000000	0.831072
4964.000000	0.831092
4962.000000	0.831143
4960.000000	0.831206
4958.000000	0.831205
4956.000000	0.831169
4954.000000	0.831160
4952.000000	0.831187
4950.000000	0.831262
4948.000000	0.831327
4946.000000	0.831327
4944.000000	0.831315
4942.000000	0.831329
4940.000000	0.831357
4938.000000	0.831309
4936.000000	0.831255
4934.000000	0.831233
4932.000000	0.831240
4930.000000	0.831248
4928.000000	0.831286
4926.000000	0.831357
4924.000000	0.831358
4922.000000	0.831320
4920.000000	0.831261
4918.000000	0.831237
4916.000000	0.831222
4914.000000	0.831205
4912.000000	0.831213
4910.000000	0.831264
4908.000000	0.831277
4906.000000	0.831240
4904.000000	0.831198
4902.000000	0.831214
4900.000000	0.831238
4898.000000	0.831245
4896.000000	0.831175
4894.000000	0.831078
4892.000000	0.831085
4890.000000	0.831136
4888.000000	0.831124
4886.000000	0.831070
4884.000000	0.831092
4882.000000	0.831143
4880.000000	0.831175
4878.000000	0.831215
4876.000000	0.831251
4874.000000	0.831246
4872.000000	0.831240
4870.000000	0.831278
4868.000000	0.831302
4866.000000	0.831290
4864.000000	0.831295
4862.000000	0.831313
4860.000000	0.831275
4858.000000	0.831219
4856.000000	0.831166
4854.000000	0.831164
4852.000000	0.831224
4850.000000	0.831302
4848.000000	0.831318
4846.000000	0.831329
4844.000000	0.831425
4842.000000	0.831520
4840.000000	0.831465
4838.000000	0.831318
4836.000000	0.831226
4834.000000	0.831241
4832.000000	0.831293
4830.000000	0.831349
4828.000000	0.831387
4826.000000	0.831406
4824.000000	0.831390
4822.000000	0.831370
4820.000000	0.831363
4818.000000	0.831343
4816.000000	0.831312
4814.000000	0.831293
4812.000000	0.831243
4810.000000	0.831203
4808.000000	0.831245
4806.000000	0.831305
4804.000000	0.831328
4802.000000	0.831339
4800.000000	0.831367
4798.000000	0.831345
4796.000000	0.831300
4794.000000	0.831242
4792.000000	0.831200
4790.000000	0.831194
4788.000000	0.831236
4786.000000	0.831280
4784.000000	0.831228
4782.000000	0.831131
4780.000000	0.831091
4778.000000	0.831137
4776.000000	0.831185
4774.000000	0.831197
4772.000000	0.831185
4770.000000	0.831189
4768.000000	0.831215
4766.000000	0.831228
4764.000000	0.831213
4762.000000	0.831199
4760.000000	0.831216
4758.000000	0.831283
4756.000000	0.831356
4754.000000	0.831380
4752.000000	0.831375
4750.000000	0.831349
4748.000000	0.831303
4746.000000	0.831257
4744.000000	0.831264
4742.000000	0.831323
4740.000000	0.831314
4738.000000	0.831232
4736.000000	0.831194
4734.000000	0.831208
4732.000000	0.831181
4730.000000	0.831205
4728.000000	0.831307
4726.000000	0.831344
4724.000000	0.831297
4722.000000	0.831271
4720.000000	0.831238
4718.000000	0.831158
4716.000000	0.831103
4714.000000	0.831137
4712.000000	0.831167
4710.000000	0.831189
4708.000000	0.831287
4706.000000	0.831423
4704.000000	0.831430
4702.000000	0.831355
4700.000000	0.831321
4698.000000	0.831313
4696.000000	0.831253
4694.000000	0.831175
4692.000000	0.831158
4690.000000	0.831141
4688.000000	0.831118
4686.000000	0.831131
4684.000000	0.831176
4682.000000	0.831164
4680.000000	0.831165
4678.000000	0.831217
4676.000000	0.831269
4674.000000	0.831267
4672.000000	0.831252
4670.000000	0.831241
4668.000000	0.831257
4666.000000	0.831278
4664.000000	0.831282
4662.000000	0.831263
4660.000000	0.831280
4658.000000	0.831340
4656.000000	0.831363
4654.000000	0.831326
4652.000000	0.831297
4650.000000	0.831312
4648.000000	0.831307
4646.000000	0.831299
4644.000000	0.831308
4642.000000	0.831319
4640.000000	0.831318
4638.000000	0.831325
4636.000000	0.831333
4634.000000	0.831350
4632.000000	0.831411
4630.000000	0.831443
4628.000000	0.831381
4626.000000	0.831293
4624.000000	0.831245
4622.000000	0.831274
4620.000000	0.831364
4618.000000	0.831438
4616.000000	0.831419
4614.000000	0.831343
4612.000000	0.831294
4610.000000	0.831307
4608.000000	0.831290
4606.000000	0.831228
4604.000000	0.831214
4602.000000	0.831260
4600.000000	0.831314
4598.000000	0.831355
4596.000000	0.831397
4594.000000	0.831438
4592.000000	0.831439
4590.000000	0.831350
4588.000000	0.831261
4586.000000	0.831262
4584.000000	0.831309
4582.000000	0.831309
4580.000000	0.831299
4578.000000	0.831329
4576.000000	0.831371
4574.000000	0.831383
4572.000000	0.831372
4570.000000	0.831366
4568.000000	0.831425
4566.000000	0.831515
4564.000000	0.831558
4562.000000	0.831521
4560.000000	0.831512
4558.000000	0.831525
4556.000000	0.831523
4554.000000	0.831537
4552.000000	0.831599
4550.000000	0.831620
4548.000000	0.831590
4546.000000	0.831569
4544.000000	0.831554
4542.000000	0.831505
4540.000000	0.831460
4538.000000	0.831449
4536.000000	0.831447
4534.000000	0.831457
4532.000000	0.831538
4530.000000	0.831581
4528.000000	0.831543
4526.000000	0.831546
4524.000000	0.831587
4522.000000	0.831554
4520.000000	0.831488
4518.000000	0.831460
4516.000000	0.831490
4514.000000	0.831541
4512.000000	0.831539
4510.000000	0.831504
4508.000000	0.831526
4506.000000	0.831568
4504.000000	0.831568
4502.000000	0.831604
4500.000000	0.831687
4498.000000	0.831704
4496.000000	0.831664
4494.000000	0.831674
4492.000000	0.831698
4490.000000	0.831677
4488.000000	0.831598
4486.000000	0.831547
4484.000000	0.831573
4482.000000	0.831614
4480.000000	0.831657
4478.000000	0.831696
4476.000000	0.831648
4474.000000	0.831579
4472.000000	0.831601
4470.000000	0.831632
4468.000000	0.831610
4466.000000	0.831614
4464.000000	0.831688
4462.000000	0.831783
4460.000000	0.831822
4458.000000	0.831797
4456.000000	0.831777
4454.000000	0.831790
4452.000000	0.831809
4450.000000	0.831790
4448.000000	0.831765
4446.000000	0.831789
4444.000000	0.831819
4442.000000	0.831821
4440.000000	0.831850
4438.000000	0.831891
4436.000000	0.831871
4434.000000	0.831818
4432.000000	0.831808
4430.000000	0.831833
4428.000000	0.831826
4426.000000	0.831829
4424.000000	0.831869
4422.000000	0.831902
4420.000000	0.831912
4418.000000	0.831891
4416.000000	0.831828
4414.000000	0.831802
4412.000000	0.831842
4410.000000	0.831873
4408.000000	0.831897
4406.000000	0.831972
4404.000000	0.832005
4402.000000	0.831938
4400.000000	0.831876
4398.000000	0.831878
4396.000000	0.831856
4394.000000	0.831825
4392.000000	0.831832
4390.000000	0.831884
4388.000000	0.831923
4386.000000	0.831922
4384.000000	0.831884
4382.000000	0.831877
4380.000000	0.831905
4378.000000	0.831990
4376.000000	0.832074
4374.000000	0.832071
4372.000000	0.832027
4370.000000	0.832046
4368.000000	0.832057
4366.000000	0.832009
4364.000000	0.831954
4362.000000	0.831990
4360.000000	0.832097
4358.000000	0.832142
4356.000000	0.832059
4354.000000	0.831995
4352.000000	0.832042
4350.000000	0.832131
4348.000000	0.832191
4346.000000	0.832214
4344.000000	0.832167
4342.000000	0.832083
4340.000000	0.832040
4338.000000	0.832055
4336.000000	0.832059
4334.000000	0.832006
4332.000000	0.832029
4330.000000	0.832181
4328.000000	0.832228
4326.000000	0.832131
4324.000000	0.832095
4322.000000	0.832109
4320.000000	0.832098
4318.000000	0.832075
4316.000000	0.832065
4314.000000	0.832087
4312.000000	0.832126
4310.000000	0.832139
4308.000000	0.832153
4306.000000	0.832178
4304.000000	0.832226
4302.000000	0.832285
4300.000000	0.832305
4298.000000	0.832266
4296.000000	0.832182
4294.000000	0.832162
4292.000000	0.832235
4290.000000	0.832238
4288.000000	0.832154
4286.000000	0.832138
4284.000000	0.832169
4282.000000	0.832219
4280.000000	0.832273
4278.000000	0.832276
4276.000000	0.832234
4274.000000	0.832211
4272.000000	0.832235
4270.000000	0.832325
4268.000000	0.832397
4266.000000	0.832373
4264.000000	0.832317
4262.000000	0.832286
4260.000000	0.832314
4258.000000	0.832374
4256.000000	0.832386
4254.000000	0.832379
4252.000000	0.832349
4250.000000	0.832295
4248.000000	0.832292
4246.000000	0.832302
4244.000000	0.832317
4242.000000	0.832377
4240.000000	0.832395
4238.000000	0.832353
4236.000000	0.832345
4234.000000	0.832365
4232.000000	0.832364
4230.000000	0.832388
4228.000000	0.832456
4226.000000	0.832499
4224.000000	0.832498
4222.000000	0.832478
4220.000000	0.832436
4218.000000	0.832407
4216.000000	0.832388
4214.000000	0.832376
4212.000000	0.832385
4210.000000	0.832378
4208.000000	0.832374
4206.000000	0.832402
4204.000000	0.832384
4202.000000	0.832313
4200.000000	0.832263
4198.000000	0.832298
4196.000000	0.832354
4194.000000	0.832364
4192.000000	0.832389
4190.000000	0.832431
4188.000000	0.832454
4186.000000	0.832456
4184.000000	0.832413
4182.000000	0.832393
4180.000000	0.832447
4178.000000	0.832500
4176.000000	0.832512
4174.000000	0.832510
4172.000000	0.832494
4170.000000	0.832479
4168.000000	0.832498
4166.000000	0.832528
4164.000000	0.832532
4162.000000	0.832520
4160.000000	0.832505
4158.000000	0.832541
4156.000000	0.832599
4154.000000	0.832598
4152.000000	0.832585
4150.000000	0.832583
4148.000000	0.832536
4146.000000	0.832460
4144.000000	0.832425
4142.000000	0.832430
4140.000000	0.832452
4138.000000	0.832499
4136.000000	0.832511
4134.000000	0.832480
4132.000000	0.832484
4130.000000	0.832510
4128.000000	0.832511
4126.000000	0.832482
4124.000000	0.832477
4122.000000	0.832525
4120.000000	0.832536
4118.000000	0.832484
4116.000000	0.832431
4114.000000	0.832414
4112.000000	0.832387
4110.000000	0.832320
4108.000000	0.832291
4106.000000	0.832358
4104.000000	0.832423
4102.000000	0.832419
4100.000000	0.832434
4098.000000	0.832483
4096.000000	0.832508
4094.000000	0.832511
4092.000000	0.832491
4090.000000	0.832477
4088.000000	0.832465
4086.000000	0.832447
4084.000000	0.832445
4082.000000	0.832445
4080.000000	0.832470
4078.000000	0.832516
4076.000000	0.832504
4074.000000	0.832455
4072.000000	0.832450
4070.000000	0.832488
4068.000000	0.832504
4066.000000	0.832522
4064.000000	0.832553
4062.000000	0.832552
4060.000000	0.832506
4058.000000	0.832470
4056.000000	0.832459
4054.000000	0.832441
4052.000000	0.832421
4050.000000	0.832439
4048.000000	0.832485
4046.000000	0.832498
4044.000000	0.832445
4042.000000	0.832421
4040.000000	0.832454
4038.000000	0.832452
4036.000000	0.832419
4034.000000	0.832406
4032.000000	0.832417
4030.000000	0.832424
4028.000000	0.832365
4026.000000	0.832293
4024.000000	0.832294
4022.000000	0.832333
4020.000000	0.832336
4018.000000	0.832323
4016.000000	0.832297
4014.000000	0.832267
4012.000000	0.832271
4010.000000	0.832277
4008.000000	0.832279
4006.000000	0.832315
4004.000000	0.832318
4002.000000	0.832279
4000.000000	0.832240
3998.000000	0.832240
3996.000000	0.832260
3994.000000	0.832234
3992.000000	0.832194
3990.000000	0.832216
3988.000000	0.832264
3986.000000	0.832266
3984.000000	0.832225
3982.000000	0.832221
3980.000000	0.832259
3978.000000	0.832254
3976.000000	0.832204
3974.000000	0.832167
3972.000000	0.832141
3970.000000	0.832164
3968.000000	0.832242
3966.000000	0.832264
3964.000000	0.832174
3962.000000	0.832096
3960.000000	0.832116
3958.000000	0.832131
3956.000000	0.832072
3954.000000	0.831974
3952.000000	0.831840
3950.000000	0.831704
3948.000000	0.831686
3946.000000	0.831701
3944.000000	0.831633
3942.000000	0.831726
3940.000000	0.831980
3938.000000	0.832063
3936.000000	0.831858
3934.000000	0.831510
3932.000000	0.831374
3930.000000	0.831573
3928.000000	0.831670
3926.000000	0.831517
3924.000000	0.831399
3922.000000	0.831255
3920.000000	0.830947
3918.000000	0.830820
3916.000000	0.831202
3914.000000	0.831723
3912.000000	0.831899
3910.000000	0.831720
3908.000000	0.830979
3906.000000	0.829655
3904.000000	0.828633
3902.000000	0.828551
3900.000000	0.829304
3898.000000	0.830514
3896.000000	0.831174
3894.000000	0.830622
3892.000000	0.830017
3890.000000	0.830134
3888.000000	0.829733
3886.000000	0.829206
3884.000000	0.829609
3882.000000	0.829944
3880.000000	0.830269
3878.000000	0.830758
3876.000000	0.830524
3874.000000	0.829672
3872.000000	0.828471
3870.000000	0.828066
3868.000000	0.828813
3866.000000	0.829191
3864.000000	0.829435
3862.000000	0.830190
3860.000000	0.830599
3858.000000	0.828916
3856.000000	0.824549
3854.000000	0.822039
3852.000000	0.824985
3850.000000	0.829231
3848.000000	0.830950
3846.000000	0.830750
3844.000000	0.829996
3842.000000	0.828833
3840.000000	0.827024
3838.000000	0.826317
3836.000000	0.827674
3834.000000	0.829103
3832.000000	0.829837
3830.000000	0.830432
3828.000000	0.830680
3826.000000	0.830382
3824.000000	0.829042
3822.000000	0.827667
3820.000000	0.827585
3818.000000	0.827324
3816.000000	0.827591
3814.000000	0.829630
3812.000000	0.830930
3810.000000	0.830078
3808.000000	0.828718
3806.000000	0.828498
3804.000000	0.827812
3802.000000	0.826876
3800.000000	0.828001
3798.000000	0.829571
3796.000000	0.830371
3794.000000	0.831041
3792.000000	0.831381
3790.000000	0.831396
3788.000000	0.831277
3786.000000	0.831129
3784.000000	0.831014
3782.000000	0.830692
3780.000000	0.830406
3778.000000	0.830715
3776.000000	0.831164
3774.000000	0.830981
3772.000000	0.830115
3770.000000	0.829562
3768.000000	0.829736
3766.000000	0.830107
3764.000000	0.830402
3762.000000	0.830121
3760.000000	0.829581
3758.000000	0.829524
3756.000000	0.828782
3754.000000	0.826146
3752.000000	0.823617
3750.000000	0.823746
3748.000000	0.824378
3746.000000	0.823177
3744.000000	0.823978
3742.000000	0.827340
3740.000000	0.828372
3738.000000	0.826854
3736.000000	0.825795
3734.000000	0.826195
3732.000000	0.827518
3730.000000	0.828871
3728.000000	0.829156
3726.000000	0.828952
3724.000000	0.829007
3722.000000	0.829245
3720.000000	0.829645
3718.000000	0.829908
3716.000000	0.829284
3714.000000	0.827551
3712.000000	0.826572
3710.000000	0.827887
3708.000000	0.830057
3706.000000	0.830858
3704.000000	0.830127
3702.000000	0.829554
3700.000000	0.829923
3698.000000	0.830329
3696.000000	0.830214
3694.000000	0.829365
3692.000000	0.827411
3690.000000	0.825510
3688.000000	0.826129
3686.000000	0.828469
3684.000000	0.829669
3682.000000	0.829487
3680.000000	0.828302
3678.000000	0.825827
3676.000000	0.824226
3674.000000	0.824861
3672.000000	0.825019
3670.000000	0.825384
3668.000000	0.827434
3666.000000	0.829070
3664.000000	0.829499
3662.000000	0.829405
3660.000000	0.828728
3658.000000	0.827531
3656.000000	0.827176
3654.000000	0.827085
3652.000000	0.825287
3650.000000	0.823600
3648.000000	0.824610
3646.000000	0.826950
3644.000000	0.828335
3642.000000	0.828636
3640.000000	0.828612
3638.000000	0.828474
3636.000000	0.828143
3634.000000	0.827527
3632.000000	0.825784
3630.000000	0.823797
3628.000000	0.824557
3626.000000	0.826849
3624.000000	0.827631
3622.000000	0.826711
3620.000000	0.825690
3618.000000	0.825907
3616.000000	0.826384
3614.000000	0.826204
3612.000000	0.825818
3610.000000	0.825602
3608.000000	0.826084
3606.000000	0.826996
3604.000000	0.827406
3602.000000	0.827526
3600.000000	0.827795
3598.000000	0.827716
3596.000000	0.827290
3594.000000	0.827186
3592.000000	0.827021
3590.000000	0.826149
3588.000000	0.825570
3586.000000	0.826208
3584.000000	0.827111
3582.000000	0.827464
3580.000000	0.827485
3578.000000	0.827497
3576.000000	0.827536
3574.000000	0.827540
3572.000000	0.827262
3570.000000	0.826386
3568.000000	0.825619
3566.000000	0.825935
3564.000000	0.826762
3562.000000	0.827214
3560.000000	0.827377
3558.000000	0.827504
3556.000000	0.827478
3554.000000	0.827310
3552.000000	0.827280
3550.000000	0.827284
3548.000000	0.827080
3546.000000	0.827017
3544.000000	0.827313
3542.000000	0.827675
3540.000000	0.827830
3538.000000	0.827771
3536.000000	0.827774
3534.000000	0.827886
3532.000000	0.827866
3530.000000	0.827768
3528.000000	0.827723
3526.000000	0.827720
3524.000000	0.827804
3522.000000	0.828010
3520.000000	0.828218
3518.000000	0.828380
3516.000000	0.828510
3514.000000	0.828551
3512.000000	0.828502
3510.000000	0.828531
3508.000000	0.828675
3506.000000	0.828744
3504.000000	0.828759
3502.000000	0.828930
3500.000000	0.829201
3498.000000	0.829383
3496.000000	0.829519
3494.000000	0.829700
3492.000000	0.829866
3490.000000	0.829961
3488.000000	0.830079
3486.000000	0.830263
3484.000000	0.830415
3482.000000	0.830543
3480.000000	0.830726
3478.000000	0.830966
3476.000000	0.831198
3474.000000	0.831419
3472.000000	0.831657
3470.000000	0.831833
3468.000000	0.831981
3466.000000	0.832282
3464.000000	0.832641
3462.000000	0.832890
3460.000000	0.833128
3458.000000	0.833394
3456.000000	0.833671
3454.000000	0.833951
3452.000000	0.834174
3450.000000	0.834368
3448.000000	0.834576
3446.000000	0.834873
3444.000000	0.835246
3442.000000	0.835603
3440.000000	0.835932
3438.000000	0.836209
3436.000000	0.836492
3434.000000	0.836836
3432.000000	0.837187
3430.000000	0.837506
3428.000000	0.837813
3426.000000	0.838109
3424.000000	0.838359
3422.000000	0.838603
3420.000000	0.838899
3418.000000	0.839214
3416.000000	0.839491
3414.000000	0.839724
3412.000000	0.839947
3410.000000	0.840192
3408.000000	0.840444
3406.000000	0.840650
3404.000000	0.840758
3402.000000	0.840884
3400.000000	0.841091
3398.000000	0.841312
3396.000000	0.841445
3394.000000	0.841508
3392.000000	0.841635
3390.000000	0.841865
3388.000000	0.842066
3386.000000	0.842196
3384.000000	0.842343
3382.000000	0.842499
3380.000000	0.842630
3378.000000	0.842752
3376.000000	0.842849
3374.000000	0.842929
3372.000000	0.842990
3370.000000	0.843030
3368.000000	0.843123
3366.000000	0.843263
3364.000000	0.843413
3362.000000	0.843510
3360.000000	0.843556
3358.000000	0.843649
3356.000000	0.843763
3354.000000	0.843819
3352.000000	0.843832
3350.000000	0.843917
3348.000000	0.844099
3346.000000	0.844200
3344.000000	0.844201
3342.000000	0.844191
3340.000000	0.844217
3338.000000	0.844293
3336.000000	0.844433
3334.000000	0.844526
3332.000000	0.844562
3330.000000	0.844630
3328.000000	0.844670
3326.000000	0.844710
3324.000000	0.844818
3322.000000	0.844893
3320.000000	0.844942
3318.000000	0.845007
3316.000000	0.845056
3314.000000	0.845075
3312.000000	0.845136
3310.000000	0.845224
3308.000000	0.845233
3306.000000	0.845236
3304.000000	0.845360
3302.000000	0.845530
3300.000000	0.845623
3298.000000	0.845696
3296.000000	0.845753
3294.000000	0.845747
3292.000000	0.845780
3290.000000	0.845915
3288.000000	0.846052
3286.000000	0.846143
3284.000000	0.846189
3282.000000	0.846200
3280.000000	0.846216
3278.000000	0.846264
3276.000000	0.846322
3274.000000	0.846360
3272.000000	0.846417
3270.000000	0.846488
3268.000000	0.846569
3266.000000	0.846643
3264.000000	0.846675
3262.000000	0.846669
3260.000000	0.846688
3258.000000	0.846791
3256.000000	0.846915
3254.000000	0.846993
3252.000000	0.846997
3250.000000	0.846964
3248.000000	0.846985
3246.000000	0.847065
3244.000000	0.847169
3242.000000	0.847218
3240.000000	0.847241
3238.000000	0.847329
3236.000000	0.847386
3234.000000	0.847379
3232.000000	0.847420
3230.000000	0.847533
3228.000000	0.847654
3226.000000	0.847727
3224.000000	0.847785
3222.000000	0.847844
3220.000000	0.847872
3218.000000	0.847915
3216.000000	0.847970
3214.000000	0.847986
3212.000000	0.848007
3210.000000	0.848060
3208.000000	0.848100
3206.000000	0.848089
3204.000000	0.848099
3202.000000	0.848119
3200.000000	0.848095
3198.000000	0.848069
3196.000000	0.848057
3194.000000	0.848080
3192.000000	0.848102
3190.000000	0.848102
3188.000000	0.848098
3186.000000	0.848084
3184.000000	0.848104
3182.000000	0.848100
3180.000000	0.848040
3178.000000	0.848045
3176.000000	0.848097
3174.000000	0.848115
3172.000000	0.848142
3170.000000	0.848154
3168.000000	0.848117
3166.000000	0.848121
3164.000000	0.848180
3162.000000	0.848187
3160.000000	0.848187
3158.000000	0.848195
3156.000000	0.848175
3154.000000	0.848139
3152.000000	0.848116
3150.000000	0.848173
3148.000000	0.848233
3146.000000	0.848234
3144.000000	0.848208
3142.000000	0.848180
3140.000000	0.848199
3138.000000	0.848249
3136.000000	0.848252
3134.000000	0.848265
3132.000000	0.848335
3130.000000	0.848378
3128.000000	0.848375
3126.000000	0.848385
3124.000000	0.848401
3122.000000	0.848361
3120.000000	0.848314
3118.000000	0.848325
3116.000000	0.848400
3114.000000	0.848475
3112.000000	0.848459
3110.000000	0.848423
3108.000000	0.848445
3106.000000	0.848454
3104.000000	0.848426
3102.000000	0.848356
3100.000000	0.848319
3098.000000	0.848367
3096.000000	0.848363
3094.000000	0.848282
3092.000000	0.848223
3090.000000	0.848188
3088.000000	0.848170
3086.000000	0.848117
3084.000000	0.848006
3082.000000	0.847912
3080.000000	0.847813
3078.000000	0.847767
3076.000000	0.847811
3074.000000	0.847802
3072.000000	0.847679
3070.000000	0.847564
3068.000000	0.847479
3066.000000	0.847401
3064.000000	0.847362
3062.000000	0.847336
3060.000000	0.847268
3058.000000	0.847188
3056.000000	0.847116
3054.000000	0.847082
3052.000000	0.847038
3050.000000	0.846957
3048.000000	0.846863
3046.000000	0.846729
3044.000000	0.846629
3042.000000	0.846628
3040.000000	0.846630
3038.000000	0.846586
3036.000000	0.846481
3034.000000	0.846364
3032.000000	0.846309
3030.000000	0.846296
3028.000000	0.846264
3026.000000	0.846188
3024.000000	0.846138
3022.000000	0.846114
3020.000000	0.846062
3018.000000	0.846029
3016.000000	0.846007
3014.000000	0.845943
3012.000000	0.845897
3010.000000	0.845859
3008.000000	0.845809
3006.000000	0.845774
3004.000000	0.845752
3002.000000	0.845717
3000.000000	0.845660
2998.000000	0.845571
2996.000000	0.845494
2994.000000	0.845431
2992.000000	0.845399
2990.000000	0.845401
2988.000000	0.845410
2986.000000	0.845383
2984.000000	0.845327
2982.000000	0.845283
2980.000000	0.845243
2978.000000	0.845236
2976.000000	0.845288
2974.000000	0.845369
2972.000000	0.845492
2970.000000	0.845639
2968.000000	0.845776
2966.000000	0.845938
2964.000000	0.846062
2962.000000	0.846116
2960.000000	0.846066
2958.000000	0.845875
2956.000000	0.845610
2954.000000	0.845361
2952.000000	0.845164
2950.000000	0.844984
2948.000000	0.844784
2946.000000	0.844617
2944.000000	0.844514
2942.000000	0.844433
2940.000000	0.844385
2938.000000	0.844364
2936.000000	0.844362
2934.000000	0.844360
2932.000000	0.844324
2930.000000	0.844262
2928.000000	0.844328
2926.000000	0.844459
2924.000000	0.844540
2922.000000	0.844584
2920.000000	0.844635
2918.000000	0.844693
2916.000000	0.844680
2914.000000	0.844570
2912.000000	0.844479
2910.000000	0.844444
2908.000000	0.844412
2906.000000	0.844374
2904.000000	0.844331
2902.000000	0.844303
2900.000000	0.844271
2898.000000	0.844203
2896.000000	0.844148
2894.000000	0.844107
2892.000000	0.844084
2890.000000	0.844035
2888.000000	0.843955
2886.000000	0.843863
2884.000000	0.843800
2882.000000	0.843769
2880.000000	0.843734
2878.000000	0.843669
2876.000000	0.843609
2874.000000	0.843526
2872.000000	0.843445
2870.000000	0.843382
2868.000000	0.843329
2866.000000	0.843279
2864.000000	0.843272
2862.000000	0.843338
2860.000000	0.843414
2858.000000	0.843459
2856.000000	0.843492
2854.000000	0.843515
2852.000000	0.843544
2850.000000	0.843544
2848.000000	0.843574
2846.000000	0.843611
2844.000000	0.843523
2842.000000	0.843395
2840.000000	0.843342
2838.000000	0.843357
2836.000000	0.843364
2834.000000	0.843329
2832.000000	0.843331
2830.000000	0.843345
2828.000000	0.843333
2826.000000	0.843319
2824.000000	0.843297
2822.000000	0.843280
2820.000000	0.843252
2818.000000	0.843223
2816.000000	0.843214
2814.000000	0.843182
2812.000000	0.843155
2810.000000	0.843134
2808.000000	0.843107
2806.000000	0.843116
2804.000000	0.843135
2802.000000	0.843113
2800.000000	0.843100
2798.000000	0.843080
2796.000000	0.843053
2794.000000	0.843075
2792.000000	0.843080
2790.000000	0.843052
2788.000000	0.843067
2786.000000	0.843077
2784.000000	0.843062
2782.000000	0.843025
2780.000000	0.843028
2778.000000	0.843078
2776.000000	0.843056
2774.000000	0.842988
2772.000000	0.842960
2770.000000	0.842962
2768.000000	0.842974
2766.000000	0.842969
2764.000000	0.842943
2762.000000	0.842905
2760.000000	0.842871
2758.000000	0.842881
2756.000000	0.842938
2754.000000	0.842957
2752.000000	0.842941
2750.000000	0.842942
2748.000000	0.842970
2746.000000	0.842970
2744.000000	0.842958
2742.000000	0.843001
2740.000000	0.843060
2738.000000	0.843100
2736.000000	0.843128
2734.000000	0.843103
2732.000000	0.843087
2730.000000	0.843101
2728.000000	0.843136
2726.000000	0.843155
2724.000000	0.843196
2722.000000	0.843238
2720.000000	0.843268
2718.000000	0.843274
2716.000000	0.843303
2714.000000	0.843359
2712.000000	0.843390
2710.000000	0.843413
2708.000000	0.843455
2706.000000	0.843492
2704.000000	0.843568
2702.000000	0.843628
2700.000000	0.843657
2698.000000	0.843677
2696.000000	0.843699
2694.000000	0.843752
2692.000000	0.843828
2690.000000	0.843885
2688.000000	0.843922
2686.000000	0.843967
2684.000000	0.844025
2682.000000	0.844076
2680.000000	0.844113
2678.000000	0.844129
2676.000000	0.844152
2674.000000	0.844202
2672.000000	0.844271
2670.000000	0.844295
2668.000000	0.844327
2666.000000	0.844393
2664.000000	0.844432
2662.000000	0.844452
2660.000000	0.844479
2658.000000	0.844524
2656.000000	0.844620
2654.000000	0.844684
2652.000000	0.844677
2650.000000	0.844679
2648.000000	0.844740
2646.000000	0.844812
2644.000000	0.844853
2642.000000	0.844904
2640.000000	0.844983
2638.000000	0.845038
2636.000000	0.845082
2634.000000	0.845095
2632.000000	0.845098
2630.000000	0.845115
2628.000000	0.845147
2626.000000	0.845183
2624.000000	0.845212
2622.000000	0.845230
2620.000000	0.845281
2618.000000	0.845333
2616.000000	0.845350
2614.000000	0.845384
2612.000000	0.845431
2610.000000	0.845473
2608.000000	0.845507
2606.000000	0.845504
2604.000000	0.845527
2602.000000	0.845572
2600.000000	0.845610
2598.000000	0.845605
2596.000000	0.845601
2594.000000	0.845631
2592.000000	0.845709
2590.000000	0.845750
2588.000000	0.845758
2586.000000	0.845780
2584.000000	0.845804
2582.000000	0.845834
2580.000000	0.845851
2578.000000	0.845840
2576.000000	0.845832
2574.000000	0.845856
2572.000000	0.845889
2570.000000	0.845899
2568.000000	0.845917
2566.000000	0.845920
2564.000000	0.845924
2562.000000	0.845932
2560.000000	0.845973
2558.000000	0.846026
2556.000000	0.846043
2554.000000	0.846031
2552.000000	0.846049
2550.000000	0.846079
2548.000000	0.846095
2546.000000	0.846087
2544.000000	0.846103
2542.000000	0.846112
2540.000000	0.846101
2538.000000	0.846075
2536.000000	0.846060
2534.000000	0.846080
2532.000000	0.846125
2530.000000	0.846139
2528.000000	0.846131
2526.000000	0.846143
2524.000000	0.846158
2522.000000	0.846167
2520.000000	0.846158
2518.000000	0.846144
2516.000000	0.846129
2514.000000	0.846142
2512.000000	0.846176
2510.000000	0.846177
2508.000000	0.846186
2506.000000	0.846208
2504.000000	0.846206
2502.000000	0.846206
2500.000000	0.846249
2498.000000	0.846241
2496.000000	0.846199
2494.000000	0.846162
2492.000000	0.846176
2490.000000	0.846206
2488.000000	0.846198
2486.000000	0.846176
2484.000000	0.846180
2482.000000	0.846145
2480.000000	0.846125
2478.000000	0.846146
2476.000000	0.846156
2474.000000	0.846167
2472.000000	0.846192
2470.000000	0.846188
2468.000000	0.846193
2466.000000	0.846216
2464.000000	0.846257
2462.000000	0.846255
2460.000000	0.846252
2458.000000	0.846290
2456.000000	0.846315
2454.000000	0.846317
2452.000000	0.846325
2450.000000	0.846297
2448.000000	0.846265
2446.000000	0.846254
2444.000000	0.846250
2442.000000	0.846218
2440.000000	0.846183
2438.000000	0.846165
2436.000000	0.846147
2434.000000	0.846105
2432.000000	0.846047
2430.000000	0.846025
2428.000000	0.846020
2426.000000	0.845963
2424.000000	0.845945
2422.000000	0.845959
2420.000000	0.845916
2418.000000	0.845861
2416.000000	0.845812
2414.000000	0.845775
2412.000000	0.845740
2410.000000	0.845661
2408.000000	0.845588
2406.000000	0.845515
2404.000000	0.845417
2402.000000	0.845315
2400.000000	0.845233
2398.000000	0.845171
2396.000000	0.845119
2394.000000	0.845019
2392.000000	0.844880
2390.000000	0.844735
2388.000000	0.844651
2386.000000	0.844581
2384.000000	0.844647
2382.000000	0.845284
2380.000000	0.846579
2378.000000	0.847730
2376.000000	0.848214
2374.000000	0.848258
2372.000000	0.848118
2370.000000	0.847852
2368.000000	0.847539
2366.000000	0.847316
2364.000000	0.847273
2362.000000	0.847451
2360.000000	0.847883
2358.000000	0.848468
2356.000000	0.849138
2354.000000	0.849880
2352.000000	0.850683
2350.000000	0.851319
2348.000000	0.851520
2346.000000	0.851429
2344.000000	0.851456
2342.000000	0.851649
2340.000000	0.851696
2338.000000	0.851289
2336.000000	0.850647
2334.000000	0.850109
2332.000000	0.849759
2330.000000	0.849585
2328.000000	0.849553
2326.000000	0.849528
2324.000000	0.849474
2322.000000	0.849459
2320.000000	0.849484
2318.000000	0.849516
2316.000000	0.849551
2314.000000	0.849552
2312.000000	0.849579
2310.000000	0.849614
2308.000000	0.849603
2306.000000	0.849598
2304.000000	0.849613
2302.000000	0.849593
2300.000000	0.849557
2298.000000	0.849519
2296.000000	0.849490
2294.000000	0.849478
2292.000000	0.849473
2290.000000	0.849412
2288.000000	0.849365
2286.000000	0.849379
2284.000000	0.849593
2282.000000	0.849881
2280.000000	0.849833
2278.000000	0.849615
2276.000000	0.849520
2274.000000	0.849477
2272.000000	0.849437
2270.000000	0.849389
2268.000000	0.849348
2266.000000	0.849307
2264.000000	0.849269
2262.000000	0.849222
2260.000000	0.849197
2258.000000	0.849187
2256.000000	0.849177
2254.000000	0.849130
2252.000000	0.849116
2250.000000	0.849088
2248.000000	0.849058
2246.000000	0.849026
2244.000000	0.849005
2242.000000	0.848945
2240.000000	0.848886
2238.000000	0.848877
2236.000000	0.848847
2234.000000	0.848765
2232.000000	0.848745
2230.000000	0.848743
2228.000000	0.848721
2226.000000	0.848687
2224.000000	0.848663
2222.000000	0.848628
2220.000000	0.848626
2218.000000	0.848632
2216.000000	0.848611
2214.000000	0.848561
2212.000000	0.848516
2210.000000	0.848486
2208.000000	0.848442
2206.000000	0.848370
2204.000000	0.848345
2202.000000	0.848316
2200.000000	0.848291
2198.000000	0.848261
2196.000000	0.848218
2194.000000	0.848140
2192.000000	0.848109
2190.000000	0.848098
2188.000000	0.848093
2186.000000	0.848067
2184.000000	0.848039
2182.000000	0.848025
2180.000000	0.848032
2178.000000	0.847997
2176.000000	0.847926
2174.000000	0.847873
2172.000000	0.847864
2170.000000	0.847828
2168.000000	0.847803
2166.000000	0.847774
2164.000000	0.847729
2162.000000	0.847682
2160.000000	0.847656
2158.000000	0.847656
2156.000000	0.847642
2154.000000	0.847567
2152.000000	0.847501
2150.000000	0.847482
2148.000000	0.847475
2146.000000	0.847405
2144.000000	0.847351
2142.000000	0.847344
2140.000000	0.847340
2138.000000	0.847293
2136.000000	0.847261
2134.000000	0.847255
2132.000000	0.847222
2130.000000	0.847144
2128.000000	0.847116
2126.000000	0.847096
2124.000000	0.847044
2122.000000	0.847005
2120.000000	0.846993
2118.000000	0.846952
2116.000000	0.846909
2114.000000	0.846863
2112.000000	0.846867
2110.000000	0.846846
2108.000000	0.846779
2106.000000	0.846713
2104.000000	0.846692
2102.000000	0.846654
2100.000000	0.846630
2098.000000	0.846630
2096.000000	0.846645
2094.000000	0.846614
2092.000000	0.846539
2090.000000	0.846470
2088.000000	0.846476
2086.000000	0.846452
2084.000000	0.846405
2082.000000	0.846365
2080.000000	0.846342
2078.000000	0.846297
2076.000000	0.846257
2074.000000	0.846222
2072.000000	0.846228
2070.000000	0.846227
2068.000000	0.846183
2066.000000	0.846073
2064.000000	0.846022
2062.000000	0.846034
2060.000000	0.846042
2058.000000	0.846004
2056.000000	0.845990
2054.000000	0.845971
2052.000000	0.845925
2050.000000	0.845858
2048.000000	0.845823
2046.000000	0.845782
2044.000000	0.845717
2042.000000	0.845646
2040.000000	0.845616
2038.000000	0.845579
2036.000000	0.845546
2034.000000	0.845527
2032.000000	0.845483
2030.000000	0.845402
2028.000000	0.845393
2026.000000	0.845366
2024.000000	0.845313
2022.000000	0.845257
2020.000000	0.845177
2018.000000	0.845059
2016.000000	0.845081
2014.000000	0.845152
2012.000000	0.845123
2010.000000	0.845026
2008.000000	0.844959
2006.000000	0.844935
2004.000000	0.844928
2002.000000	0.844908
2000.000000	0.844888
1998.000000	0.844854
1996.000000	0.844812
1994.000000	0.844606
1992.000000	0.844450
1990.000000	0.844535
1988.000000	0.844611
1986.000000	0.844628
1984.000000	0.844627
1982.000000	0.844596
1980.000000	0.844545
1978.000000	0.844497
1976.000000	0.844477
1974.000000	0.844448
1972.000000	0.844430
1970.000000	0.844313
1968.000000	0.844150
1966.000000	0.844193
1964.000000	0.844305
1962.000000	0.844263
1960.000000	0.844263
1958.000000	0.844314
1956.000000	0.844306
1954.000000	0.844276
1952.000000	0.844268
1950.000000	0.844237
1948.000000	0.844188
1946.000000	0.844041
1944.000000	0.843754
1942.000000	0.843735
1940.000000	0.844092
1938.000000	0.844241
1936.000000	0.844250
1934.000000	0.844220
1932.000000	0.844228
1930.000000	0.844207
1928.000000	0.844203
1926.000000	0.844091
1924.000000	0.843840
1922.000000	0.843766
1920.000000	0.843550
1918.000000	0.843278
1916.000000	0.843787
1914.000000	0.844101
1912.000000	0.844024
1910.000000	0.843916
1908.000000	0.844000
1906.000000	0.844128
1904.000000	0.844209
1902.000000	0.844201
1900.000000	0.844198
1898.000000	0.844082
1896.000000	0.843937
1894.000000	0.843969
1892.000000	0.843899
1890.000000	0.843554
1888.000000	0.843732
1886.000000	0.843967
1884.000000	0.844016
1882.000000	0.844008
1880.000000	0.843999
1878.000000	0.843987
1876.000000	0.844012
1874.000000	0.843947
1872.000000	0.843459
1870.000000	0.842475
1868.000000	0.842522
1866.000000	0.843356
1864.000000	0.843791
1862.000000	0.843767
1860.000000	0.843676
1858.000000	0.843643
1856.000000	0.843724
1854.000000	0.843708
1852.000000	0.843659
1850.000000	0.843474
1848.000000	0.843015
1846.000000	0.841676
1844.000000	0.841110
1842.000000	0.842554
1840.000000	0.843414
1838.000000	0.843354
1836.000000	0.843373
1834.000000	0.843315
1832.000000	0.842571
1830.000000	0.841896
1828.000000	0.842336
1826.000000	0.842429
1824.000000	0.842771
1822.000000	0.843425
1820.000000	0.843599
1818.000000	0.843508
1816.000000	0.843537
1814.000000	0.843463
1812.000000	0.843178
1810.000000	0.843139
1808.000000	0.843427
1806.000000	0.843539
1804.000000	0.843248
1802.000000	0.842615
1800.000000	0.842531
1798.000000	0.842928
1796.000000	0.842805
1794.000000	0.841347
1792.000000	0.840851
1790.000000	0.842409
1788.000000	0.843333
1786.000000	0.842982
1784.000000	0.842936
1782.000000	0.843038
1780.000000	0.843099
1778.000000	0.843330
1776.000000	0.842666
1774.000000	0.840422
1772.000000	0.839680
1770.000000	0.841211
1768.000000	0.842146
1766.000000	0.843196
1764.000000	0.842955
1762.000000	0.842186
1760.000000	0.842794
1758.000000	0.842944
1756.000000	0.843042
1754.000000	0.842823
1752.000000	0.841061
1750.000000	0.840971
1748.000000	0.842251
1746.000000	0.843083
1744.000000	0.843186
1742.000000	0.842595
1740.000000	0.842095
1738.000000	0.842469
1736.000000	0.839754
1734.000000	0.837405
1732.000000	0.840747
1730.000000	0.843418
1728.000000	0.844306
1726.000000	0.844546
1724.000000	0.844453
1722.000000	0.844066
1720.000000	0.841456
1718.000000	0.838109
1716.000000	0.839462
1714.000000	0.842562
1712.000000	0.844276
1710.000000	0.844447
1708.000000	0.843740
1706.000000	0.842782
1704.000000	0.842372
1702.000000	0.838778
1700.000000	0.836572
1698.000000	0.838005
1696.000000	0.838111
1694.000000	0.841869
1692.000000	0.844653
1690.000000	0.844549
1688.000000	0.843197
1686.000000	0.838561
1684.000000	0.837300
1682.000000	0.842008
1680.000000	0.844555
1678.000000	0.844161
1676.000000	0.842284
1674.000000	0.842739
1672.000000	0.843137
1670.000000	0.842169
1668.000000	0.843526
1666.000000	0.845009
1664.000000	0.844215
1662.000000	0.844220
1660.000000	0.845487
1658.000000	0.845449
1656.000000	0.841451
1654.000000	0.834142
1652.000000	0.835981
1650.000000	0.842277
1648.000000	0.841747
1646.000000	0.841315
1644.000000	0.844266
1642.000000	0.845934
1640.000000	0.845520
1638.000000	0.842968
1636.000000	0.840206
1634.000000	0.842614
1632.000000	0.845628
1630.000000	0.845657
1628.000000	0.845096
1626.000000	0.844698
1624.000000	0.843897
1622.000000	0.844547
1620.000000	0.844684
1618.000000	0.841727
1616.000000	0.841630
1614.000000	0.845013
1612.000000	0.846116
1610.000000	0.846021
1608.000000	0.846100
1606.000000	0.846324
1604.000000	0.846330
1602.000000	0.846378
1600.000000	0.846463
1598.000000	0.846478
1596.000000	0.846381
1594.000000	0.846398
1592.000000	0.846471
1590.000000	0.846513
1588.000000	0.846555
1586.000000	0.846586
1584.000000	0.846605
1582.000000	0.846620
1580.000000	0.846046
1578.000000	0.842892
1576.000000	0.841056
1574.000000	0.844279
1572.000000	0.845126
1570.000000	0.843846
1568.000000	0.844811
1566.000000	0.845808
1564.000000	0.845432
1562.000000	0.841630
1560.000000	0.834872
1558.000000	0.835882
1556.000000	0.841131
1554.000000	0.843473
1552.000000	0.845055
1550.000000	0.845581
1548.000000	0.845589
1546.000000	0.844202
1544.000000	0.841801
1542.000000	0.838135
1540.000000	0.836145
1538.000000	0.840675
1536.000000	0.844333
1534.000000	0.843730
1532.000000	0.844721
1530.000000	0.845652
1528.000000	0.844713
1526.000000	0.843578
1524.000000	0.842201
1522.000000	0.839793
1520.000000	0.840948
1518.000000	0.842995
1516.000000	0.843971
1514.000000	0.844924
1512.000000	0.844728
1510.000000	0.842965
1508.000000	0.838297
1506.000000	0.837648
1504.000000	0.843038
1502.000000	0.845618
1500.000000	0.844532
1498.000000	0.842676
1496.000000	0.842912
1494.000000	0.845333
1492.000000	0.845243
1490.000000	0.844076
1488.000000	0.844651
1486.000000	0.845870
1484.000000	0.846599
1482.000000	0.846473
1480.000000	0.846355
1478.000000	0.845524
1476.000000	0.843939
1474.000000	0.841920
1472.000000	0.842228
1470.000000	0.845020
1468.000000	0.845870
1466.000000	0.844602
1464.000000	0.844633
1462.000000	0.845545
1460.000000	0.843453
1458.000000	0.839077
1456.000000	0.839717
1454.000000	0.844086
1452.000000	0.845655
1450.000000	0.845589
1448.000000	0.845226
1446.000000	0.845718
1444.000000	0.846080
1442.000000	0.846112
1440.000000	0.845314
1438.000000	0.842826
1436.000000	0.842458
1434.000000	0.844781
1432.000000	0.845193
1430.000000	0.844987
1428.000000	0.845334
1426.000000	0.845378
1424.000000	0.844897
1422.000000	0.843965
1420.000000	0.841785
1418.000000	0.842556
1416.000000	0.844767
1414.000000	0.845501
1412.000000	0.845408
1410.000000	0.845345
1408.000000	0.845161
1406.000000	0.844747
1404.000000	0.844805
1402.000000	0.844959
1400.000000	0.844150
1398.000000	0.843813
1396.000000	0.843348
1394.000000	0.843489
1392.000000	0.844536
1390.000000	0.844334
1388.000000	0.843388
1386.000000	0.843884
1384.000000	0.844756
1382.000000	0.844853
1380.000000	0.844689
1378.000000	0.844501
1376.000000	0.844015
1374.000000	0.843722
1372.000000	0.844151
1370.000000	0.844336
1368.000000	0.844319
1366.000000	0.844172
1364.000000	0.843433
1362.000000	0.843203
1360.000000	0.843797
1358.000000	0.844139
1356.000000	0.844087
1354.000000	0.844101
1352.000000	0.844158
1350.000000	0.844110
1348.000000	0.844081
1346.000000	0.844057
1344.000000	0.843962
1342.000000	0.843684
1340.000000	0.843284
1338.000000	0.843373
1336.000000	0.843718
1334.000000	0.843948
1332.000000	0.843945
1330.000000	0.843958
1328.000000	0.843955
1326.000000	0.843910
1324.000000	0.843903
1322.000000	0.843848
1320.000000	0.843670
1318.000000	0.843616
1316.000000	0.843644
1314.000000	0.843675
1312.000000	0.843723
1310.000000	0.843757
1308.000000	0.843757
1306.000000	0.843803
1304.000000	0.843823
1302.000000	0.843828
1300.000000	0.843802
1298.000000	0.843830
1296.000000	0.843817
1294.000000	0.843772
1292.000000	0.843767
1290.000000	0.843794
1288.000000	0.843806
1286.000000	0.843875
1284.000000	0.843982
1282.000000	0.844043
1280.000000	0.844010
1278.000000	0.844029
1276.000000	0.844067
1274.000000	0.844161
1272.000000	0.844368
1270.000000	0.844791
1268.000000	0.845492
1266.000000	0.846493
1264.000000	0.847625
1262.000000	0.848634
1260.000000	0.849182
1258.000000	0.849120
1256.000000	0.848406
1254.000000	0.847456
1252.000000	0.846712
1250.000000	0.846237
1248.000000	0.846030
1246.000000	0.846108
1244.000000	0.846188
1242.000000	0.846122
1240.000000	0.846114
1238.000000	0.846244
1236.000000	0.846319
1234.000000	0.846374
1232.000000	0.846412
1230.000000	0.846490
1228.000000	0.846535
1226.000000	0.846580
1224.000000	0.846687
1222.000000	0.846839
1220.000000	0.846855
1218.000000	0.846772
1216.000000	0.846737
1214.000000	0.846903
1212.000000	0.847105
1210.000000	0.847206
1208.000000	0.847267
1206.000000	0.847349
1204.000000	0.847421
1202.000000	0.847539
1200.000000	0.847649
1198.000000	0.847789
1196.000000	0.847884
1194.000000	0.848010
1192.000000	0.848174
1190.000000	0.848425
1188.000000	0.848644
1186.000000	0.848794
1184.000000	0.848989
1182.000000	0.849280
1180.000000	0.849603
1178.000000	0.849810
1176.000000	0.849945
1174.000000	0.850147
1172.000000	0.850408
1170.000000	0.850667
1168.000000	0.850797
1166.000000	0.850905
1164.000000	0.851059
1162.000000	0.851287
1160.000000	0.851496
1158.000000	0.851609
1156.000000	0.851736
1154.000000	0.851872
1152.000000	0.851941
1150.000000	0.852005
1148.000000	0.852053
1146.000000	0.852038
1144.000000	0.852086
1142.000000	0.852326
1140.000000	0.852436
1138.000000	0.852497
1136.000000	0.852567
1134.000000	0.852562
1132.000000	0.852554
1130.000000	0.852609
1128.000000	0.852578
1126.000000	0.852679
1124.000000	0.852794
1122.000000	0.852843
1120.000000	0.852985
1118.000000	0.853209
1116.000000	0.853358
1114.000000	0.853387
1112.000000	0.853521
1110.000000	0.853826
1108.000000	0.854193
1106.000000	0.854439
1104.000000	0.854447
1102.000000	0.854455
1100.000000	0.854566
1098.000000	0.854747
1096.000000	0.855076
1094.000000	0.855250
1092.000000	0.855404
1090.000000	0.855562
1088.000000	0.855182
1086.000000	0.854764
1084.000000	0.854600
1082.000000	0.854343
1080.000000	0.853987
1078.000000	0.853752
1076.000000	0.853622
1074.000000	0.853368
1072.000000	0.853116
1070.000000	0.852810
1068.000000	0.852318
1066.000000	0.851911
1064.000000	0.851573
1062.000000	0.851407
1060.000000	0.851104
1058.000000	0.850567
1056.000000	0.849808
1054.000000	0.849292
1052.000000	0.849303
1050.000000	0.849352
1048.000000	0.848988
1046.000000	0.848396
1044.000000	0.847919
1042.000000	0.847454
1040.000000	0.847112
1038.000000	0.847041
1036.000000	0.846631
1034.000000	0.846027
1032.000000	0.845611
1030.000000	0.845433
1028.000000	0.845039
1026.000000	0.844476
1024.000000	0.844133
1022.000000	0.843839
1020.000000	0.843423
1018.000000	0.843052
1016.000000	0.842585
1014.000000	0.841866
1012.000000	0.840782
1010.000000	0.839894
1008.000000	0.839258
1006.000000	0.838704
1004.000000	0.837684
1002.000000	0.836581
1000.000000	0.835914
