PE IR       SUBTECH     SPECTRUM    ASCII       PEDS        4.00        
   -1
TE110A_006_80K.ASC
20/05/14
11:42:51.00
20/05/14
11:42:51.00
Administrator
TE108A.Thursday, May 14 2020, 001.
1000.000000
#HDR
-1
-1
#GR
cm-1
A
1.0
0.0
6000.000000
-2.000000
2501
8
0.862236
0.832584
#DATA
6000.000000	0.839241
5998.000000	0.839260
5996.000000	0.839388
5994.000000	0.839521
5992.000000	0.839662
5990.000000	0.839582
5988.000000	0.839535
5986.000000	0.839621
5984.000000	0.839708
5982.000000	0.839829
5980.000000	0.839844
5978.000000	0.839808
5976.000000	0.839690
5974.000000	0.839583
5972.000000	0.839487
5970.000000	0.839687
5968.000000	0.839907
5966.000000	0.839844
5964.000000	0.839649
5962.000000	0.839434
5960.000000	0.839428
5958.000000	0.839433
5956.000000	0.839508
5954.000000	0.839623
5952.000000	0.839752
5950.000000	0.839733
5948.000000	0.839711
5946.000000	0.839678
5944.000000	0.839755
5942.000000	0.839787
5940.000000	0.839923
5938.000000	0.839971
5936.000000	0.839973
5934.000000	0.839884
5932.000000	0.839802
5930.000000	0.839704
5928.000000	0.839669
5926.000000	0.839801
5924.000000	0.839864
5922.000000	0.840033
5920.000000	0.840233
5918.000000	0.840392
5916.000000	0.840388
5914.000000	0.840141
5912.000000	0.840037
5910.000000	0.840087
5908.000000	0.840247
5906.000000	0.840300
5904.000000	0.840232
5902.000000	0.840132
5900.000000	0.840089
5898.000000	0.840097
5896.000000	0.840185
5894.000000	0.840304
5892.000000	0.840375
5890.000000	0.840288
5888.000000	0.840125
5886.000000	0.840197
5884.000000	0.840318
5882.000000	0.840408
5880.000000	0.840296
5878.000000	0.840196
5876.000000	0.840255
5874.000000	0.840269
5872.000000	0.840396
5870.000000	0.840406
5868.000000	0.840371
5866.000000	0.840269
5864.000000	0.840170
5862.000000	0.840175
5860.000000	0.840267
5858.000000	0.840395
5856.000000	0.840515
5854.000000	0.840520
5852.000000	0.840407
5850.000000	0.840388
5848.000000	0.840435
5846.000000	0.840442
5844.000000	0.840516
5842.000000	0.840580
5840.000000	0.840622
5838.000000	0.840531
5836.000000	0.840506
5834.000000	0.840500
5832.000000	0.840546
5830.000000	0.840528
5828.000000	0.840566
5826.000000	0.840711
5824.000000	0.840698
5822.000000	0.840630
5820.000000	0.840649
5818.000000	0.840591
5816.000000	0.840511
5814.000000	0.840446
5812.000000	0.840496
5810.000000	0.840731
5808.000000	0.840924
5806.000000	0.841043
5804.000000	0.841084
5802.000000	0.841062
5800.000000	0.840997
5798.000000	0.840875
5796.000000	0.840779
5794.000000	0.840842
5792.000000	0.840925
5790.000000	0.840988
5788.000000	0.841017
5786.000000	0.841062
5784.000000	0.841183
5782.000000	0.841188
5780.000000	0.841186
5778.000000	0.841141
5776.000000	0.841055
5774.000000	0.840931
5772.000000	0.840771
5770.000000	0.840775
5768.000000	0.840950
5766.000000	0.841073
5764.000000	0.841036
5762.000000	0.841007
5760.000000	0.841028
5758.000000	0.841094
5756.000000	0.840992
5754.000000	0.840842
5752.000000	0.840718
5750.000000	0.840644
5748.000000	0.840612
5746.000000	0.840638
5744.000000	0.840670
5742.000000	0.840722
5740.000000	0.840764
5738.000000	0.840823
5736.000000	0.840949
5734.000000	0.841009
5732.000000	0.840932
5730.000000	0.840894
5728.000000	0.840995
5726.000000	0.841161
5724.000000	0.841170
5722.000000	0.841052
5720.000000	0.841033
5718.000000	0.841133
5716.000000	0.841198
5714.000000	0.841190
5712.000000	0.841200
5710.000000	0.841258
5708.000000	0.841390
5706.000000	0.841410
5704.000000	0.841349
5702.000000	0.841288
5700.000000	0.841325
5698.000000	0.841435
5696.000000	0.841462
5694.000000	0.841399
5692.000000	0.841349
5690.000000	0.841346
5688.000000	0.841364
5686.000000	0.841396
5684.000000	0.841359
5682.000000	0.841319
5680.000000	0.841315
5678.000000	0.841393
5676.000000	0.841434
5674.000000	0.841328
5672.000000	0.841196
5670.000000	0.841150
5668.000000	0.841264
5666.000000	0.841297
5664.000000	0.841265
5662.000000	0.841197
5660.000000	0.841209
5658.000000	0.841229
5656.000000	0.841213
5654.000000	0.841263
5652.000000	0.841340
5650.000000	0.841370
5648.000000	0.841302
5646.000000	0.841211
5644.000000	0.841207
5642.000000	0.841188
5640.000000	0.841221
5638.000000	0.841298
5636.000000	0.841367
5634.000000	0.841432
5632.000000	0.841372
5630.000000	0.841332
5628.000000	0.841333
5626.000000	0.841426
5624.000000	0.841531
5622.000000	0.841525
5620.000000	0.841503
5618.000000	0.841547
5616.000000	0.841477
5614.000000	0.841322
5612.000000	0.841315
5610.000000	0.841533
5608.000000	0.841705
5606.000000	0.841570
5604.000000	0.841315
5602.000000	0.841308
5600.000000	0.841470
5598.000000	0.841606
5596.000000	0.841611
5594.000000	0.841581
5592.000000	0.841634
5590.000000	0.841727
5588.000000	0.841765
5586.000000	0.841762
5584.000000	0.841721
5582.000000	0.841792
5580.000000	0.841820
5578.000000	0.841788
5576.000000	0.841737
5574.000000	0.841669
5572.000000	0.841723
5570.000000	0.841746
5568.000000	0.841691
5566.000000	0.841573
5564.000000	0.841498
5562.000000	0.841584
5560.000000	0.841673
5558.000000	0.841588
5556.000000	0.841558
5554.000000	0.841532
5552.000000	0.841523
5550.000000	0.841509
5548.000000	0.841557
5546.000000	0.841694
5544.000000	0.841676
5542.000000	0.841581
5540.000000	0.841529
5538.000000	0.841610
5536.000000	0.841617
5534.000000	0.841517
5532.000000	0.841419
5530.000000	0.841396
5528.000000	0.841514
5526.000000	0.841583
5524.000000	0.841643
5522.000000	0.841689
5520.000000	0.841697
5518.000000	0.841641
5516.000000	0.841507
5514.000000	0.841415
5512.000000	0.841477
5510.000000	0.841529
5508.000000	0.841577
5506.000000	0.841499
5504.000000	0.841459
5502.000000	0.841542
5500.000000	0.841639
5498.000000	0.841692
5496.000000	0.841588
5494.000000	0.841529
5492.000000	0.841494
5490.000000	0.841487
5488.000000	0.841600
5486.000000	0.841759
5484.000000	0.841820
5482.000000	0.841694
5480.000000	0.841477
5478.000000	0.841391
5476.000000	0.841479
5474.000000	0.841655
5472.000000	0.841735
5470.000000	0.841595
5468.000000	0.841446
5466.000000	0.841397
5464.000000	0.841396
5462.000000	0.841446
5460.000000	0.841450
5458.000000	0.841521
5456.000000	0.841555
5454.000000	0.841593
5452.000000	0.841544
5450.000000	0.841345
5448.000000	0.841176
5446.000000	0.841108
5444.000000	0.841119
5442.000000	0.841151
5440.000000	0.841255
5438.000000	0.841337
5436.000000	0.841318
5434.000000	0.841173
5432.000000	0.841107
5430.000000	0.841220
5428.000000	0.841406
5426.000000	0.841611
5424.000000	0.841752
5422.000000	0.841849
5420.000000	0.841873
5418.000000	0.841692
5416.000000	0.841346
5414.000000	0.841018
5412.000000	0.840971
5410.000000	0.841235
5408.000000	0.841482
5406.000000	0.841540
5404.000000	0.841591
5402.000000	0.841712
5400.000000	0.841808
5398.000000	0.841679
5396.000000	0.841525
5394.000000	0.841427
5392.000000	0.841430
5390.000000	0.841457
5388.000000	0.841496
5386.000000	0.841542
5384.000000	0.841589
5382.000000	0.841702
5380.000000	0.841669
5378.000000	0.841577
5376.000000	0.841499
5374.000000	0.841632
5372.000000	0.841780
5370.000000	0.841771
5368.000000	0.841667
5366.000000	0.841651
5364.000000	0.841704
5362.000000	0.841662
5360.000000	0.841510
5358.000000	0.841339
5356.000000	0.841207
5354.000000	0.841201
5352.000000	0.841226
5350.000000	0.841206
5348.000000	0.841042
5346.000000	0.840978
5344.000000	0.841076
5342.000000	0.841135
5340.000000	0.841108
5338.000000	0.841136
5336.000000	0.841337
5334.000000	0.841504
5332.000000	0.841527
5330.000000	0.841503
5328.000000	0.841566
5326.000000	0.841648
5324.000000	0.841717
5322.000000	0.841788
5320.000000	0.841844
5318.000000	0.841774
5316.000000	0.841622
5314.000000	0.841582
5312.000000	0.841556
5310.000000	0.841512
5308.000000	0.841490
5306.000000	0.841591
5304.000000	0.841718
5302.000000	0.841699
5300.000000	0.841657
5298.000000	0.841659
5296.000000	0.841818
5294.000000	0.841859
5292.000000	0.841682
5290.000000	0.841480
5288.000000	0.841481
5286.000000	0.841608
5284.000000	0.841650
5282.000000	0.841642
5280.000000	0.841664
5278.000000	0.841652
5276.000000	0.841628
5274.000000	0.841693
5272.000000	0.841752
5270.000000	0.841667
5268.000000	0.841347
5266.000000	0.841066
5264.000000	0.840979
5262.000000	0.841148
5260.000000	0.841365
5258.000000	0.841351
5256.000000	0.841273
5254.000000	0.841316
5252.000000	0.841401
5250.000000	0.841318
5248.000000	0.841192
5246.000000	0.841181
5244.000000	0.841287
5242.000000	0.841404
5240.000000	0.841547
5238.000000	0.841675
5236.000000	0.841663
5234.000000	0.841485
5232.000000	0.841301
5230.000000	0.841307
5228.000000	0.841384
5226.000000	0.841377
5224.000000	0.841411
5222.000000	0.841470
5220.000000	0.841478
5218.000000	0.841430
5216.000000	0.841442
5214.000000	0.841487
5212.000000	0.841403
5210.000000	0.841222
5208.000000	0.841055
5206.000000	0.841141
5204.000000	0.841422
5202.000000	0.841627
5200.000000	0.841580
5198.000000	0.841460
5196.000000	0.841463
5194.000000	0.841571
5192.000000	0.841620
5190.000000	0.841636
5188.000000	0.841622
5186.000000	0.841576
5184.000000	0.841477
5182.000000	0.841433
5180.000000	0.841414
5178.000000	0.841385
5176.000000	0.841344
5174.000000	0.841293
5172.000000	0.841217
5170.000000	0.841217
5168.000000	0.841311
5166.000000	0.841408
5164.000000	0.841437
5162.000000	0.841452
5160.000000	0.841482
5158.000000	0.841549
5156.000000	0.841623
5154.000000	0.841622
5152.000000	0.841556
5150.000000	0.841522
5148.000000	0.841542
5146.000000	0.841572
5144.000000	0.841611
5142.000000	0.841633
5140.000000	0.841603
5138.000000	0.841576
5136.000000	0.841589
5134.000000	0.841630
5132.000000	0.841664
5130.000000	0.841684
5128.000000	0.841662
5126.000000	0.841630
5124.000000	0.841634
5122.000000	0.841651
5120.000000	0.841705
5118.000000	0.841738
5116.000000	0.841718
5114.000000	0.841638
5112.000000	0.841650
5110.000000	0.841748
5108.000000	0.841788
5106.000000	0.841746
5104.000000	0.841645
5102.000000	0.841627
5100.000000	0.841690
5098.000000	0.841735
5096.000000	0.841725
5094.000000	0.841727
5092.000000	0.841729
5090.000000	0.841646
5088.000000	0.841600
5086.000000	0.841682
5084.000000	0.841685
5082.000000	0.841575
5080.000000	0.841507
5078.000000	0.841610
5076.000000	0.841704
5074.000000	0.841676
5072.000000	0.841540
5070.000000	0.841428
5068.000000	0.841459
5066.000000	0.841587
5064.000000	0.841648
5062.000000	0.841642
5060.000000	0.841645
5058.000000	0.841659
5056.000000	0.841634
5054.000000	0.841596
5052.000000	0.841577
5050.000000	0.841611
5048.000000	0.841668
5046.000000	0.841659
5044.000000	0.841597
5042.000000	0.841618
5040.000000	0.841716
5038.000000	0.841768
5036.000000	0.841677
5034.000000	0.841600
5032.000000	0.841644
5030.000000	0.841722
5028.000000	0.841689
5026.000000	0.841582
5024.000000	0.841541
5022.000000	0.841561
5020.000000	0.841612
5018.000000	0.841660
5016.000000	0.841749
5014.000000	0.841842
5012.000000	0.841831
5010.000000	0.841763
5008.000000	0.841765
5006.000000	0.841808
5004.000000	0.841805
5002.000000	0.841753
5000.000000	0.841686
4998.000000	0.841638
4996.000000	0.841641
4994.000000	0.841695
4992.000000	0.841741
4990.000000	0.841783
4988.000000	0.841793
4986.000000	0.841675
4984.000000	0.841566
4982.000000	0.841600
4980.000000	0.841746
4978.000000	0.841799
4976.000000	0.841729
4974.000000	0.841601
4972.000000	0.841475
4970.000000	0.841475
4968.000000	0.841578
4966.000000	0.841695
4964.000000	0.841728
4962.000000	0.841671
4960.000000	0.841617
4958.000000	0.841612
4956.000000	0.841656
4954.000000	0.841665
4952.000000	0.841666
4950.000000	0.841684
4948.000000	0.841745
4946.000000	0.841779
4944.000000	0.841738
4942.000000	0.841721
4940.000000	0.841753
4938.000000	0.841737
4936.000000	0.841719
4934.000000	0.841773
4932.000000	0.841838
4930.000000	0.841870
4928.000000	0.841932
4926.000000	0.841975
4924.000000	0.841944
4922.000000	0.841878
4920.000000	0.841830
4918.000000	0.841803
4916.000000	0.841827
4914.000000	0.841836
4912.000000	0.841835
4910.000000	0.841884
4908.000000	0.841888
4906.000000	0.841802
4904.000000	0.841735
4902.000000	0.841795
4900.000000	0.841866
4898.000000	0.841830
4896.000000	0.841765
4894.000000	0.841739
4892.000000	0.841740
4890.000000	0.841681
4888.000000	0.841627
4886.000000	0.841634
4884.000000	0.841651
4882.000000	0.841585
4880.000000	0.841539
4878.000000	0.841562
4876.000000	0.841572
4874.000000	0.841557
4872.000000	0.841578
4870.000000	0.841584
4868.000000	0.841546
4866.000000	0.841561
4864.000000	0.841602
4862.000000	0.841596
4860.000000	0.841618
4858.000000	0.841686
4856.000000	0.841708
4854.000000	0.841654
4852.000000	0.841564
4850.000000	0.841505
4848.000000	0.841522
4846.000000	0.841614
4844.000000	0.841677
4842.000000	0.841702
4840.000000	0.841744
4838.000000	0.841728
4836.000000	0.841665
4834.000000	0.841680
4832.000000	0.841783
4830.000000	0.841804
4828.000000	0.841782
4826.000000	0.841830
4824.000000	0.841849
4822.000000	0.841800
4820.000000	0.841775
4818.000000	0.841799
4816.000000	0.841795
4814.000000	0.841728
4812.000000	0.841628
4810.000000	0.841601
4808.000000	0.841655
4806.000000	0.841689
4804.000000	0.841687
4802.000000	0.841683
4800.000000	0.841669
4798.000000	0.841651
4796.000000	0.841671
4794.000000	0.841686
4792.000000	0.841703
4790.000000	0.841684
4788.000000	0.841652
4786.000000	0.841633
4784.000000	0.841649
4782.000000	0.841622
4780.000000	0.841545
4778.000000	0.841481
4776.000000	0.841477
4774.000000	0.841508
4772.000000	0.841490
4770.000000	0.841413
4768.000000	0.841355
4766.000000	0.841375
4764.000000	0.841455
4762.000000	0.841529
4760.000000	0.841528
4758.000000	0.841496
4756.000000	0.841545
4754.000000	0.841617
4752.000000	0.841656
4750.000000	0.841700
4748.000000	0.841748
4746.000000	0.841717
4744.000000	0.841641
4742.000000	0.841583
4740.000000	0.841562
4738.000000	0.841565
4736.000000	0.841575
4734.000000	0.841575
4732.000000	0.841571
4730.000000	0.841584
4728.000000	0.841628
4726.000000	0.841650
4724.000000	0.841598
4722.000000	0.841549
4720.000000	0.841531
4718.000000	0.841515
4716.000000	0.841527
4714.000000	0.841545
4712.000000	0.841516
4710.000000	0.841486
4708.000000	0.841503
4706.000000	0.841519
4704.000000	0.841537
4702.000000	0.841546
4700.000000	0.841527
4698.000000	0.841547
4696.000000	0.841595
4694.000000	0.841617
4692.000000	0.841603
4690.000000	0.841572
4688.000000	0.841535
4686.000000	0.841501
4684.000000	0.841493
4682.000000	0.841489
4680.000000	0.841467
4678.000000	0.841417
4676.000000	0.841412
4674.000000	0.841460
4672.000000	0.841484
4670.000000	0.841478
4668.000000	0.841463
4666.000000	0.841476
4664.000000	0.841507
4662.000000	0.841541
4660.000000	0.841574
4658.000000	0.841577
4656.000000	0.841523
4654.000000	0.841485
4652.000000	0.841560
4650.000000	0.841615
4648.000000	0.841588
4646.000000	0.841613
4644.000000	0.841707
4642.000000	0.841733
4640.000000	0.841681
4638.000000	0.841636
4636.000000	0.841610
4634.000000	0.841618
4632.000000	0.841615
4630.000000	0.841581
4628.000000	0.841575
4626.000000	0.841615
4624.000000	0.841628
4622.000000	0.841604
4620.000000	0.841581
4618.000000	0.841571
4616.000000	0.841602
4614.000000	0.841658
4612.000000	0.841640
4610.000000	0.841556
4608.000000	0.841548
4606.000000	0.841628
4604.000000	0.841657
4602.000000	0.841619
4600.000000	0.841611
4598.000000	0.841610
4596.000000	0.841535
4594.000000	0.841476
4592.000000	0.841509
4590.000000	0.841548
4588.000000	0.841534
4586.000000	0.841527
4584.000000	0.841541
4582.000000	0.841541
4580.000000	0.841523
4578.000000	0.841506
4576.000000	0.841516
4574.000000	0.841533
4572.000000	0.841523
4570.000000	0.841515
4568.000000	0.841564
4566.000000	0.841624
4564.000000	0.841620
4562.000000	0.841591
4560.000000	0.841587
4558.000000	0.841585
4556.000000	0.841604
4554.000000	0.841668
4552.000000	0.841680
4550.000000	0.841666
4548.000000	0.841681
4546.000000	0.841672
4544.000000	0.841627
4542.000000	0.841638
4540.000000	0.841658
4538.000000	0.841661
4536.000000	0.841684
4534.000000	0.841671
4532.000000	0.841631
4530.000000	0.841681
4528.000000	0.841786
4526.000000	0.841864
4524.000000	0.841906
4522.000000	0.841853
4520.000000	0.841747
4518.000000	0.841720
4516.000000	0.841756
4514.000000	0.841782
4512.000000	0.841802
4510.000000	0.841818
4508.000000	0.841799
4506.000000	0.841792
4504.000000	0.841795
4502.000000	0.841735
4500.000000	0.841655
4498.000000	0.841683
4496.000000	0.841761
4494.000000	0.841804
4492.000000	0.841788
4490.000000	0.841747
4488.000000	0.841694
4486.000000	0.841676
4484.000000	0.841688
4482.000000	0.841681
4480.000000	0.841645
4478.000000	0.841663
4476.000000	0.841721
4474.000000	0.841796
4472.000000	0.841831
4470.000000	0.841807
4468.000000	0.841789
4466.000000	0.841804
4464.000000	0.841773
4462.000000	0.841747
4460.000000	0.841810
4458.000000	0.841880
4456.000000	0.841884
4454.000000	0.841901
4452.000000	0.841956
4450.000000	0.841959
4448.000000	0.841911
4446.000000	0.841880
4444.000000	0.841894
4442.000000	0.841915
4440.000000	0.841897
4438.000000	0.841854
4436.000000	0.841824
4434.000000	0.841828
4432.000000	0.841885
4430.000000	0.841930
4428.000000	0.841936
4426.000000	0.841968
4424.000000	0.841995
4422.000000	0.841978
4420.000000	0.841968
4418.000000	0.841931
4416.000000	0.841879
4414.000000	0.841895
4412.000000	0.841921
4410.000000	0.841937
4408.000000	0.841987
4406.000000	0.842036
4404.000000	0.842046
4402.000000	0.842018
4400.000000	0.841964
4398.000000	0.841934
4396.000000	0.841932
4394.000000	0.841964
4392.000000	0.841979
4390.000000	0.841931
4388.000000	0.841899
4386.000000	0.841931
4384.000000	0.841949
4382.000000	0.841966
4380.000000	0.842006
4378.000000	0.842037
4376.000000	0.842028
4374.000000	0.841981
4372.000000	0.841953
4370.000000	0.841998
4368.000000	0.842077
4366.000000	0.842094
4364.000000	0.842043
4362.000000	0.842033
4360.000000	0.842101
4358.000000	0.842169
4356.000000	0.842192
4354.000000	0.842190
4352.000000	0.842172
4350.000000	0.842154
4348.000000	0.842169
4346.000000	0.842202
4344.000000	0.842178
4342.000000	0.842097
4340.000000	0.842055
4338.000000	0.842107
4336.000000	0.842187
4334.000000	0.842226
4332.000000	0.842207
4330.000000	0.842171
4328.000000	0.842152
4326.000000	0.842155
4324.000000	0.842208
4322.000000	0.842307
4320.000000	0.842362
4318.000000	0.842319
4316.000000	0.842238
4314.000000	0.842218
4312.000000	0.842267
4310.000000	0.842291
4308.000000	0.842281
4306.000000	0.842280
4304.000000	0.842281
4302.000000	0.842274
4300.000000	0.842273
4298.000000	0.842297
4296.000000	0.842314
4294.000000	0.842300
4292.000000	0.842272
4290.000000	0.842221
4288.000000	0.842165
4286.000000	0.842184
4284.000000	0.842244
4282.000000	0.842279
4280.000000	0.842286
4278.000000	0.842284
4276.000000	0.842319
4274.000000	0.842375
4272.000000	0.842384
4270.000000	0.842372
4268.000000	0.842386
4266.000000	0.842390
4264.000000	0.842382
4262.000000	0.842390
4260.000000	0.842405
4258.000000	0.842443
4256.000000	0.842481
4254.000000	0.842478
4252.000000	0.842445
4250.000000	0.842396
4248.000000	0.842371
4246.000000	0.842415
4244.000000	0.842479
4242.000000	0.842493
4240.000000	0.842441
4238.000000	0.842391
4236.000000	0.842402
4234.000000	0.842429
4232.000000	0.842461
4230.000000	0.842509
4228.000000	0.842489
4226.000000	0.842425
4224.000000	0.842426
4222.000000	0.842487
4220.000000	0.842534
4218.000000	0.842533
4216.000000	0.842521
4214.000000	0.842517
4212.000000	0.842503
4210.000000	0.842503
4208.000000	0.842508
4206.000000	0.842490
4204.000000	0.842482
4202.000000	0.842482
4200.000000	0.842479
4198.000000	0.842513
4196.000000	0.842527
4194.000000	0.842470
4192.000000	0.842450
4190.000000	0.842473
4188.000000	0.842468
4186.000000	0.842448
4184.000000	0.842433
4182.000000	0.842471
4180.000000	0.842534
4178.000000	0.842544
4176.000000	0.842534
4174.000000	0.842555
4172.000000	0.842581
4170.000000	0.842610
4168.000000	0.842629
4166.000000	0.842636
4164.000000	0.842660
4162.000000	0.842692
4160.000000	0.842691
4158.000000	0.842660
4156.000000	0.842623
4154.000000	0.842641
4152.000000	0.842662
4150.000000	0.842628
4148.000000	0.842597
4146.000000	0.842592
4144.000000	0.842587
4142.000000	0.842571
4140.000000	0.842551
4138.000000	0.842584
4136.000000	0.842622
4134.000000	0.842625
4132.000000	0.842637
4130.000000	0.842669
4128.000000	0.842715
4126.000000	0.842720
4124.000000	0.842668
4122.000000	0.842621
4120.000000	0.842613
4118.000000	0.842621
4116.000000	0.842619
4114.000000	0.842603
4112.000000	0.842559
4110.000000	0.842529
4108.000000	0.842554
4106.000000	0.842538
4104.000000	0.842487
4102.000000	0.842517
4100.000000	0.842556
4098.000000	0.842509
4096.000000	0.842498
4094.000000	0.842568
4092.000000	0.842584
4090.000000	0.842540
4088.000000	0.842537
4086.000000	0.842593
4084.000000	0.842635
4082.000000	0.842639
4080.000000	0.842639
4078.000000	0.842623
4076.000000	0.842611
4074.000000	0.842659
4072.000000	0.842687
4070.000000	0.842670
4068.000000	0.842705
4066.000000	0.842756
4064.000000	0.842729
4062.000000	0.842676
4060.000000	0.842651
4058.000000	0.842631
4056.000000	0.842624
4054.000000	0.842672
4052.000000	0.842711
4050.000000	0.842673
4048.000000	0.842620
4046.000000	0.842615
4044.000000	0.842622
4042.000000	0.842610
4040.000000	0.842580
4038.000000	0.842570
4036.000000	0.842597
4034.000000	0.842621
4032.000000	0.842628
4030.000000	0.842644
4028.000000	0.842645
4026.000000	0.842633
4024.000000	0.842632
4022.000000	0.842642
4020.000000	0.842663
4018.000000	0.842658
4016.000000	0.842561
4014.000000	0.842442
4012.000000	0.842430
4010.000000	0.842480
4008.000000	0.842468
4006.000000	0.842457
4004.000000	0.842518
4002.000000	0.842550
4000.000000	0.842512
3998.000000	0.842473
3996.000000	0.842457
3994.000000	0.842456
3992.000000	0.842446
3990.000000	0.842457
3988.000000	0.842503
3986.000000	0.842557
3984.000000	0.842554
3982.000000	0.842492
3980.000000	0.842458
3978.000000	0.842454
3976.000000	0.842433
3974.000000	0.842406
3972.000000	0.842401
3970.000000	0.842446
3968.000000	0.842506
3966.000000	0.842495
3964.000000	0.842412
3962.000000	0.842362
3960.000000	0.842363
3958.000000	0.842367
3956.000000	0.842360
3954.000000	0.842317
3952.000000	0.842179
3950.000000	0.842021
3948.000000	0.842008
3946.000000	0.842027
3944.000000	0.841942
3942.000000	0.841992
3940.000000	0.842213
3938.000000	0.842290
3936.000000	0.842048
3934.000000	0.841671
3932.000000	0.841551
3930.000000	0.841748
3928.000000	0.841832
3926.000000	0.841701
3924.000000	0.841676
3922.000000	0.841653
3920.000000	0.841359
3918.000000	0.841168
3916.000000	0.841502
3914.000000	0.842012
3912.000000	0.842238
3910.000000	0.842115
3908.000000	0.841395
3906.000000	0.840071
3904.000000	0.839023
3902.000000	0.838866
3900.000000	0.839520
3898.000000	0.840695
3896.000000	0.841417
3894.000000	0.840969
3892.000000	0.840367
3890.000000	0.840406
3888.000000	0.840052
3886.000000	0.839557
3884.000000	0.839892
3882.000000	0.840266
3880.000000	0.840612
3878.000000	0.841058
3876.000000	0.840932
3874.000000	0.840163
3872.000000	0.838925
3870.000000	0.838468
3868.000000	0.839139
3866.000000	0.839497
3864.000000	0.839735
3862.000000	0.840462
3860.000000	0.840939
3858.000000	0.839424
3856.000000	0.835239
3854.000000	0.832584
3852.000000	0.835141
3850.000000	0.839345
3848.000000	0.841300
3846.000000	0.841195
3844.000000	0.840419
3842.000000	0.839311
3840.000000	0.837567
3838.000000	0.836720
3836.000000	0.837896
3834.000000	0.839389
3832.000000	0.840226
3830.000000	0.840779
3828.000000	0.840976
3826.000000	0.840720
3824.000000	0.839521
3822.000000	0.838205
3820.000000	0.838034
3818.000000	0.837772
3816.000000	0.837971
3814.000000	0.839811
3812.000000	0.841158
3810.000000	0.840496
3808.000000	0.839198
3806.000000	0.838912
3804.000000	0.838281
3802.000000	0.837447
3800.000000	0.838444
3798.000000	0.839922
3796.000000	0.840761
3794.000000	0.841437
3792.000000	0.841796
3790.000000	0.841832
3788.000000	0.841704
3786.000000	0.841549
3784.000000	0.841452
3782.000000	0.841141
3780.000000	0.840846
3778.000000	0.841172
3776.000000	0.841656
3774.000000	0.841505
3772.000000	0.840680
3770.000000	0.840126
3768.000000	0.840222
3766.000000	0.840520
3764.000000	0.840791
3762.000000	0.840532
3760.000000	0.839998
3758.000000	0.839935
3756.000000	0.839326
3754.000000	0.836903
3752.000000	0.834365
3750.000000	0.834266
3748.000000	0.834824
3746.000000	0.833737
3744.000000	0.834417
3742.000000	0.837578
3740.000000	0.838780
3738.000000	0.837477
3736.000000	0.836376
3734.000000	0.836661
3732.000000	0.837931
3730.000000	0.839303
3728.000000	0.839679
3726.000000	0.839512
3724.000000	0.839563
3722.000000	0.839829
3720.000000	0.840202
3718.000000	0.840413
3716.000000	0.839829
3714.000000	0.838191
3712.000000	0.837181
3710.000000	0.838370
3708.000000	0.840489
3706.000000	0.841339
3704.000000	0.840701
3702.000000	0.840136
3700.000000	0.840409
3698.000000	0.840813
3696.000000	0.840760
3694.000000	0.839925
3692.000000	0.838028
3690.000000	0.836172
3688.000000	0.836641
3686.000000	0.838837
3684.000000	0.840123
3682.000000	0.840041
3680.000000	0.838886
3678.000000	0.836462
3676.000000	0.834786
3674.000000	0.835263
3672.000000	0.835489
3670.000000	0.835912
3668.000000	0.837866
3666.000000	0.839531
3664.000000	0.840037
3662.000000	0.839948
3660.000000	0.839353
3658.000000	0.838289
3656.000000	0.837859
3654.000000	0.837689
3652.000000	0.836023
3650.000000	0.834349
3648.000000	0.835185
3646.000000	0.837433
3644.000000	0.838877
3642.000000	0.839301
3640.000000	0.839326
3638.000000	0.839161
3636.000000	0.838827
3634.000000	0.838261
3632.000000	0.836619
3630.000000	0.834641
3628.000000	0.835205
3626.000000	0.837395
3624.000000	0.838264
3622.000000	0.837460
3620.000000	0.836472
3618.000000	0.836614
3616.000000	0.837071
3614.000000	0.836911
3612.000000	0.836465
3610.000000	0.836190
3608.000000	0.836680
3606.000000	0.837636
3604.000000	0.838122
3602.000000	0.838261
3600.000000	0.838463
3598.000000	0.838344
3596.000000	0.837931
3594.000000	0.837814
3592.000000	0.837672
3590.000000	0.836915
3588.000000	0.836392
3586.000000	0.836958
3584.000000	0.837805
3582.000000	0.838165
3580.000000	0.838194
3578.000000	0.838169
3576.000000	0.838188
3574.000000	0.838204
3572.000000	0.837938
3570.000000	0.837147
3568.000000	0.836435
3566.000000	0.836692
3564.000000	0.837502
3562.000000	0.837984
3560.000000	0.838126
3558.000000	0.838243
3556.000000	0.838251
3554.000000	0.838103
3552.000000	0.838095
3550.000000	0.838139
3548.000000	0.837944
3546.000000	0.837837
3544.000000	0.838110
3542.000000	0.838473
3540.000000	0.838600
3538.000000	0.838574
3536.000000	0.838626
3534.000000	0.838724
3532.000000	0.838710
3530.000000	0.838566
3528.000000	0.838466
3526.000000	0.838519
3524.000000	0.838638
3522.000000	0.838833
3520.000000	0.839027
3518.000000	0.839154
3516.000000	0.839282
3514.000000	0.839363
3512.000000	0.839326
3510.000000	0.839367
3508.000000	0.839555
3506.000000	0.839601
3504.000000	0.839560
3502.000000	0.839722
3500.000000	0.839992
3498.000000	0.840178
3496.000000	0.840361
3494.000000	0.840554
3492.000000	0.840711
3490.000000	0.840865
3488.000000	0.841012
3486.000000	0.841157
3484.000000	0.841296
3482.000000	0.841433
3480.000000	0.841658
3478.000000	0.841955
3476.000000	0.842187
3474.000000	0.842374
3472.000000	0.842574
3470.000000	0.842740
3468.000000	0.842953
3466.000000	0.843251
3464.000000	0.843497
3462.000000	0.843700
3460.000000	0.843964
3458.000000	0.844269
3456.000000	0.844573
3454.000000	0.844851
3452.000000	0.845103
3450.000000	0.845335
3448.000000	0.845545
3446.000000	0.845813
3444.000000	0.846155
3442.000000	0.846498
3440.000000	0.846837
3438.000000	0.847162
3436.000000	0.847474
3434.000000	0.847823
3432.000000	0.848167
3430.000000	0.848486
3428.000000	0.848788
3426.000000	0.849079
3424.000000	0.849334
3422.000000	0.849557
3420.000000	0.849800
3418.000000	0.850106
3416.000000	0.850434
3414.000000	0.850686
3412.000000	0.850865
3410.000000	0.851040
3408.000000	0.851263
3406.000000	0.851492
3404.000000	0.851667
3402.000000	0.851798
3400.000000	0.851955
3398.000000	0.852197
3396.000000	0.852430
3394.000000	0.852546
3392.000000	0.852635
3390.000000	0.852812
3388.000000	0.853023
3386.000000	0.853176
3384.000000	0.853297
3382.000000	0.853405
3380.000000	0.853514
3378.000000	0.853674
3376.000000	0.853797
3374.000000	0.853863
3372.000000	0.853928
3370.000000	0.853993
3368.000000	0.854086
3366.000000	0.854196
3364.000000	0.854315
3362.000000	0.854451
3360.000000	0.854569
3358.000000	0.854633
3356.000000	0.854670
3354.000000	0.854748
3352.000000	0.854843
3350.000000	0.854920
3348.000000	0.855013
3346.000000	0.855113
3344.000000	0.855210
3342.000000	0.855252
3340.000000	0.855241
3338.000000	0.855227
3336.000000	0.855281
3334.000000	0.855393
3332.000000	0.855463
3330.000000	0.855490
3328.000000	0.855499
3326.000000	0.855522
3324.000000	0.855623
3322.000000	0.855760
3320.000000	0.855849
3318.000000	0.855895
3316.000000	0.855908
3314.000000	0.855933
3312.000000	0.856013
3310.000000	0.856099
3308.000000	0.856129
3306.000000	0.856194
3304.000000	0.856358
3302.000000	0.856508
3300.000000	0.856605
3298.000000	0.856642
3296.000000	0.856627
3294.000000	0.856639
3292.000000	0.856714
3290.000000	0.856821
3288.000000	0.856895
3286.000000	0.856981
3284.000000	0.857090
3282.000000	0.857165
3280.000000	0.857203
3278.000000	0.857233
3276.000000	0.857262
3274.000000	0.857293
3272.000000	0.857332
3270.000000	0.857407
3268.000000	0.857514
3266.000000	0.857574
3264.000000	0.857626
3262.000000	0.857670
3260.000000	0.857677
3258.000000	0.857689
3256.000000	0.857722
3254.000000	0.857790
3252.000000	0.857872
3250.000000	0.857944
3248.000000	0.857986
3246.000000	0.858035
3244.000000	0.858129
3242.000000	0.858178
3240.000000	0.858175
3238.000000	0.858208
3236.000000	0.858274
3234.000000	0.858287
3232.000000	0.858295
3230.000000	0.858390
3228.000000	0.858546
3226.000000	0.858653
3224.000000	0.858675
3222.000000	0.858681
3220.000000	0.858719
3218.000000	0.858772
3216.000000	0.858815
3214.000000	0.858829
3212.000000	0.858867
3210.000000	0.858919
3208.000000	0.858917
3206.000000	0.858923
3204.000000	0.858970
3202.000000	0.858984
3200.000000	0.858948
3198.000000	0.858888
3196.000000	0.858873
3194.000000	0.858939
3192.000000	0.858966
3190.000000	0.858907
3188.000000	0.858879
3186.000000	0.858905
3184.000000	0.858914
3182.000000	0.858896
3180.000000	0.858862
3178.000000	0.858884
3176.000000	0.858933
3174.000000	0.858939
3172.000000	0.858926
3170.000000	0.858919
3168.000000	0.858919
3166.000000	0.858933
3164.000000	0.858954
3162.000000	0.858976
3160.000000	0.858998
3158.000000	0.859035
3156.000000	0.859031
3154.000000	0.858931
3152.000000	0.858870
3150.000000	0.858970
3148.000000	0.859078
3146.000000	0.859085
3144.000000	0.859054
3142.000000	0.859035
3140.000000	0.859026
3138.000000	0.859033
3136.000000	0.859049
3134.000000	0.859074
3132.000000	0.859128
3130.000000	0.859173
3128.000000	0.859159
3126.000000	0.859111
3124.000000	0.859099
3122.000000	0.859138
3120.000000	0.859129
3118.000000	0.859120
3116.000000	0.859175
3114.000000	0.859226
3112.000000	0.859236
3110.000000	0.859226
3108.000000	0.859197
3106.000000	0.859156
3104.000000	0.859118
3102.000000	0.859083
3100.000000	0.859093
3098.000000	0.859121
3096.000000	0.859099
3094.000000	0.859021
3092.000000	0.858959
3090.000000	0.858949
3088.000000	0.858917
3086.000000	0.858830
3084.000000	0.858704
3082.000000	0.858591
3080.000000	0.858535
3078.000000	0.858507
3076.000000	0.858479
3074.000000	0.858454
3072.000000	0.858408
3070.000000	0.858297
3068.000000	0.858140
3066.000000	0.858009
3064.000000	0.857951
3062.000000	0.857933
3060.000000	0.857904
3058.000000	0.857814
3056.000000	0.857741
3054.000000	0.857694
3052.000000	0.857660
3050.000000	0.857579
3048.000000	0.857445
3046.000000	0.857313
3044.000000	0.857212
3042.000000	0.857150
3040.000000	0.857145
3038.000000	0.857139
3036.000000	0.857061
3034.000000	0.856994
3032.000000	0.856989
3030.000000	0.856940
3028.000000	0.856853
3026.000000	0.856817
3024.000000	0.856770
3022.000000	0.856694
3020.000000	0.856640
3018.000000	0.856578
3016.000000	0.856502
3014.000000	0.856402
3012.000000	0.856350
3010.000000	0.856355
3008.000000	0.856354
3006.000000	0.856290
3004.000000	0.856219
3002.000000	0.856176
3000.000000	0.856129
2998.000000	0.856075
2996.000000	0.855993
2994.000000	0.855922
2992.000000	0.855921
2990.000000	0.855919
2988.000000	0.855889
2986.000000	0.855863
2984.000000	0.855837
2982.000000	0.855836
2980.000000	0.855822
2978.000000	0.855809
2976.000000	0.855862
2974.000000	0.855925
2972.000000	0.856007
2970.000000	0.856158
2968.000000	0.856339
2966.000000	0.856500
2964.000000	0.856623
2962.000000	0.856657
2960.000000	0.856550
2958.000000	0.856313
2956.000000	0.856033
2954.000000	0.855767
2952.000000	0.855562
2950.000000	0.855412
2948.000000	0.855269
2946.000000	0.855118
2944.000000	0.855056
2942.000000	0.855045
2940.000000	0.855010
2938.000000	0.854931
2936.000000	0.854841
2934.000000	0.854822
2932.000000	0.854845
2930.000000	0.854829
2928.000000	0.854831
2926.000000	0.854872
2924.000000	0.854939
2922.000000	0.855003
2920.000000	0.855029
2918.000000	0.855044
2916.000000	0.855017
2914.000000	0.854928
2912.000000	0.854834
2910.000000	0.854767
2908.000000	0.854757
2906.000000	0.854781
2904.000000	0.854770
2902.000000	0.854705
2900.000000	0.854617
2898.000000	0.854517
2896.000000	0.854442
2894.000000	0.854399
2892.000000	0.854379
2890.000000	0.854349
2888.000000	0.854314
2886.000000	0.854277
2884.000000	0.854201
2882.000000	0.854106
2880.000000	0.854072
2878.000000	0.854040
2876.000000	0.853979
2874.000000	0.853916
2872.000000	0.853900
2870.000000	0.853880
2868.000000	0.853815
2866.000000	0.853766
2864.000000	0.853761
2862.000000	0.853783
2860.000000	0.853798
2858.000000	0.853778
2856.000000	0.853766
2854.000000	0.853764
2852.000000	0.853767
2850.000000	0.853783
2848.000000	0.853832
2846.000000	0.853838
2844.000000	0.853771
2842.000000	0.853702
2840.000000	0.853672
2838.000000	0.853648
2836.000000	0.853643
2834.000000	0.853638
2832.000000	0.853650
2830.000000	0.853632
2828.000000	0.853601
2826.000000	0.853585
2824.000000	0.853580
2822.000000	0.853556
2820.000000	0.853521
2818.000000	0.853530
2816.000000	0.853530
2814.000000	0.853486
2812.000000	0.853451
2810.000000	0.853419
2808.000000	0.853402
2806.000000	0.853382
2804.000000	0.853361
2802.000000	0.853345
2800.000000	0.853336
2798.000000	0.853311
2796.000000	0.853286
2794.000000	0.853267
2792.000000	0.853278
2790.000000	0.853286
2788.000000	0.853268
2786.000000	0.853267
2784.000000	0.853235
2782.000000	0.853203
2780.000000	0.853201
2778.000000	0.853191
2776.000000	0.853188
2774.000000	0.853209
2772.000000	0.853222
2770.000000	0.853221
2768.000000	0.853197
2766.000000	0.853188
2764.000000	0.853186
2762.000000	0.853144
2760.000000	0.853121
2758.000000	0.853128
2756.000000	0.853140
2754.000000	0.853147
2752.000000	0.853164
2750.000000	0.853138
2748.000000	0.853116
2746.000000	0.853134
2744.000000	0.853152
2742.000000	0.853172
2740.000000	0.853200
2738.000000	0.853212
2736.000000	0.853235
2734.000000	0.853251
2732.000000	0.853268
2730.000000	0.853303
2728.000000	0.853328
2726.000000	0.853312
2724.000000	0.853329
2722.000000	0.853373
2720.000000	0.853432
2718.000000	0.853454
2716.000000	0.853490
2714.000000	0.853556
2712.000000	0.853606
2710.000000	0.853621
2708.000000	0.853648
2706.000000	0.853709
2704.000000	0.853786
2702.000000	0.853829
2700.000000	0.853838
2698.000000	0.853848
2696.000000	0.853901
2694.000000	0.853978
2692.000000	0.854031
2690.000000	0.854022
2688.000000	0.854023
2686.000000	0.854069
2684.000000	0.854149
2682.000000	0.854218
2680.000000	0.854255
2678.000000	0.854277
2676.000000	0.854347
2674.000000	0.854447
2672.000000	0.854505
2670.000000	0.854517
2668.000000	0.854519
2666.000000	0.854520
2664.000000	0.854536
2662.000000	0.854569
2660.000000	0.854628
2658.000000	0.854692
2656.000000	0.854746
2654.000000	0.854794
2652.000000	0.854851
2650.000000	0.854903
2648.000000	0.854922
2646.000000	0.854944
2644.000000	0.854981
2642.000000	0.855031
2640.000000	0.855107
2638.000000	0.855134
2636.000000	0.855130
2634.000000	0.855149
2632.000000	0.855195
2630.000000	0.855233
2628.000000	0.855272
2626.000000	0.855327
2624.000000	0.855364
2622.000000	0.855391
2620.000000	0.855430
2618.000000	0.855434
2616.000000	0.855474
2614.000000	0.855537
2612.000000	0.855553
2610.000000	0.855565
2608.000000	0.855590
2606.000000	0.855629
2604.000000	0.855696
2602.000000	0.855733
2600.000000	0.855749
2598.000000	0.855761
2596.000000	0.855792
2594.000000	0.855799
2592.000000	0.855804
2590.000000	0.855853
2588.000000	0.855920
2586.000000	0.855944
2584.000000	0.855944
2582.000000	0.855967
2580.000000	0.856010
2578.000000	0.856012
2576.000000	0.856019
2574.000000	0.856037
2572.000000	0.856077
2570.000000	0.856106
2568.000000	0.856095
2566.000000	0.856082
2564.000000	0.856100
2562.000000	0.856125
2560.000000	0.856157
2558.000000	0.856210
2556.000000	0.856227
2554.000000	0.856225
2552.000000	0.856264
2550.000000	0.856289
2548.000000	0.856292
2546.000000	0.856294
2544.000000	0.856338
2542.000000	0.856355
2540.000000	0.856337
2538.000000	0.856326
2536.000000	0.856326
2534.000000	0.856327
2532.000000	0.856345
2530.000000	0.856361
2528.000000	0.856370
2526.000000	0.856376
2524.000000	0.856347
2522.000000	0.856327
2520.000000	0.856335
2518.000000	0.856334
2516.000000	0.856360
2514.000000	0.856375
2512.000000	0.856396
2510.000000	0.856434
2508.000000	0.856432
2506.000000	0.856378
2504.000000	0.856363
2502.000000	0.856363
2500.000000	0.856355
2498.000000	0.856374
2496.000000	0.856414
2494.000000	0.856432
2492.000000	0.856451
2490.000000	0.856464
2488.000000	0.856474
2486.000000	0.856468
2484.000000	0.856464
2482.000000	0.856442
2480.000000	0.856417
2478.000000	0.856435
2476.000000	0.856463
2474.000000	0.856430
2472.000000	0.856416
2470.000000	0.856426
2468.000000	0.856436
2466.000000	0.856434
2464.000000	0.856456
2462.000000	0.856518
2460.000000	0.856553
2458.000000	0.856526
2456.000000	0.856546
2454.000000	0.856580
2452.000000	0.856571
2450.000000	0.856543
2448.000000	0.856528
2446.000000	0.856519
2444.000000	0.856510
2442.000000	0.856457
2440.000000	0.856432
2438.000000	0.856425
2436.000000	0.856408
2434.000000	0.856380
2432.000000	0.856345
2430.000000	0.856298
2428.000000	0.856261
2426.000000	0.856258
2424.000000	0.856260
2422.000000	0.856223
2420.000000	0.856165
2418.000000	0.856079
2416.000000	0.856032
2414.000000	0.855992
2412.000000	0.855972
2410.000000	0.855986
2408.000000	0.855950
2406.000000	0.855857
2404.000000	0.855740
2402.000000	0.855617
2400.000000	0.855542
2398.000000	0.855467
2396.000000	0.855367
2394.000000	0.855270
2392.000000	0.855181
2390.000000	0.855088
2388.000000	0.854997
2386.000000	0.854891
2384.000000	0.854981
2382.000000	0.855667
2380.000000	0.856948
2378.000000	0.858087
2376.000000	0.858618
2374.000000	0.858697
2372.000000	0.858578
2370.000000	0.858313
2368.000000	0.857970
2366.000000	0.857717
2364.000000	0.857699
2362.000000	0.857920
2360.000000	0.858330
2358.000000	0.858887
2356.000000	0.859558
2354.000000	0.860318
2352.000000	0.861103
2350.000000	0.861764
2348.000000	0.862055
2346.000000	0.862042
2344.000000	0.862072
2342.000000	0.862222
2340.000000	0.862236
2338.000000	0.861789
2336.000000	0.861066
2334.000000	0.860505
2332.000000	0.860197
2330.000000	0.860020
2328.000000	0.859940
2326.000000	0.859866
2324.000000	0.859786
2322.000000	0.859797
2320.000000	0.859893
2318.000000	0.859934
2316.000000	0.859918
2314.000000	0.859933
2312.000000	0.859959
2310.000000	0.859954
2308.000000	0.859974
2306.000000	0.859954
2304.000000	0.859949
2302.000000	0.859975
2300.000000	0.859987
2298.000000	0.859978
2296.000000	0.859948
2294.000000	0.859895
2292.000000	0.859865
2290.000000	0.859839
2288.000000	0.859799
2286.000000	0.859824
2284.000000	0.860068
2282.000000	0.860343
2280.000000	0.860271
2278.000000	0.860080
2276.000000	0.860009
2274.000000	0.859940
2272.000000	0.859887
2270.000000	0.859863
2268.000000	0.859819
2266.000000	0.859750
2264.000000	0.859715
2262.000000	0.859678
2260.000000	0.859639
2258.000000	0.859618
2256.000000	0.859601
2254.000000	0.859588
2252.000000	0.859558
2250.000000	0.859501
2248.000000	0.859486
2246.000000	0.859458
2244.000000	0.859432
2242.000000	0.859407
2240.000000	0.859412
2238.000000	0.859368
2236.000000	0.859303
2234.000000	0.859244
2232.000000	0.859214
2230.000000	0.859210
2228.000000	0.859207
2226.000000	0.859165
2224.000000	0.859147
2222.000000	0.859125
2220.000000	0.859103
2218.000000	0.859060
2216.000000	0.859014
2214.000000	0.859013
2212.000000	0.859013
2210.000000	0.858967
2208.000000	0.858912
2206.000000	0.858835
2204.000000	0.858790
2202.000000	0.858779
2200.000000	0.858777
2198.000000	0.858750
2196.000000	0.858712
2194.000000	0.858675
2192.000000	0.858627
2190.000000	0.858595
2188.000000	0.858604
2186.000000	0.858584
2184.000000	0.858556
2182.000000	0.858546
2180.000000	0.858503
2178.000000	0.858462
2176.000000	0.858445
2174.000000	0.858396
2172.000000	0.858359
2170.000000	0.858343
2168.000000	0.858352
2166.000000	0.858342
2164.000000	0.858297
2162.000000	0.858226
2160.000000	0.858157
2158.000000	0.858114
2156.000000	0.858120
2154.000000	0.858086
2152.000000	0.858021
2150.000000	0.857986
2148.000000	0.857980
2146.000000	0.857935
2144.000000	0.857886
2142.000000	0.857869
2140.000000	0.857860
2138.000000	0.857816
2136.000000	0.857774
2134.000000	0.857727
2132.000000	0.857710
2130.000000	0.857682
2128.000000	0.857639
2126.000000	0.857592
2124.000000	0.857552
2122.000000	0.857527
2120.000000	0.857530
2118.000000	0.857492
2116.000000	0.857424
2114.000000	0.857384
2112.000000	0.857386
2110.000000	0.857357
2108.000000	0.857326
2106.000000	0.857275
2104.000000	0.857224
2102.000000	0.857168
2100.000000	0.857132
2098.000000	0.857113
2096.000000	0.857109
2094.000000	0.857062
2092.000000	0.857036
2090.000000	0.857015
2088.000000	0.856986
2086.000000	0.856992
2084.000000	0.856997
2082.000000	0.856940
2080.000000	0.856883
2078.000000	0.856813
2076.000000	0.856780
2074.000000	0.856762
2072.000000	0.856739
2070.000000	0.856682
2068.000000	0.856599
2066.000000	0.856512
2064.000000	0.856491
2062.000000	0.856479
2060.000000	0.856482
2058.000000	0.856468
2056.000000	0.856435
2054.000000	0.856372
2052.000000	0.856339
2050.000000	0.856327
2048.000000	0.856318
2046.000000	0.856257
2044.000000	0.856193
2042.000000	0.856127
2040.000000	0.856108
2038.000000	0.856080
2036.000000	0.856032
2034.000000	0.855968
2032.000000	0.855938
2030.000000	0.855922
2028.000000	0.855885
2026.000000	0.855803
2024.000000	0.855768
2022.000000	0.855734
2020.000000	0.855644
2018.000000	0.855526
2016.000000	0.855527
2014.000000	0.855538
2012.000000	0.855480
2010.000000	0.855405
2008.000000	0.855372
2006.000000	0.855380
2004.000000	0.855351
2002.000000	0.855288
2000.000000	0.855255
1998.000000	0.855231
1996.000000	0.855188
1994.000000	0.854982
1992.000000	0.854799
1990.000000	0.854864
1988.000000	0.854947
1986.000000	0.854952
1984.000000	0.854938
1982.000000	0.854917
1980.000000	0.854911
1978.000000	0.854853
1976.000000	0.854800
1974.000000	0.854760
1972.000000	0.854734
1970.000000	0.854645
1968.000000	0.854494
1966.000000	0.854518
1964.000000	0.854631
1962.000000	0.854620
1960.000000	0.854610
1958.000000	0.854618
1956.000000	0.854583
1954.000000	0.854570
1952.000000	0.854604
1950.000000	0.854587
1948.000000	0.854507
1946.000000	0.854363
1944.000000	0.854098
1942.000000	0.854037
1940.000000	0.854350
1938.000000	0.854509
1936.000000	0.854533
1934.000000	0.854516
1932.000000	0.854524
1930.000000	0.854518
1928.000000	0.854508
1926.000000	0.854387
1924.000000	0.854123
1922.000000	0.854042
1920.000000	0.853845
1918.000000	0.853560
1916.000000	0.854034
1914.000000	0.854417
1912.000000	0.854411
1910.000000	0.854282
1908.000000	0.854329
1906.000000	0.854444
1904.000000	0.854513
1902.000000	0.854504
1900.000000	0.854492
1898.000000	0.854358
1896.000000	0.854212
1894.000000	0.854240
1892.000000	0.854129
1890.000000	0.853748
1888.000000	0.853959
1886.000000	0.854264
1884.000000	0.854330
1882.000000	0.854331
1880.000000	0.854315
1878.000000	0.854239
1876.000000	0.854225
1874.000000	0.854203
1872.000000	0.853739
1870.000000	0.852702
1868.000000	0.852655
1866.000000	0.853487
1864.000000	0.853952
1862.000000	0.853955
1860.000000	0.853922
1858.000000	0.853926
1856.000000	0.853957
1854.000000	0.853903
1852.000000	0.853842
1850.000000	0.853677
1848.000000	0.853262
1846.000000	0.851909
1844.000000	0.851228
1842.000000	0.852654
1840.000000	0.853601
1838.000000	0.853592
1836.000000	0.853617
1834.000000	0.853547
1832.000000	0.852799
1830.000000	0.852098
1828.000000	0.852494
1826.000000	0.852582
1824.000000	0.852912
1822.000000	0.853569
1820.000000	0.853742
1818.000000	0.853663
1816.000000	0.853708
1814.000000	0.853656
1812.000000	0.853333
1810.000000	0.853245
1808.000000	0.853567
1806.000000	0.853722
1804.000000	0.853437
1802.000000	0.852792
1800.000000	0.852718
1798.000000	0.853147
1796.000000	0.853021
1794.000000	0.851550
1792.000000	0.850977
1790.000000	0.852512
1788.000000	0.853483
1786.000000	0.853181
1784.000000	0.853130
1782.000000	0.853255
1780.000000	0.853352
1778.000000	0.853607
1776.000000	0.852973
1774.000000	0.850721
1772.000000	0.849871
1770.000000	0.851385
1768.000000	0.852361
1766.000000	0.853406
1764.000000	0.853178
1762.000000	0.852350
1760.000000	0.852942
1758.000000	0.853161
1756.000000	0.853256
1754.000000	0.853041
1752.000000	0.851334
1750.000000	0.851230
1748.000000	0.852526
1746.000000	0.853373
1744.000000	0.853507
1742.000000	0.852928
1740.000000	0.852328
1738.000000	0.852626
1736.000000	0.850061
1734.000000	0.847640
1732.000000	0.850837
1730.000000	0.853638
1728.000000	0.854636
1726.000000	0.854902
1724.000000	0.854792
1722.000000	0.854423
1720.000000	0.851845
1718.000000	0.848368
1716.000000	0.849535
1714.000000	0.852687
1712.000000	0.854509
1710.000000	0.854754
1708.000000	0.854079
1706.000000	0.853125
1704.000000	0.852682
1702.000000	0.849188
1700.000000	0.846845
1698.000000	0.848233
1696.000000	0.848413
1694.000000	0.852072
1692.000000	0.854918
1690.000000	0.854867
1688.000000	0.853561
1686.000000	0.848954
1684.000000	0.847452
1682.000000	0.852087
1680.000000	0.854778
1678.000000	0.854432
1676.000000	0.852556
1674.000000	0.852953
1672.000000	0.853396
1670.000000	0.852424
1668.000000	0.853715
1666.000000	0.855237
1664.000000	0.854479
1662.000000	0.854384
1660.000000	0.855635
1658.000000	0.855665
1656.000000	0.851752
1654.000000	0.844406
1652.000000	0.845893
1650.000000	0.852233
1648.000000	0.851961
1646.000000	0.851460
1644.000000	0.854348
1642.000000	0.856084
1640.000000	0.855748
1638.000000	0.853231
1636.000000	0.850428
1634.000000	0.852731
1632.000000	0.855785
1630.000000	0.855885
1628.000000	0.855313
1626.000000	0.854896
1624.000000	0.854076
1622.000000	0.854690
1620.000000	0.854932
1618.000000	0.852008
1616.000000	0.851688
1614.000000	0.854979
1612.000000	0.856224
1610.000000	0.856194
1608.000000	0.856227
1606.000000	0.856403
1604.000000	0.856444
1602.000000	0.856484
1600.000000	0.856588
1598.000000	0.856586
1596.000000	0.856475
1594.000000	0.856560
1592.000000	0.856653
1590.000000	0.856645
1588.000000	0.856683
1586.000000	0.856714
1584.000000	0.856702
1582.000000	0.856703
1580.000000	0.856158
1578.000000	0.853060
1576.000000	0.851103
1574.000000	0.854216
1572.000000	0.855197
1570.000000	0.853946
1568.000000	0.854841
1566.000000	0.855852
1564.000000	0.855530
1562.000000	0.851819
1560.000000	0.845020
1558.000000	0.845749
1556.000000	0.850953
1554.000000	0.853374
1552.000000	0.855015
1550.000000	0.855630
1548.000000	0.855697
1546.000000	0.854352
1544.000000	0.851941
1542.000000	0.848250
1540.000000	0.846117
1538.000000	0.850478
1536.000000	0.854274
1534.000000	0.853763
1532.000000	0.854707
1530.000000	0.855672
1528.000000	0.854758
1526.000000	0.853623
1524.000000	0.852276
1522.000000	0.849846
1520.000000	0.850899
1518.000000	0.852997
1516.000000	0.854014
1514.000000	0.855016
1512.000000	0.854868
1510.000000	0.853130
1508.000000	0.848450
1506.000000	0.847606
1504.000000	0.852946
1502.000000	0.855757
1500.000000	0.854840
1498.000000	0.853016
1496.000000	0.853085
1494.000000	0.855266
1492.000000	0.855116
1490.000000	0.853933
1488.000000	0.854468
1486.000000	0.855678
1484.000000	0.856470
1482.000000	0.856420
1480.000000	0.856328
1478.000000	0.855558
1476.000000	0.853962
1474.000000	0.851854
1472.000000	0.852063
1470.000000	0.854887
1468.000000	0.855853
1466.000000	0.854592
1464.000000	0.854577
1462.000000	0.855521
1460.000000	0.853523
1458.000000	0.849166
1456.000000	0.849685
1454.000000	0.854112
1452.000000	0.855742
1450.000000	0.855545
1448.000000	0.855086
1446.000000	0.855588
1444.000000	0.855956
1442.000000	0.855986
1440.000000	0.855224
1438.000000	0.852745
1436.000000	0.852272
1434.000000	0.854557
1432.000000	0.854999
1430.000000	0.854777
1428.000000	0.855095
1426.000000	0.855182
1424.000000	0.854772
1422.000000	0.853861
1420.000000	0.851657
1418.000000	0.852337
1416.000000	0.854558
1414.000000	0.855318
1412.000000	0.855230
1410.000000	0.855196
1408.000000	0.855009
1406.000000	0.854558
1404.000000	0.854562
1402.000000	0.854718
1400.000000	0.853897
1398.000000	0.853541
1396.000000	0.853139
1394.000000	0.853199
1392.000000	0.854213
1390.000000	0.854117
1388.000000	0.853166
1386.000000	0.853602
1384.000000	0.854485
1382.000000	0.854593
1380.000000	0.854401
1378.000000	0.854210
1376.000000	0.853712
1374.000000	0.853339
1372.000000	0.853774
1370.000000	0.854027
1368.000000	0.854020
1366.000000	0.853847
1364.000000	0.853132
1362.000000	0.852867
1360.000000	0.853400
1358.000000	0.853766
1356.000000	0.853730
1354.000000	0.853708
1352.000000	0.853736
1350.000000	0.853740
1348.000000	0.853708
1346.000000	0.853708
1344.000000	0.853653
1342.000000	0.853321
1340.000000	0.852869
1338.000000	0.852934
1336.000000	0.853283
1334.000000	0.853497
1332.000000	0.853499
1330.000000	0.853515
1328.000000	0.853529
1326.000000	0.853500
1324.000000	0.853431
1322.000000	0.853352
1320.000000	0.853212
1318.000000	0.853139
1316.000000	0.853200
1314.000000	0.853241
1312.000000	0.853214
1310.000000	0.853246
1308.000000	0.853244
1306.000000	0.853264
1304.000000	0.853311
1302.000000	0.853330
1300.000000	0.853320
1298.000000	0.853337
1296.000000	0.853297
1294.000000	0.853193
1292.000000	0.853146
1290.000000	0.853161
1288.000000	0.853187
1286.000000	0.853275
1284.000000	0.853274
1282.000000	0.853247
1280.000000	0.853328
1278.000000	0.853434
1276.000000	0.853441
1274.000000	0.853518
1272.000000	0.853745
1270.000000	0.854193
1268.000000	0.854923
1266.000000	0.855939
1264.000000	0.857021
1262.000000	0.857982
1260.000000	0.858447
1258.000000	0.858200
1256.000000	0.857371
1254.000000	0.856414
1252.000000	0.855686
1250.000000	0.855268
1248.000000	0.855036
1246.000000	0.854894
1244.000000	0.854770
1242.000000	0.854709
1240.000000	0.854746
1238.000000	0.854809
1236.000000	0.854792
1234.000000	0.854817
1232.000000	0.854892
1230.000000	0.854926
1228.000000	0.854965
1226.000000	0.854993
1224.000000	0.854917
1222.000000	0.854898
1220.000000	0.854947
1218.000000	0.854964
1216.000000	0.854932
1214.000000	0.854993
1212.000000	0.855050
1210.000000	0.855074
1208.000000	0.855080
1206.000000	0.855120
1204.000000	0.855145
1202.000000	0.855268
1200.000000	0.855414
1198.000000	0.855487
1196.000000	0.855548
1194.000000	0.855705
1192.000000	0.855880
1190.000000	0.855962
1188.000000	0.856091
1186.000000	0.856287
1184.000000	0.856479
1182.000000	0.856651
1180.000000	0.856786
1178.000000	0.856974
1176.000000	0.857119
1174.000000	0.857200
1172.000000	0.857391
1170.000000	0.857683
1168.000000	0.857774
1166.000000	0.857775
1164.000000	0.857916
1162.000000	0.858076
1160.000000	0.858148
1158.000000	0.858233
1156.000000	0.858238
1154.000000	0.858300
1152.000000	0.858432
1150.000000	0.858560
1148.000000	0.858640
1146.000000	0.858782
1144.000000	0.858832
1142.000000	0.858869
1140.000000	0.858872
1138.000000	0.858824
1136.000000	0.858799
1134.000000	0.858857
1132.000000	0.858871
1130.000000	0.858917
1128.000000	0.858973
1126.000000	0.859059
1124.000000	0.859088
1122.000000	0.859138
1120.000000	0.859129
1118.000000	0.859293
1116.000000	0.859624
1114.000000	0.859841
1112.000000	0.859911
1110.000000	0.860055
1108.000000	0.860364
1106.000000	0.860729
1104.000000	0.860775
1102.000000	0.860805
1100.000000	0.860977
1098.000000	0.861008
1096.000000	0.861014
1094.000000	0.861160
1092.000000	0.861223
1090.000000	0.861098
1088.000000	0.860972
1086.000000	0.860877
1084.000000	0.860753
1082.000000	0.860610
1080.000000	0.860238
1078.000000	0.859796
1076.000000	0.859608
1074.000000	0.859234
1072.000000	0.858769
1070.000000	0.858525
1068.000000	0.858382
1066.000000	0.858181
1064.000000	0.857785
1062.000000	0.857421
1060.000000	0.857020
1058.000000	0.856549
1056.000000	0.856063
1054.000000	0.855737
1052.000000	0.855469
1050.000000	0.855174
1048.000000	0.854496
1046.000000	0.853875
1044.000000	0.853678
1042.000000	0.853451
1040.000000	0.853170
1038.000000	0.852952
1036.000000	0.852651
1034.000000	0.852276
1032.000000	0.851885
1030.000000	0.851447
1028.000000	0.851021
1026.000000	0.850761
1024.000000	0.850669
1022.000000	0.850272
1020.000000	0.849894
1018.000000	0.849944
1016.000000	0.849599
1014.000000	0.848649
1012.000000	0.847610
1010.000000	0.846918
1008.000000	0.846183
1006.000000	0.845479
1004.000000	0.844711
1002.000000	0.843730
1000.000000	0.842847
