PE IR       SUBTECH     SPECTRUM    ASCII       PEDS        4.00        
   -1
TE110A_004_80K.ASC
20/05/14
11:10:46.00
20/05/14
11:10:46.00
Administrator
AK004, Thursday, May 14 2020, 003.
1000.000000
#HDR
-1
-1
#GR
cm-1
A
1.0
0.0
6000.000000
-2.000000
2501
8
0.847056
0.815685
#DATA
6000.000000	0.821494
5998.000000	0.821572
5996.000000	0.821651
5994.000000	0.821594
5992.000000	0.821537
5990.000000	0.821462
5988.000000	0.821388
5986.000000	0.821416
5984.000000	0.821513
5982.000000	0.821532
5980.000000	0.821618
5978.000000	0.821786
5976.000000	0.821851
5974.000000	0.821868
5972.000000	0.821784
5970.000000	0.821654
5968.000000	0.821660
5966.000000	0.821671
5964.000000	0.821868
5962.000000	0.822132
5960.000000	0.822195
5958.000000	0.822044
5956.000000	0.821856
5954.000000	0.821619
5952.000000	0.821651
5950.000000	0.821868
5948.000000	0.822013
5946.000000	0.822044
5944.000000	0.821872
5942.000000	0.821775
5940.000000	0.821871
5938.000000	0.821988
5936.000000	0.822064
5934.000000	0.821954
5932.000000	0.821800
5930.000000	0.821729
5928.000000	0.821965
5926.000000	0.822171
5924.000000	0.822166
5922.000000	0.822091
5920.000000	0.822005
5918.000000	0.822022
5916.000000	0.821981
5914.000000	0.821968
5912.000000	0.822052
5910.000000	0.822050
5908.000000	0.822102
5906.000000	0.822142
5904.000000	0.822143
5902.000000	0.822055
5900.000000	0.821960
5898.000000	0.821973
5896.000000	0.822145
5894.000000	0.822267
5892.000000	0.822253
5890.000000	0.822039
5888.000000	0.821809
5886.000000	0.821780
5884.000000	0.821884
5882.000000	0.822017
5880.000000	0.822129
5878.000000	0.822147
5876.000000	0.822070
5874.000000	0.822026
5872.000000	0.822121
5870.000000	0.822230
5868.000000	0.822191
5866.000000	0.822113
5864.000000	0.821983
5862.000000	0.821874
5860.000000	0.821721
5858.000000	0.821662
5856.000000	0.821867
5854.000000	0.822024
5852.000000	0.822029
5850.000000	0.821869
5848.000000	0.821882
5846.000000	0.822011
5844.000000	0.822045
5842.000000	0.822076
5840.000000	0.822206
5838.000000	0.822418
5836.000000	0.822419
5834.000000	0.822279
5832.000000	0.822141
5830.000000	0.822043
5828.000000	0.822009
5826.000000	0.821998
5824.000000	0.821943
5822.000000	0.821913
5820.000000	0.822132
5818.000000	0.822429
5816.000000	0.822595
5814.000000	0.822462
5812.000000	0.822576
5810.000000	0.822781
5808.000000	0.822799
5806.000000	0.822563
5804.000000	0.822335
5802.000000	0.822366
5800.000000	0.822469
5798.000000	0.822548
5796.000000	0.822501
5794.000000	0.822611
5792.000000	0.822791
5790.000000	0.822875
5788.000000	0.822743
5786.000000	0.822515
5784.000000	0.822475
5782.000000	0.822541
5780.000000	0.822604
5778.000000	0.822593
5776.000000	0.822679
5774.000000	0.822806
5772.000000	0.822884
5770.000000	0.822756
5768.000000	0.822568
5766.000000	0.822503
5764.000000	0.822457
5762.000000	0.822425
5760.000000	0.822374
5758.000000	0.822360
5756.000000	0.822437
5754.000000	0.822364
5752.000000	0.822387
5750.000000	0.822447
5748.000000	0.822578
5746.000000	0.822588
5744.000000	0.822431
5742.000000	0.822374
5740.000000	0.822383
5738.000000	0.822363
5736.000000	0.822431
5734.000000	0.822533
5732.000000	0.822751
5730.000000	0.822815
5728.000000	0.822774
5726.000000	0.822739
5724.000000	0.822683
5722.000000	0.822551
5720.000000	0.822476
5718.000000	0.822536
5716.000000	0.822690
5714.000000	0.822753
5712.000000	0.822671
5710.000000	0.822649
5708.000000	0.822735
5706.000000	0.822758
5704.000000	0.822833
5702.000000	0.822905
5700.000000	0.822932
5698.000000	0.822983
5696.000000	0.822932
5694.000000	0.822809
5692.000000	0.822642
5690.000000	0.822528
5688.000000	0.822648
5686.000000	0.822775
5684.000000	0.822810
5682.000000	0.822809
5680.000000	0.822764
5678.000000	0.822796
5676.000000	0.822815
5674.000000	0.822890
5672.000000	0.823029
5670.000000	0.823054
5668.000000	0.822965
5666.000000	0.822776
5664.000000	0.822692
5662.000000	0.822763
5660.000000	0.822853
5658.000000	0.822898
5656.000000	0.822890
5654.000000	0.822816
5652.000000	0.822800
5650.000000	0.822801
5648.000000	0.822826
5646.000000	0.822813
5644.000000	0.822780
5642.000000	0.822844
5640.000000	0.822798
5638.000000	0.822787
5636.000000	0.822813
5634.000000	0.822821
5632.000000	0.822787
5630.000000	0.822768
5628.000000	0.822800
5626.000000	0.822842
5624.000000	0.822825
5622.000000	0.822889
5620.000000	0.822937
5618.000000	0.822879
5616.000000	0.822852
5614.000000	0.822867
5612.000000	0.822997
5610.000000	0.823098
5608.000000	0.823064
5606.000000	0.822933
5604.000000	0.822879
5602.000000	0.822962
5600.000000	0.822970
5598.000000	0.822907
5596.000000	0.822894
5594.000000	0.822913
5592.000000	0.822958
5590.000000	0.822992
5588.000000	0.823094
5586.000000	0.823150
5584.000000	0.823084
5582.000000	0.823031
5580.000000	0.823089
5578.000000	0.823111
5576.000000	0.823074
5574.000000	0.823027
5572.000000	0.823105
5570.000000	0.823159
5568.000000	0.823081
5566.000000	0.822978
5564.000000	0.822978
5562.000000	0.823047
5560.000000	0.823117
5558.000000	0.823080
5556.000000	0.823006
5554.000000	0.822900
5552.000000	0.822799
5550.000000	0.822712
5548.000000	0.822740
5546.000000	0.822905
5544.000000	0.822997
5542.000000	0.823044
5540.000000	0.823081
5538.000000	0.823156
5536.000000	0.823161
5534.000000	0.823113
5532.000000	0.823115
5530.000000	0.823121
5528.000000	0.823065
5526.000000	0.823003
5524.000000	0.822973
5522.000000	0.822951
5520.000000	0.822920
5518.000000	0.822906
5516.000000	0.822934
5514.000000	0.822916
5512.000000	0.822912
5510.000000	0.822917
5508.000000	0.822893
5506.000000	0.822864
5504.000000	0.822877
5502.000000	0.822930
5500.000000	0.822970
5498.000000	0.822990
5496.000000	0.822943
5494.000000	0.822899
5492.000000	0.822923
5490.000000	0.823061
5488.000000	0.823161
5486.000000	0.823093
5484.000000	0.822942
5482.000000	0.822834
5480.000000	0.822819
5478.000000	0.822762
5476.000000	0.822670
5474.000000	0.822642
5472.000000	0.822697
5470.000000	0.822736
5468.000000	0.822704
5466.000000	0.822647
5464.000000	0.822563
5462.000000	0.822560
5460.000000	0.822577
5458.000000	0.822598
5456.000000	0.822676
5454.000000	0.822747
5452.000000	0.822715
5450.000000	0.822473
5448.000000	0.822307
5446.000000	0.822343
5444.000000	0.822439
5442.000000	0.822507
5440.000000	0.822538
5438.000000	0.822578
5436.000000	0.822606
5434.000000	0.822551
5432.000000	0.822469
5430.000000	0.822534
5428.000000	0.822671
5426.000000	0.822902
5424.000000	0.823034
5422.000000	0.823136
5420.000000	0.823089
5418.000000	0.822829
5416.000000	0.822548
5414.000000	0.822432
5412.000000	0.822528
5410.000000	0.822684
5408.000000	0.822767
5406.000000	0.822790
5404.000000	0.822788
5402.000000	0.822766
5400.000000	0.822704
5398.000000	0.822618
5396.000000	0.822572
5394.000000	0.822642
5392.000000	0.822795
5390.000000	0.822874
5388.000000	0.822853
5386.000000	0.822802
5384.000000	0.822717
5382.000000	0.822699
5380.000000	0.822652
5378.000000	0.822685
5376.000000	0.822670
5374.000000	0.822633
5372.000000	0.822631
5370.000000	0.822677
5368.000000	0.822709
5366.000000	0.822728
5364.000000	0.822821
5362.000000	0.822974
5360.000000	0.822912
5358.000000	0.822678
5356.000000	0.822488
5354.000000	0.822418
5352.000000	0.822430
5350.000000	0.822415
5348.000000	0.822357
5346.000000	0.822246
5344.000000	0.822252
5342.000000	0.822226
5340.000000	0.822153
5338.000000	0.822182
5336.000000	0.822422
5334.000000	0.822701
5332.000000	0.822768
5330.000000	0.822677
5328.000000	0.822655
5326.000000	0.822713
5324.000000	0.822801
5322.000000	0.822838
5320.000000	0.822867
5318.000000	0.822883
5316.000000	0.822849
5314.000000	0.822866
5312.000000	0.822910
5310.000000	0.822838
5308.000000	0.822705
5306.000000	0.822674
5304.000000	0.822721
5302.000000	0.822735
5300.000000	0.822649
5298.000000	0.822594
5296.000000	0.822691
5294.000000	0.822747
5292.000000	0.822687
5290.000000	0.822604
5288.000000	0.822658
5286.000000	0.822716
5284.000000	0.822679
5282.000000	0.822722
5280.000000	0.822817
5278.000000	0.822840
5276.000000	0.822774
5274.000000	0.822710
5272.000000	0.822635
5270.000000	0.822545
5268.000000	0.822427
5266.000000	0.822311
5264.000000	0.822295
5262.000000	0.822411
5260.000000	0.822539
5258.000000	0.822532
5256.000000	0.822490
5254.000000	0.822481
5252.000000	0.822421
5250.000000	0.822336
5248.000000	0.822331
5246.000000	0.822405
5244.000000	0.822468
5242.000000	0.822572
5240.000000	0.822747
5238.000000	0.822912
5236.000000	0.822881
5234.000000	0.822705
5232.000000	0.822542
5230.000000	0.822460
5228.000000	0.822465
5226.000000	0.822558
5224.000000	0.822670
5222.000000	0.822642
5220.000000	0.822615
5218.000000	0.822740
5216.000000	0.822890
5214.000000	0.822867
5212.000000	0.822727
5210.000000	0.822521
5208.000000	0.822374
5206.000000	0.822440
5204.000000	0.822624
5202.000000	0.822741
5200.000000	0.822690
5198.000000	0.822585
5196.000000	0.822567
5194.000000	0.822616
5192.000000	0.822569
5190.000000	0.822484
5188.000000	0.822517
5186.000000	0.822636
5184.000000	0.822647
5182.000000	0.822637
5180.000000	0.822621
5178.000000	0.822592
5176.000000	0.822503
5174.000000	0.822446
5172.000000	0.822458
5170.000000	0.822589
5168.000000	0.822684
5166.000000	0.822665
5164.000000	0.822591
5162.000000	0.822558
5160.000000	0.822574
5158.000000	0.822575
5156.000000	0.822602
5154.000000	0.822631
5152.000000	0.822666
5150.000000	0.822653
5148.000000	0.822624
5146.000000	0.822598
5144.000000	0.822615
5142.000000	0.822680
5140.000000	0.822729
5138.000000	0.822750
5136.000000	0.822747
5134.000000	0.822773
5132.000000	0.822780
5130.000000	0.822801
5128.000000	0.822822
5126.000000	0.822770
5124.000000	0.822706
5122.000000	0.822720
5120.000000	0.822772
5118.000000	0.822743
5116.000000	0.822619
5114.000000	0.822548
5112.000000	0.822612
5110.000000	0.822698
5108.000000	0.822657
5106.000000	0.822586
5104.000000	0.822692
5102.000000	0.822778
5100.000000	0.822688
5098.000000	0.822548
5096.000000	0.822560
5094.000000	0.822631
5092.000000	0.822655
5090.000000	0.822631
5088.000000	0.822637
5086.000000	0.822665
5084.000000	0.822688
5082.000000	0.822659
5080.000000	0.822578
5078.000000	0.822518
5076.000000	0.822534
5074.000000	0.822593
5072.000000	0.822577
5070.000000	0.822557
5068.000000	0.822580
5066.000000	0.822621
5064.000000	0.822637
5062.000000	0.822662
5060.000000	0.822661
5058.000000	0.822608
5056.000000	0.822555
5054.000000	0.822559
5052.000000	0.822588
5050.000000	0.822569
5048.000000	0.822535
5046.000000	0.822546
5044.000000	0.822621
5042.000000	0.822744
5040.000000	0.822813
5038.000000	0.822803
5036.000000	0.822782
5034.000000	0.822842
5032.000000	0.822883
5030.000000	0.822840
5028.000000	0.822782
5026.000000	0.822739
5024.000000	0.822730
5022.000000	0.822786
5020.000000	0.822877
5018.000000	0.822897
5016.000000	0.822851
5014.000000	0.822840
5012.000000	0.822841
5010.000000	0.822785
5008.000000	0.822742
5006.000000	0.822730
5004.000000	0.822680
5002.000000	0.822631
5000.000000	0.822666
4998.000000	0.822685
4996.000000	0.822660
4994.000000	0.822647
4992.000000	0.822722
4990.000000	0.822791
4988.000000	0.822807
4986.000000	0.822754
4984.000000	0.822707
4982.000000	0.822715
4980.000000	0.822716
4978.000000	0.822666
4976.000000	0.822577
4974.000000	0.822543
4972.000000	0.822635
4970.000000	0.822724
4968.000000	0.822698
4966.000000	0.822591
4964.000000	0.822577
4962.000000	0.822670
4960.000000	0.822741
4958.000000	0.822738
4956.000000	0.822706
4954.000000	0.822689
4952.000000	0.822658
4950.000000	0.822686
4948.000000	0.822765
4946.000000	0.822773
4944.000000	0.822735
4942.000000	0.822727
4940.000000	0.822725
4938.000000	0.822723
4936.000000	0.822802
4934.000000	0.822874
4932.000000	0.822832
4930.000000	0.822783
4928.000000	0.822777
4926.000000	0.822758
4924.000000	0.822730
4922.000000	0.822767
4920.000000	0.822822
4918.000000	0.822812
4916.000000	0.822765
4914.000000	0.822760
4912.000000	0.822808
4910.000000	0.822805
4908.000000	0.822754
4906.000000	0.822710
4904.000000	0.822677
4902.000000	0.822655
4900.000000	0.822663
4898.000000	0.822699
4896.000000	0.822701
4894.000000	0.822703
4892.000000	0.822775
4890.000000	0.822847
4888.000000	0.822802
4886.000000	0.822688
4884.000000	0.822639
4882.000000	0.822620
4880.000000	0.822674
4878.000000	0.822749
4876.000000	0.822747
4874.000000	0.822675
4872.000000	0.822654
4870.000000	0.822665
4868.000000	0.822690
4866.000000	0.822722
4864.000000	0.822713
4862.000000	0.822682
4860.000000	0.822692
4858.000000	0.822719
4856.000000	0.822725
4854.000000	0.822721
4852.000000	0.822726
4850.000000	0.822745
4848.000000	0.822759
4846.000000	0.822746
4844.000000	0.822748
4842.000000	0.822787
4840.000000	0.822815
4838.000000	0.822791
4836.000000	0.822785
4834.000000	0.822805
4832.000000	0.822797
4830.000000	0.822752
4828.000000	0.822735
4826.000000	0.822750
4824.000000	0.822784
4822.000000	0.822798
4820.000000	0.822800
4818.000000	0.822818
4816.000000	0.822849
4814.000000	0.822839
4812.000000	0.822793
4810.000000	0.822773
4808.000000	0.822781
4806.000000	0.822758
4804.000000	0.822717
4802.000000	0.822718
4800.000000	0.822745
4798.000000	0.822713
4796.000000	0.822696
4794.000000	0.822728
4792.000000	0.822753
4790.000000	0.822722
4788.000000	0.822668
4786.000000	0.822637
4784.000000	0.822625
4782.000000	0.822574
4780.000000	0.822524
4778.000000	0.822545
4776.000000	0.822642
4774.000000	0.822683
4772.000000	0.822645
4770.000000	0.822572
4768.000000	0.822567
4766.000000	0.822576
4764.000000	0.822604
4762.000000	0.822645
4760.000000	0.822706
4758.000000	0.822731
4756.000000	0.822741
4754.000000	0.822772
4752.000000	0.822826
4750.000000	0.822827
4748.000000	0.822767
4746.000000	0.822749
4744.000000	0.822774
4742.000000	0.822759
4740.000000	0.822701
4738.000000	0.822698
4736.000000	0.822741
4734.000000	0.822734
4732.000000	0.822699
4730.000000	0.822722
4728.000000	0.822772
4726.000000	0.822750
4724.000000	0.822728
4722.000000	0.822773
4720.000000	0.822805
4718.000000	0.822775
4716.000000	0.822762
4714.000000	0.822814
4712.000000	0.822854
4710.000000	0.822822
4708.000000	0.822797
4706.000000	0.822777
4704.000000	0.822732
4702.000000	0.822708
4700.000000	0.822741
4698.000000	0.822746
4696.000000	0.822758
4694.000000	0.822764
4692.000000	0.822750
4690.000000	0.822748
4688.000000	0.822713
4686.000000	0.822586
4684.000000	0.822504
4682.000000	0.822512
4680.000000	0.822567
4678.000000	0.822633
4676.000000	0.822666
4674.000000	0.822646
4672.000000	0.822656
4670.000000	0.822714
4668.000000	0.822757
4666.000000	0.822738
4664.000000	0.822724
4662.000000	0.822746
4660.000000	0.822771
4658.000000	0.822740
4656.000000	0.822676
4654.000000	0.822658
4652.000000	0.822705
4650.000000	0.822721
4648.000000	0.822700
4646.000000	0.822736
4644.000000	0.822797
4642.000000	0.822794
4640.000000	0.822755
4638.000000	0.822757
4636.000000	0.822775
4634.000000	0.822735
4632.000000	0.822720
4630.000000	0.822758
4628.000000	0.822780
4626.000000	0.822769
4624.000000	0.822763
4622.000000	0.822754
4620.000000	0.822735
4618.000000	0.822718
4616.000000	0.822694
4614.000000	0.822687
4612.000000	0.822705
4610.000000	0.822752
4608.000000	0.822748
4606.000000	0.822686
4604.000000	0.822666
4602.000000	0.822706
4600.000000	0.822760
4598.000000	0.822821
4596.000000	0.822845
4594.000000	0.822818
4592.000000	0.822798
4590.000000	0.822781
4588.000000	0.822750
4586.000000	0.822759
4584.000000	0.822770
4582.000000	0.822734
4580.000000	0.822698
4578.000000	0.822723
4576.000000	0.822750
4574.000000	0.822742
4572.000000	0.822749
4570.000000	0.822788
4568.000000	0.822817
4566.000000	0.822815
4564.000000	0.822814
4562.000000	0.822836
4560.000000	0.822855
4558.000000	0.822860
4556.000000	0.822896
4554.000000	0.822959
4552.000000	0.822988
4550.000000	0.822987
4548.000000	0.822961
4546.000000	0.822921
4544.000000	0.822888
4542.000000	0.822896
4540.000000	0.822932
4538.000000	0.822975
4536.000000	0.823009
4534.000000	0.822979
4532.000000	0.822932
4530.000000	0.822941
4528.000000	0.822964
4526.000000	0.822959
4524.000000	0.822980
4522.000000	0.823002
4520.000000	0.822987
4518.000000	0.822941
4516.000000	0.822893
4514.000000	0.822918
4512.000000	0.822956
4510.000000	0.822902
4508.000000	0.822852
4506.000000	0.822877
4504.000000	0.822899
4502.000000	0.822904
4500.000000	0.822920
4498.000000	0.822918
4496.000000	0.822899
4494.000000	0.822892
4492.000000	0.822899
4490.000000	0.822941
4488.000000	0.822984
4486.000000	0.822958
4484.000000	0.822922
4482.000000	0.822947
4480.000000	0.822969
4478.000000	0.822976
4476.000000	0.823013
4474.000000	0.823059
4472.000000	0.823108
4470.000000	0.823117
4468.000000	0.823096
4466.000000	0.823095
4464.000000	0.823109
4462.000000	0.823122
4460.000000	0.823116
4458.000000	0.823085
4456.000000	0.823077
4454.000000	0.823091
4452.000000	0.823096
4450.000000	0.823135
4448.000000	0.823129
4446.000000	0.823066
4444.000000	0.823075
4442.000000	0.823167
4440.000000	0.823223
4438.000000	0.823207
4436.000000	0.823157
4434.000000	0.823164
4432.000000	0.823187
4430.000000	0.823168
4428.000000	0.823169
4426.000000	0.823237
4424.000000	0.823308
4422.000000	0.823299
4420.000000	0.823204
4418.000000	0.823137
4416.000000	0.823121
4414.000000	0.823142
4412.000000	0.823166
4410.000000	0.823200
4408.000000	0.823257
4406.000000	0.823286
4404.000000	0.823257
4402.000000	0.823248
4400.000000	0.823214
4398.000000	0.823157
4396.000000	0.823180
4394.000000	0.823258
4392.000000	0.823263
4390.000000	0.823206
4388.000000	0.823174
4386.000000	0.823184
4384.000000	0.823171
4382.000000	0.823170
4380.000000	0.823234
4378.000000	0.823310
4376.000000	0.823373
4374.000000	0.823442
4372.000000	0.823441
4370.000000	0.823394
4368.000000	0.823394
4366.000000	0.823402
4364.000000	0.823395
4362.000000	0.823438
4360.000000	0.823479
4358.000000	0.823451
4356.000000	0.823417
4354.000000	0.823448
4352.000000	0.823491
4350.000000	0.823489
4348.000000	0.823490
4346.000000	0.823530
4344.000000	0.823552
4342.000000	0.823523
4340.000000	0.823466
4338.000000	0.823464
4336.000000	0.823490
4334.000000	0.823483
4332.000000	0.823484
4330.000000	0.823515
4328.000000	0.823508
4326.000000	0.823472
4324.000000	0.823442
4322.000000	0.823439
4320.000000	0.823481
4318.000000	0.823529
4316.000000	0.823542
4314.000000	0.823531
4312.000000	0.823527
4310.000000	0.823525
4308.000000	0.823539
4306.000000	0.823560
4304.000000	0.823555
4302.000000	0.823528
4300.000000	0.823517
4298.000000	0.823519
4296.000000	0.823517
4294.000000	0.823524
4292.000000	0.823561
4290.000000	0.823594
4288.000000	0.823577
4286.000000	0.823552
4284.000000	0.823572
4282.000000	0.823599
4280.000000	0.823614
4278.000000	0.823616
4276.000000	0.823609
4274.000000	0.823614
4272.000000	0.823626
4270.000000	0.823608
4268.000000	0.823603
4266.000000	0.823607
4264.000000	0.823576
4262.000000	0.823580
4260.000000	0.823647
4258.000000	0.823699
4256.000000	0.823728
4254.000000	0.823740
4252.000000	0.823728
4250.000000	0.823742
4248.000000	0.823757
4246.000000	0.823750
4244.000000	0.823731
4242.000000	0.823690
4240.000000	0.823703
4238.000000	0.823785
4236.000000	0.823797
4234.000000	0.823761
4232.000000	0.823765
4230.000000	0.823765
4228.000000	0.823780
4226.000000	0.823831
4224.000000	0.823823
4222.000000	0.823762
4220.000000	0.823727
4218.000000	0.823727
4216.000000	0.823736
4214.000000	0.823705
4212.000000	0.823654
4210.000000	0.823655
4208.000000	0.823720
4206.000000	0.823812
4204.000000	0.823813
4202.000000	0.823731
4200.000000	0.823687
4198.000000	0.823674
4196.000000	0.823654
4194.000000	0.823660
4192.000000	0.823708
4190.000000	0.823760
4188.000000	0.823779
4186.000000	0.823789
4184.000000	0.823810
4182.000000	0.823807
4180.000000	0.823767
4178.000000	0.823742
4176.000000	0.823782
4174.000000	0.823824
4172.000000	0.823827
4170.000000	0.823813
4168.000000	0.823806
4166.000000	0.823852
4164.000000	0.823907
4162.000000	0.823907
4160.000000	0.823910
4158.000000	0.823924
4156.000000	0.823894
4154.000000	0.823854
4152.000000	0.823814
4150.000000	0.823772
4148.000000	0.823757
4146.000000	0.823757
4144.000000	0.823728
4142.000000	0.823714
4140.000000	0.823763
4138.000000	0.823847
4136.000000	0.823896
4134.000000	0.823883
4132.000000	0.823833
4130.000000	0.823798
4128.000000	0.823770
4126.000000	0.823731
4124.000000	0.823734
4122.000000	0.823775
4120.000000	0.823784
4118.000000	0.823743
4116.000000	0.823692
4114.000000	0.823694
4112.000000	0.823728
4110.000000	0.823717
4108.000000	0.823694
4106.000000	0.823714
4104.000000	0.823732
4102.000000	0.823725
4100.000000	0.823728
4098.000000	0.823736
4096.000000	0.823733
4094.000000	0.823721
4092.000000	0.823696
4090.000000	0.823711
4088.000000	0.823775
4086.000000	0.823802
4084.000000	0.823801
4082.000000	0.823836
4080.000000	0.823870
4078.000000	0.823834
4076.000000	0.823793
4074.000000	0.823831
4072.000000	0.823852
4070.000000	0.823824
4068.000000	0.823818
4066.000000	0.823846
4064.000000	0.823860
4062.000000	0.823826
4060.000000	0.823798
4058.000000	0.823803
4056.000000	0.823819
4054.000000	0.823812
4052.000000	0.823761
4050.000000	0.823751
4048.000000	0.823806
4046.000000	0.823819
4044.000000	0.823788
4042.000000	0.823814
4040.000000	0.823837
4038.000000	0.823780
4036.000000	0.823708
4034.000000	0.823710
4032.000000	0.823770
4030.000000	0.823766
4028.000000	0.823682
4026.000000	0.823645
4024.000000	0.823683
4022.000000	0.823709
4020.000000	0.823705
4018.000000	0.823703
4016.000000	0.823676
4014.000000	0.823639
4012.000000	0.823638
4010.000000	0.823651
4008.000000	0.823646
4006.000000	0.823629
4004.000000	0.823613
4002.000000	0.823638
4000.000000	0.823685
3998.000000	0.823659
3996.000000	0.823593
3994.000000	0.823589
3992.000000	0.823610
3990.000000	0.823621
3988.000000	0.823627
3986.000000	0.823614
3984.000000	0.823604
3982.000000	0.823589
3980.000000	0.823537
3978.000000	0.823489
3976.000000	0.823490
3974.000000	0.823534
3972.000000	0.823577
3970.000000	0.823588
3968.000000	0.823576
3966.000000	0.823543
3964.000000	0.823471
3962.000000	0.823420
3960.000000	0.823468
3958.000000	0.823545
3956.000000	0.823512
3954.000000	0.823400
3952.000000	0.823286
3950.000000	0.823202
3948.000000	0.823175
3946.000000	0.823136
3944.000000	0.823067
3942.000000	0.823130
3940.000000	0.823293
3938.000000	0.823376
3936.000000	0.823245
3934.000000	0.822965
3932.000000	0.822865
3930.000000	0.822988
3928.000000	0.822990
3926.000000	0.822865
3924.000000	0.822844
3922.000000	0.822757
3920.000000	0.822478
3918.000000	0.822405
3916.000000	0.822759
3914.000000	0.823177
3912.000000	0.823310
3910.000000	0.823154
3908.000000	0.822566
3906.000000	0.821527
3904.000000	0.820735
3902.000000	0.820705
3900.000000	0.821333
3898.000000	0.822242
3896.000000	0.822659
3894.000000	0.822205
3892.000000	0.821790
3890.000000	0.821934
3888.000000	0.821608
3886.000000	0.821207
3884.000000	0.821583
3882.000000	0.821815
3880.000000	0.822017
3878.000000	0.822418
3876.000000	0.822270
3874.000000	0.821578
3872.000000	0.820581
3870.000000	0.820267
3868.000000	0.820874
3866.000000	0.821142
3864.000000	0.821330
3862.000000	0.821968
3860.000000	0.822275
3858.000000	0.820864
3856.000000	0.817448
3854.000000	0.815685
3852.000000	0.818153
3850.000000	0.821372
3848.000000	0.822544
3846.000000	0.822316
3844.000000	0.821715
3842.000000	0.820821
3840.000000	0.819455
3838.000000	0.818988
3836.000000	0.820079
3834.000000	0.821130
3832.000000	0.821641
3830.000000	0.822066
3828.000000	0.822237
3826.000000	0.821990
3824.000000	0.820956
3822.000000	0.819956
3820.000000	0.819925
3818.000000	0.819682
3816.000000	0.819906
3814.000000	0.821527
3812.000000	0.822468
3810.000000	0.821713
3808.000000	0.820692
3806.000000	0.820587
3804.000000	0.820067
3802.000000	0.819380
3800.000000	0.820272
3798.000000	0.821424
3796.000000	0.822037
3794.000000	0.822586
3792.000000	0.822816
3790.000000	0.822832
3788.000000	0.822731
3786.000000	0.822553
3784.000000	0.822440
3782.000000	0.822195
3780.000000	0.822029
3778.000000	0.822346
3776.000000	0.822681
3774.000000	0.822460
3772.000000	0.821740
3770.000000	0.821354
3768.000000	0.821549
3766.000000	0.821803
3764.000000	0.821966
3762.000000	0.821742
3760.000000	0.821364
3758.000000	0.821311
3756.000000	0.820673
3754.000000	0.818633
3752.000000	0.816754
3750.000000	0.816920
3748.000000	0.817371
3746.000000	0.816415
3744.000000	0.817142
3742.000000	0.819772
3740.000000	0.820445
3738.000000	0.819161
3736.000000	0.818343
3734.000000	0.818731
3732.000000	0.819820
3730.000000	0.820889
3728.000000	0.821048
3726.000000	0.820795
3724.000000	0.820793
3722.000000	0.820960
3720.000000	0.821270
3718.000000	0.821464
3716.000000	0.820947
3714.000000	0.819584
3712.000000	0.818901
3710.000000	0.820174
3708.000000	0.822054
3706.000000	0.822561
3704.000000	0.821785
3702.000000	0.821281
3700.000000	0.821575
3698.000000	0.821853
3696.000000	0.821693
3694.000000	0.820967
3692.000000	0.819473
3690.000000	0.818084
3688.000000	0.818626
3686.000000	0.820453
3684.000000	0.821295
3682.000000	0.821029
3680.000000	0.820054
3678.000000	0.818140
3676.000000	0.816937
3674.000000	0.817448
3672.000000	0.817547
3670.000000	0.817858
3668.000000	0.819503
3666.000000	0.820773
3664.000000	0.821077
3662.000000	0.820941
3660.000000	0.820334
3658.000000	0.819397
3656.000000	0.819182
3654.000000	0.819096
3652.000000	0.817632
3650.000000	0.816384
3648.000000	0.817295
3646.000000	0.819091
3644.000000	0.820040
3642.000000	0.820228
3640.000000	0.820247
3638.000000	0.820159
3636.000000	0.819871
3634.000000	0.819342
3632.000000	0.817944
3630.000000	0.816417
3628.000000	0.817091
3626.000000	0.818869
3624.000000	0.819380
3622.000000	0.818620
3620.000000	0.817820
3618.000000	0.817987
3616.000000	0.818377
3614.000000	0.818241
3612.000000	0.817906
3610.000000	0.817693
3608.000000	0.818081
3606.000000	0.818815
3604.000000	0.819108
3602.000000	0.819213
3600.000000	0.819517
3598.000000	0.819499
3596.000000	0.819117
3594.000000	0.818971
3592.000000	0.818761
3590.000000	0.818044
3588.000000	0.817669
3586.000000	0.818218
3584.000000	0.818852
3582.000000	0.819064
3580.000000	0.819060
3578.000000	0.819027
3576.000000	0.819031
3574.000000	0.819035
3572.000000	0.818812
3570.000000	0.818142
3568.000000	0.817604
3566.000000	0.817935
3564.000000	0.818559
3562.000000	0.818822
3560.000000	0.818917
3558.000000	0.818994
3556.000000	0.818958
3554.000000	0.818856
3552.000000	0.818870
3550.000000	0.818884
3548.000000	0.818720
3546.000000	0.818626
3544.000000	0.818823
3542.000000	0.819113
3540.000000	0.819213
3538.000000	0.819179
3536.000000	0.819205
3534.000000	0.819294
3532.000000	0.819281
3530.000000	0.819179
3528.000000	0.819126
3526.000000	0.819139
3524.000000	0.819207
3522.000000	0.819338
3520.000000	0.819473
3518.000000	0.819610
3516.000000	0.819759
3514.000000	0.819851
3512.000000	0.819808
3510.000000	0.819800
3508.000000	0.819907
3506.000000	0.819933
3504.000000	0.819917
3502.000000	0.820067
3500.000000	0.820321
3498.000000	0.820515
3496.000000	0.820640
3494.000000	0.820741
3492.000000	0.820858
3490.000000	0.820995
3488.000000	0.821115
3486.000000	0.821164
3484.000000	0.821205
3482.000000	0.821344
3480.000000	0.821566
3478.000000	0.821819
3476.000000	0.822046
3474.000000	0.822238
3472.000000	0.822413
3470.000000	0.822555
3468.000000	0.822715
3466.000000	0.822939
3464.000000	0.823175
3462.000000	0.823435
3460.000000	0.823712
3458.000000	0.823967
3456.000000	0.824216
3454.000000	0.824452
3452.000000	0.824693
3450.000000	0.824908
3448.000000	0.825121
3446.000000	0.825410
3444.000000	0.825730
3442.000000	0.826051
3440.000000	0.826364
3438.000000	0.826659
3436.000000	0.826962
3434.000000	0.827273
3432.000000	0.827590
3430.000000	0.827932
3428.000000	0.828254
3426.000000	0.828549
3424.000000	0.828837
3422.000000	0.829081
3420.000000	0.829371
3418.000000	0.829713
3416.000000	0.829983
3414.000000	0.830219
3412.000000	0.830473
3410.000000	0.830683
3408.000000	0.830854
3406.000000	0.831051
3404.000000	0.831256
3402.000000	0.831414
3400.000000	0.831592
3398.000000	0.831843
3396.000000	0.832030
3394.000000	0.832106
3392.000000	0.832237
3390.000000	0.832471
3388.000000	0.832676
3386.000000	0.832841
3384.000000	0.833009
3382.000000	0.833178
3380.000000	0.833308
3378.000000	0.833389
3376.000000	0.833470
3374.000000	0.833575
3372.000000	0.833671
3370.000000	0.833759
3368.000000	0.833854
3366.000000	0.833964
3364.000000	0.834085
3362.000000	0.834189
3360.000000	0.834261
3358.000000	0.834309
3356.000000	0.834378
3354.000000	0.834483
3352.000000	0.834558
3350.000000	0.834623
3348.000000	0.834712
3346.000000	0.834777
3344.000000	0.834846
3342.000000	0.834921
3340.000000	0.834959
3338.000000	0.834992
3336.000000	0.835068
3334.000000	0.835144
3332.000000	0.835188
3330.000000	0.835216
3328.000000	0.835257
3326.000000	0.835321
3324.000000	0.835391
3322.000000	0.835439
3320.000000	0.835503
3318.000000	0.835608
3316.000000	0.835702
3314.000000	0.835777
3312.000000	0.835810
3310.000000	0.835810
3308.000000	0.835845
3306.000000	0.835907
3304.000000	0.836060
3302.000000	0.836207
3300.000000	0.836260
3298.000000	0.836324
3296.000000	0.836398
3294.000000	0.836474
3292.000000	0.836577
3290.000000	0.836650
3288.000000	0.836706
3286.000000	0.836781
3284.000000	0.836860
3282.000000	0.836933
3280.000000	0.836973
3278.000000	0.836988
3276.000000	0.837018
3274.000000	0.837077
3272.000000	0.837139
3270.000000	0.837206
3268.000000	0.837287
3266.000000	0.837344
3264.000000	0.837399
3262.000000	0.837466
3260.000000	0.837498
3258.000000	0.837499
3256.000000	0.837532
3254.000000	0.837606
3252.000000	0.837668
3250.000000	0.837742
3248.000000	0.837856
3246.000000	0.837924
3244.000000	0.837972
3242.000000	0.838037
3240.000000	0.838110
3238.000000	0.838185
3236.000000	0.838233
3234.000000	0.838279
3232.000000	0.838382
3230.000000	0.838503
3228.000000	0.838590
3226.000000	0.838684
3224.000000	0.838758
3222.000000	0.838813
3220.000000	0.838859
3218.000000	0.838886
3216.000000	0.838899
3214.000000	0.838908
3212.000000	0.838913
3210.000000	0.838933
3208.000000	0.838961
3206.000000	0.838964
3204.000000	0.838953
3202.000000	0.838937
3200.000000	0.838929
3198.000000	0.838897
3196.000000	0.838883
3194.000000	0.838904
3192.000000	0.838900
3190.000000	0.838852
3188.000000	0.838798
3186.000000	0.838767
3184.000000	0.838765
3182.000000	0.838758
3180.000000	0.838745
3178.000000	0.838760
3176.000000	0.838772
3174.000000	0.838744
3172.000000	0.838723
3170.000000	0.838741
3168.000000	0.838777
3166.000000	0.838799
3164.000000	0.838789
3162.000000	0.838776
3160.000000	0.838797
3158.000000	0.838816
3156.000000	0.838787
3154.000000	0.838728
3152.000000	0.838727
3150.000000	0.838818
3148.000000	0.838883
3146.000000	0.838901
3144.000000	0.838914
3142.000000	0.838891
3140.000000	0.838860
3138.000000	0.838897
3136.000000	0.838946
3134.000000	0.838960
3132.000000	0.838998
3130.000000	0.839053
3128.000000	0.839098
3126.000000	0.839126
3124.000000	0.839127
3122.000000	0.839092
3120.000000	0.839053
3118.000000	0.839051
3116.000000	0.839074
3114.000000	0.839136
3112.000000	0.839174
3110.000000	0.839132
3108.000000	0.839102
3106.000000	0.839128
3104.000000	0.839151
3102.000000	0.839137
3100.000000	0.839078
3098.000000	0.839028
3096.000000	0.838994
3094.000000	0.838957
3092.000000	0.838947
3090.000000	0.838938
3088.000000	0.838909
3086.000000	0.838840
3084.000000	0.838731
3082.000000	0.838649
3080.000000	0.838567
3078.000000	0.838519
3076.000000	0.838535
3074.000000	0.838512
3072.000000	0.838428
3070.000000	0.838297
3068.000000	0.838162
3066.000000	0.838100
3064.000000	0.838093
3062.000000	0.838028
3060.000000	0.837891
3058.000000	0.837794
3056.000000	0.837767
3054.000000	0.837729
3052.000000	0.837657
3050.000000	0.837596
3048.000000	0.837533
3046.000000	0.837430
3044.000000	0.837335
3042.000000	0.837259
3040.000000	0.837207
3038.000000	0.837191
3036.000000	0.837130
3034.000000	0.837007
3032.000000	0.836931
3030.000000	0.836900
3028.000000	0.836879
3026.000000	0.836846
3024.000000	0.836814
3022.000000	0.836810
3020.000000	0.836787
3018.000000	0.836733
3016.000000	0.836690
3014.000000	0.836616
3012.000000	0.836539
3010.000000	0.836513
3008.000000	0.836475
3006.000000	0.836382
3004.000000	0.836315
3002.000000	0.836291
3000.000000	0.836258
2998.000000	0.836187
2996.000000	0.836113
2994.000000	0.836076
2992.000000	0.836053
2990.000000	0.836016
2988.000000	0.835986
2986.000000	0.835961
2984.000000	0.835935
2982.000000	0.835913
2980.000000	0.835896
2978.000000	0.835901
2976.000000	0.835919
2974.000000	0.835999
2972.000000	0.836129
2970.000000	0.836244
2968.000000	0.836344
2966.000000	0.836473
2964.000000	0.836640
2962.000000	0.836736
2960.000000	0.836665
2958.000000	0.836463
2956.000000	0.836208
2954.000000	0.835938
2952.000000	0.835735
2950.000000	0.835581
2948.000000	0.835432
2946.000000	0.835277
2944.000000	0.835128
2942.000000	0.835035
2940.000000	0.834985
2938.000000	0.834948
2936.000000	0.834959
2934.000000	0.834976
2932.000000	0.834963
2930.000000	0.834950
2928.000000	0.835014
2926.000000	0.835128
2924.000000	0.835211
2922.000000	0.835252
2920.000000	0.835308
2918.000000	0.835317
2916.000000	0.835277
2914.000000	0.835246
2912.000000	0.835178
2910.000000	0.835129
2908.000000	0.835095
2906.000000	0.835041
2904.000000	0.834968
2902.000000	0.834896
2900.000000	0.834865
2898.000000	0.834826
2896.000000	0.834795
2894.000000	0.834796
2892.000000	0.834768
2890.000000	0.834677
2888.000000	0.834588
2886.000000	0.834540
2884.000000	0.834487
2882.000000	0.834417
2880.000000	0.834362
2878.000000	0.834351
2876.000000	0.834284
2874.000000	0.834155
2872.000000	0.834080
2870.000000	0.834028
2868.000000	0.833925
2866.000000	0.833892
2864.000000	0.833966
2862.000000	0.834032
2860.000000	0.834065
2858.000000	0.834099
2856.000000	0.834121
2854.000000	0.834120
2852.000000	0.834128
2850.000000	0.834166
2848.000000	0.834195
2846.000000	0.834186
2844.000000	0.834136
2842.000000	0.834075
2840.000000	0.834034
2838.000000	0.834032
2836.000000	0.834054
2834.000000	0.834058
2832.000000	0.834047
2830.000000	0.834025
2828.000000	0.833995
2826.000000	0.833979
2824.000000	0.833976
2822.000000	0.833954
2820.000000	0.833946
2818.000000	0.833942
2816.000000	0.833916
2814.000000	0.833856
2812.000000	0.833817
2810.000000	0.833792
2808.000000	0.833786
2806.000000	0.833794
2804.000000	0.833774
2802.000000	0.833719
2800.000000	0.833706
2798.000000	0.833715
2796.000000	0.833705
2794.000000	0.833692
2792.000000	0.833685
2790.000000	0.833672
2788.000000	0.833676
2786.000000	0.833687
2784.000000	0.833669
2782.000000	0.833633
2780.000000	0.833625
2778.000000	0.833642
2776.000000	0.833653
2774.000000	0.833635
2772.000000	0.833601
2770.000000	0.833578
2768.000000	0.833594
2766.000000	0.833632
2764.000000	0.833632
2762.000000	0.833585
2760.000000	0.833563
2758.000000	0.833560
2756.000000	0.833593
2754.000000	0.833612
2752.000000	0.833580
2750.000000	0.833578
2748.000000	0.833602
2746.000000	0.833630
2744.000000	0.833670
2742.000000	0.833686
2740.000000	0.833691
2738.000000	0.833693
2736.000000	0.833714
2734.000000	0.833761
2732.000000	0.833782
2730.000000	0.833770
2728.000000	0.833765
2726.000000	0.833754
2724.000000	0.833800
2722.000000	0.833882
2720.000000	0.833930
2718.000000	0.833949
2716.000000	0.833964
2714.000000	0.834017
2712.000000	0.834083
2710.000000	0.834111
2708.000000	0.834118
2706.000000	0.834140
2704.000000	0.834214
2702.000000	0.834276
2700.000000	0.834302
2698.000000	0.834343
2696.000000	0.834411
2694.000000	0.834469
2692.000000	0.834513
2690.000000	0.834542
2688.000000	0.834578
2686.000000	0.834596
2684.000000	0.834632
2682.000000	0.834687
2680.000000	0.834751
2678.000000	0.834815
2676.000000	0.834864
2674.000000	0.834890
2672.000000	0.834923
2670.000000	0.834968
2668.000000	0.835001
2666.000000	0.835032
2664.000000	0.835050
2662.000000	0.835064
2660.000000	0.835123
2658.000000	0.835190
2656.000000	0.835246
2654.000000	0.835289
2652.000000	0.835348
2650.000000	0.835398
2648.000000	0.835424
2646.000000	0.835492
2644.000000	0.835558
2642.000000	0.835574
2640.000000	0.835587
2638.000000	0.835628
2636.000000	0.835667
2634.000000	0.835691
2632.000000	0.835714
2630.000000	0.835727
2628.000000	0.835772
2626.000000	0.835823
2624.000000	0.835847
2622.000000	0.835874
2620.000000	0.835916
2618.000000	0.835947
2616.000000	0.835940
2614.000000	0.835942
2612.000000	0.835993
2610.000000	0.836048
2608.000000	0.836079
2606.000000	0.836076
2604.000000	0.836080
2602.000000	0.836135
2600.000000	0.836194
2598.000000	0.836207
2596.000000	0.836234
2594.000000	0.836273
2592.000000	0.836289
2590.000000	0.836284
2588.000000	0.836328
2586.000000	0.836395
2584.000000	0.836421
2582.000000	0.836415
2580.000000	0.836453
2578.000000	0.836494
2576.000000	0.836491
2574.000000	0.836480
2572.000000	0.836493
2570.000000	0.836497
2568.000000	0.836491
2566.000000	0.836498
2564.000000	0.836513
2562.000000	0.836544
2560.000000	0.836593
2558.000000	0.836625
2556.000000	0.836625
2554.000000	0.836599
2552.000000	0.836608
2550.000000	0.836670
2548.000000	0.836711
2546.000000	0.836715
2544.000000	0.836734
2542.000000	0.836717
2540.000000	0.836688
2538.000000	0.836693
2536.000000	0.836719
2534.000000	0.836718
2532.000000	0.836717
2530.000000	0.836737
2528.000000	0.836744
2526.000000	0.836716
2524.000000	0.836707
2522.000000	0.836719
2520.000000	0.836731
2518.000000	0.836720
2516.000000	0.836725
2514.000000	0.836733
2512.000000	0.836744
2510.000000	0.836741
2508.000000	0.836741
2506.000000	0.836765
2504.000000	0.836795
2502.000000	0.836793
2500.000000	0.836775
2498.000000	0.836756
2496.000000	0.836749
2494.000000	0.836758
2492.000000	0.836757
2490.000000	0.836733
2488.000000	0.836708
2486.000000	0.836680
2484.000000	0.836675
2482.000000	0.836693
2480.000000	0.836712
2478.000000	0.836706
2476.000000	0.836711
2474.000000	0.836717
2472.000000	0.836721
2470.000000	0.836720
2468.000000	0.836729
2466.000000	0.836753
2464.000000	0.836794
2462.000000	0.836828
2460.000000	0.836816
2458.000000	0.836789
2456.000000	0.836791
2454.000000	0.836789
2452.000000	0.836806
2450.000000	0.836796
2448.000000	0.836745
2446.000000	0.836724
2444.000000	0.836722
2442.000000	0.836680
2440.000000	0.836628
2438.000000	0.836596
2436.000000	0.836574
2434.000000	0.836536
2432.000000	0.836512
2430.000000	0.836484
2428.000000	0.836463
2426.000000	0.836445
2424.000000	0.836400
2422.000000	0.836341
2420.000000	0.836299
2418.000000	0.836249
2416.000000	0.836186
2414.000000	0.836146
2412.000000	0.836139
2410.000000	0.836095
2408.000000	0.836046
2406.000000	0.835963
2404.000000	0.835837
2402.000000	0.835748
2400.000000	0.835700
2398.000000	0.835629
2396.000000	0.835532
2394.000000	0.835436
2392.000000	0.835348
2390.000000	0.835232
2388.000000	0.835126
2386.000000	0.835114
2384.000000	0.835340
2382.000000	0.836161
2380.000000	0.837656
2378.000000	0.838967
2376.000000	0.839571
2374.000000	0.839733
2372.000000	0.839663
2370.000000	0.839442
2368.000000	0.839209
2366.000000	0.839094
2364.000000	0.839146
2362.000000	0.839421
2360.000000	0.839829
2358.000000	0.840306
2356.000000	0.840886
2354.000000	0.841564
2352.000000	0.842260
2350.000000	0.842783
2348.000000	0.842979
2346.000000	0.842991
2344.000000	0.843059
2342.000000	0.843148
2340.000000	0.843051
2338.000000	0.842614
2336.000000	0.842042
2334.000000	0.841541
2332.000000	0.841206
2330.000000	0.840982
2328.000000	0.840845
2326.000000	0.840748
2324.000000	0.840679
2322.000000	0.840665
2320.000000	0.840636
2318.000000	0.840587
2316.000000	0.840556
2314.000000	0.840528
2312.000000	0.840528
2310.000000	0.840524
2308.000000	0.840479
2306.000000	0.840431
2304.000000	0.840420
2302.000000	0.840390
2300.000000	0.840362
2298.000000	0.840340
2296.000000	0.840319
2294.000000	0.840288
2292.000000	0.840209
2290.000000	0.840116
2288.000000	0.840073
2286.000000	0.840145
2284.000000	0.840438
2282.000000	0.840704
2280.000000	0.840595
2278.000000	0.840384
2276.000000	0.840268
2274.000000	0.840181
2272.000000	0.840126
2270.000000	0.840096
2268.000000	0.840075
2266.000000	0.840022
2264.000000	0.839958
2262.000000	0.839913
2260.000000	0.839908
2258.000000	0.839893
2256.000000	0.839824
2254.000000	0.839769
2252.000000	0.839757
2250.000000	0.839733
2248.000000	0.839710
2246.000000	0.839677
2244.000000	0.839636
2242.000000	0.839560
2240.000000	0.839500
2238.000000	0.839459
2236.000000	0.839444
2234.000000	0.839453
2232.000000	0.839433
2230.000000	0.839377
2228.000000	0.839317
2226.000000	0.839269
2224.000000	0.839250
2222.000000	0.839212
2220.000000	0.839192
2218.000000	0.839176
2216.000000	0.839116
2214.000000	0.839058
2212.000000	0.839039
2210.000000	0.839035
2208.000000	0.839030
2206.000000	0.838970
2204.000000	0.838914
2202.000000	0.838861
2200.000000	0.838813
2198.000000	0.838790
2196.000000	0.838790
2194.000000	0.838722
2192.000000	0.838651
2190.000000	0.838637
2188.000000	0.838650
2186.000000	0.838644
2184.000000	0.838593
2182.000000	0.838578
2180.000000	0.838615
2178.000000	0.838569
2176.000000	0.838518
2174.000000	0.838472
2172.000000	0.838398
2170.000000	0.838366
2168.000000	0.838375
2166.000000	0.838351
2164.000000	0.838294
2162.000000	0.838239
2160.000000	0.838204
2158.000000	0.838182
2156.000000	0.838158
2154.000000	0.838113
2152.000000	0.838089
2150.000000	0.838035
2148.000000	0.838003
2146.000000	0.837987
2144.000000	0.837957
2142.000000	0.837915
2140.000000	0.837889
2138.000000	0.837864
2136.000000	0.837838
2134.000000	0.837785
2132.000000	0.837755
2130.000000	0.837712
2128.000000	0.837667
2126.000000	0.837640
2124.000000	0.837595
2122.000000	0.837549
2120.000000	0.837534
2118.000000	0.837498
2116.000000	0.837472
2114.000000	0.837439
2112.000000	0.837411
2110.000000	0.837411
2108.000000	0.837373
2106.000000	0.837296
2104.000000	0.837253
2102.000000	0.837222
2100.000000	0.837202
2098.000000	0.837176
2096.000000	0.837175
2094.000000	0.837162
2092.000000	0.837129
2090.000000	0.837082
2088.000000	0.837051
2086.000000	0.837045
2084.000000	0.837027
2082.000000	0.836979
2080.000000	0.836937
2078.000000	0.836900
2076.000000	0.836880
2074.000000	0.836819
2072.000000	0.836761
2070.000000	0.836731
2068.000000	0.836715
2066.000000	0.836671
2064.000000	0.836674
2062.000000	0.836642
2060.000000	0.836565
2058.000000	0.836519
2056.000000	0.836522
2054.000000	0.836525
2052.000000	0.836502
2050.000000	0.836446
2048.000000	0.836380
2046.000000	0.836315
2044.000000	0.836303
2042.000000	0.836249
2040.000000	0.836171
2038.000000	0.836131
2036.000000	0.836127
2034.000000	0.836094
2032.000000	0.836062
2030.000000	0.836030
2028.000000	0.836026
2026.000000	0.835978
2024.000000	0.835913
2022.000000	0.835869
2020.000000	0.835812
2018.000000	0.835713
2016.000000	0.835693
2014.000000	0.835681
2012.000000	0.835666
2010.000000	0.835640
2008.000000	0.835604
2006.000000	0.835578
2004.000000	0.835557
2002.000000	0.835532
2000.000000	0.835517
1998.000000	0.835468
1996.000000	0.835384
1994.000000	0.835182
1992.000000	0.835075
1990.000000	0.835163
1988.000000	0.835206
1986.000000	0.835216
1984.000000	0.835228
1982.000000	0.835201
1980.000000	0.835152
1978.000000	0.835100
1976.000000	0.835080
1974.000000	0.835083
1972.000000	0.835062
1970.000000	0.834934
1968.000000	0.834782
1966.000000	0.834809
1964.000000	0.834916
1962.000000	0.834924
1960.000000	0.834922
1958.000000	0.834946
1956.000000	0.834914
1954.000000	0.834871
1952.000000	0.834863
1950.000000	0.834849
1948.000000	0.834816
1946.000000	0.834707
1944.000000	0.834474
1942.000000	0.834443
1940.000000	0.834721
1938.000000	0.834848
1936.000000	0.834842
1934.000000	0.834815
1932.000000	0.834814
1930.000000	0.834828
1928.000000	0.834875
1926.000000	0.834779
1924.000000	0.834557
1922.000000	0.834498
1920.000000	0.834320
1918.000000	0.834133
1916.000000	0.834520
1914.000000	0.834770
1912.000000	0.834725
1910.000000	0.834591
1908.000000	0.834644
1906.000000	0.834740
1904.000000	0.834814
1902.000000	0.834823
1900.000000	0.834806
1898.000000	0.834724
1896.000000	0.834639
1894.000000	0.834658
1892.000000	0.834557
1890.000000	0.834282
1888.000000	0.834464
1886.000000	0.834673
1884.000000	0.834708
1882.000000	0.834707
1880.000000	0.834690
1878.000000	0.834619
1876.000000	0.834612
1874.000000	0.834567
1872.000000	0.834172
1870.000000	0.833417
1868.000000	0.833466
1866.000000	0.834065
1864.000000	0.834400
1862.000000	0.834443
1860.000000	0.834397
1858.000000	0.834332
1856.000000	0.834361
1854.000000	0.834344
1852.000000	0.834293
1850.000000	0.834138
1848.000000	0.833798
1846.000000	0.832747
1844.000000	0.832298
1842.000000	0.833420
1840.000000	0.834078
1838.000000	0.834042
1836.000000	0.834053
1834.000000	0.833995
1832.000000	0.833410
1830.000000	0.832931
1828.000000	0.833271
1826.000000	0.833306
1824.000000	0.833609
1822.000000	0.834126
1820.000000	0.834216
1818.000000	0.834144
1816.000000	0.834225
1814.000000	0.834155
1812.000000	0.833887
1810.000000	0.833883
1808.000000	0.834104
1806.000000	0.834168
1804.000000	0.833948
1802.000000	0.833467
1800.000000	0.833421
1798.000000	0.833744
1796.000000	0.833613
1794.000000	0.832450
1792.000000	0.832101
1790.000000	0.833311
1788.000000	0.833956
1786.000000	0.833653
1784.000000	0.833637
1782.000000	0.833720
1780.000000	0.833825
1778.000000	0.834031
1776.000000	0.833537
1774.000000	0.831832
1772.000000	0.831300
1770.000000	0.832504
1768.000000	0.833248
1766.000000	0.834021
1764.000000	0.833732
1762.000000	0.833111
1760.000000	0.833593
1758.000000	0.833706
1756.000000	0.833835
1754.000000	0.833679
1752.000000	0.832312
1750.000000	0.832297
1748.000000	0.833254
1746.000000	0.833865
1744.000000	0.833990
1742.000000	0.833549
1740.000000	0.833144
1738.000000	0.833406
1736.000000	0.831274
1734.000000	0.829548
1732.000000	0.832216
1730.000000	0.834255
1728.000000	0.834928
1726.000000	0.835104
1724.000000	0.835031
1722.000000	0.834737
1720.000000	0.832680
1718.000000	0.830118
1716.000000	0.831238
1714.000000	0.833579
1712.000000	0.834856
1710.000000	0.835000
1708.000000	0.834462
1706.000000	0.833707
1704.000000	0.833395
1702.000000	0.830608
1700.000000	0.829025
1698.000000	0.830189
1696.000000	0.830310
1694.000000	0.833228
1692.000000	0.835301
1690.000000	0.835182
1688.000000	0.834090
1686.000000	0.830546
1684.000000	0.829700
1682.000000	0.833315
1680.000000	0.835198
1678.000000	0.834844
1676.000000	0.833431
1674.000000	0.833885
1672.000000	0.834183
1670.000000	0.833441
1668.000000	0.834528
1666.000000	0.835671
1664.000000	0.835041
1662.000000	0.835051
1660.000000	0.836034
1658.000000	0.836003
1656.000000	0.832834
1654.000000	0.827232
1652.000000	0.828867
1650.000000	0.833668
1648.000000	0.833195
1646.000000	0.832958
1644.000000	0.835256
1642.000000	0.836473
1640.000000	0.836128
1638.000000	0.834120
1636.000000	0.832069
1634.000000	0.834001
1632.000000	0.836245
1630.000000	0.836246
1628.000000	0.835816
1626.000000	0.835489
1624.000000	0.834851
1622.000000	0.835359
1620.000000	0.835410
1618.000000	0.833103
1616.000000	0.833117
1614.000000	0.835761
1612.000000	0.836609
1610.000000	0.836544
1608.000000	0.836599
1606.000000	0.836806
1604.000000	0.836804
1602.000000	0.836813
1600.000000	0.836896
1598.000000	0.836916
1596.000000	0.836823
1594.000000	0.836816
1592.000000	0.836872
1590.000000	0.836929
1588.000000	0.836975
1586.000000	0.837022
1584.000000	0.837037
1582.000000	0.837042
1580.000000	0.836571
1578.000000	0.834086
1576.000000	0.832774
1574.000000	0.835328
1572.000000	0.835903
1570.000000	0.834910
1568.000000	0.835654
1566.000000	0.836395
1564.000000	0.836088
1562.000000	0.833076
1560.000000	0.827939
1558.000000	0.828894
1556.000000	0.832842
1554.000000	0.834607
1552.000000	0.835875
1550.000000	0.836311
1548.000000	0.836347
1546.000000	0.835272
1544.000000	0.833384
1542.000000	0.830528
1540.000000	0.829069
1538.000000	0.832540
1536.000000	0.835261
1534.000000	0.834854
1532.000000	0.835653
1530.000000	0.836297
1528.000000	0.835576
1526.000000	0.834757
1524.000000	0.833674
1522.000000	0.831802
1520.000000	0.832724
1518.000000	0.834259
1516.000000	0.835026
1514.000000	0.835784
1512.000000	0.835602
1510.000000	0.834179
1508.000000	0.830575
1506.000000	0.830217
1504.000000	0.834381
1502.000000	0.836226
1500.000000	0.835313
1498.000000	0.833868
1496.000000	0.834155
1494.000000	0.836116
1492.000000	0.836048
1490.000000	0.835185
1488.000000	0.835599
1486.000000	0.836451
1484.000000	0.837008
1482.000000	0.836899
1480.000000	0.836761
1478.000000	0.836119
1476.000000	0.834938
1474.000000	0.833371
1472.000000	0.833576
1470.000000	0.835712
1468.000000	0.836394
1466.000000	0.835443
1464.000000	0.835522
1462.000000	0.836214
1460.000000	0.834532
1458.000000	0.831169
1456.000000	0.831764
1454.000000	0.835110
1452.000000	0.836271
1450.000000	0.836197
1448.000000	0.835923
1446.000000	0.836325
1444.000000	0.836577
1442.000000	0.836552
1440.000000	0.835862
1438.000000	0.833895
1436.000000	0.833691
1434.000000	0.835510
1432.000000	0.835796
1430.000000	0.835658
1428.000000	0.835938
1426.000000	0.835936
1424.000000	0.835580
1422.000000	0.834862
1420.000000	0.833163
1418.000000	0.833744
1416.000000	0.835374
1414.000000	0.835953
1412.000000	0.835921
1410.000000	0.835896
1408.000000	0.835707
1406.000000	0.835379
1404.000000	0.835452
1402.000000	0.835530
1400.000000	0.834858
1398.000000	0.834586
1396.000000	0.834274
1394.000000	0.834421
1392.000000	0.835207
1390.000000	0.835053
1388.000000	0.834319
1386.000000	0.834685
1384.000000	0.835330
1382.000000	0.835392
1380.000000	0.835260
1378.000000	0.835143
1376.000000	0.834745
1374.000000	0.834432
1372.000000	0.834720
1370.000000	0.834899
1368.000000	0.834940
1366.000000	0.834845
1364.000000	0.834276
1362.000000	0.834081
1360.000000	0.834488
1358.000000	0.834735
1356.000000	0.834737
1354.000000	0.834737
1352.000000	0.834732
1350.000000	0.834695
1348.000000	0.834678
1346.000000	0.834708
1344.000000	0.834677
1342.000000	0.834430
1340.000000	0.834112
1338.000000	0.834165
1336.000000	0.834405
1334.000000	0.834588
1332.000000	0.834641
1330.000000	0.834651
1328.000000	0.834640
1326.000000	0.834608
1324.000000	0.834589
1322.000000	0.834539
1320.000000	0.834420
1318.000000	0.834389
1316.000000	0.834418
1314.000000	0.834434
1312.000000	0.834473
1310.000000	0.834551
1308.000000	0.834590
1306.000000	0.834608
1304.000000	0.834622
1302.000000	0.834649
1300.000000	0.834679
1298.000000	0.834686
1296.000000	0.834664
1294.000000	0.834663
1292.000000	0.834698
1290.000000	0.834749
1288.000000	0.834733
1286.000000	0.834767
1284.000000	0.834834
1282.000000	0.834893
1280.000000	0.834938
1278.000000	0.835043
1276.000000	0.835139
1274.000000	0.835238
1272.000000	0.835428
1270.000000	0.835853
1268.000000	0.836518
1266.000000	0.837469
1264.000000	0.838587
1262.000000	0.839641
1260.000000	0.840268
1258.000000	0.840132
1256.000000	0.839367
1254.000000	0.838454
1252.000000	0.837745
1250.000000	0.837462
1248.000000	0.837344
1246.000000	0.837177
1244.000000	0.837089
1242.000000	0.837127
1240.000000	0.837230
1238.000000	0.837392
1236.000000	0.837509
1234.000000	0.837607
1232.000000	0.837661
1230.000000	0.837769
1228.000000	0.837847
1226.000000	0.837904
1224.000000	0.837951
1222.000000	0.838054
1220.000000	0.838160
1218.000000	0.838194
1216.000000	0.838231
1214.000000	0.838317
1212.000000	0.838410
1210.000000	0.838528
1208.000000	0.838567
1206.000000	0.838683
1204.000000	0.838817
1202.000000	0.838984
1200.000000	0.839121
1198.000000	0.839214
1196.000000	0.839348
1194.000000	0.839570
1192.000000	0.839804
1190.000000	0.840023
1188.000000	0.840167
1186.000000	0.840356
1184.000000	0.840600
1182.000000	0.840861
1180.000000	0.841141
1178.000000	0.841376
1176.000000	0.841590
1174.000000	0.841802
1172.000000	0.841988
1170.000000	0.842264
1168.000000	0.842537
1166.000000	0.842741
1164.000000	0.842867
1162.000000	0.842939
1160.000000	0.843021
1158.000000	0.843213
1156.000000	0.843425
1154.000000	0.843517
1152.000000	0.843516
1150.000000	0.843662
1148.000000	0.843833
1146.000000	0.843884
1144.000000	0.843870
1142.000000	0.844056
1140.000000	0.844135
1138.000000	0.844043
1136.000000	0.844094
1134.000000	0.844256
1132.000000	0.844285
1130.000000	0.844237
1128.000000	0.844269
1126.000000	0.844429
1124.000000	0.844574
1122.000000	0.844757
1120.000000	0.844932
1118.000000	0.845023
1116.000000	0.845030
1114.000000	0.845304
1112.000000	0.845714
1110.000000	0.845945
1108.000000	0.846121
1106.000000	0.846350
1104.000000	0.846416
1102.000000	0.846470
1100.000000	0.846730
1098.000000	0.846955
1096.000000	0.847030
1094.000000	0.847051
1092.000000	0.847003
1090.000000	0.847056
1088.000000	0.846925
1086.000000	0.846655
1084.000000	0.846513
1082.000000	0.846432
1080.000000	0.846214
1078.000000	0.845974
1076.000000	0.845768
1074.000000	0.845594
1072.000000	0.845336
1070.000000	0.844796
1068.000000	0.844255
1066.000000	0.844078
1064.000000	0.843924
1062.000000	0.843393
1060.000000	0.842730
1058.000000	0.842387
1056.000000	0.842106
1054.000000	0.841692
1052.000000	0.841356
1050.000000	0.841189
1048.000000	0.840990
1046.000000	0.840568
1044.000000	0.840088
1042.000000	0.839726
1040.000000	0.839044
1038.000000	0.838820
1036.000000	0.838756
1034.000000	0.838191
1032.000000	0.837419
1030.000000	0.837120
1028.000000	0.837016
1026.000000	0.836791
1024.000000	0.836349
1022.000000	0.835887
1020.000000	0.835537
1018.000000	0.835525
1016.000000	0.835344
1014.000000	0.834513
1012.000000	0.833621
1010.000000	0.833063
1008.000000	0.832135
1006.000000	0.830959
1004.000000	0.830177
1002.000000	0.829832
1000.000000	0.829474
