PE IR       SUBTECH     SPECTRUM    ASCII       PEDS        4.00        
   -1
TE110A_002_80K.ASC
20/05/14
10:49:50.00
20/05/14
10:49:51.00
Administrator
AK004, Thursday, May 14 2020, 001.
1000.000000
#HDR
-1
-1
#GR
cm-1
A
1.0
0.0
6000.000000
-2.000000
2501
8
0.843336
0.814281
#DATA
6000.000000	0.818416
5998.000000	0.818557
5996.000000	0.818384
5994.000000	0.818289
5992.000000	0.818300
5990.000000	0.818491
5988.000000	0.818573
5986.000000	0.818414
5984.000000	0.818186
5982.000000	0.818092
5980.000000	0.818037
5978.000000	0.818021
5976.000000	0.818037
5974.000000	0.818077
5972.000000	0.818166
5970.000000	0.818141
5968.000000	0.818225
5966.000000	0.818372
5964.000000	0.818572
5962.000000	0.818676
5960.000000	0.818553
5958.000000	0.818389
5956.000000	0.818285
5954.000000	0.818298
5952.000000	0.818425
5950.000000	0.818527
5948.000000	0.818426
5946.000000	0.818219
5944.000000	0.817967
5942.000000	0.817997
5940.000000	0.818188
5938.000000	0.818420
5936.000000	0.818510
5934.000000	0.818438
5932.000000	0.818315
5930.000000	0.818356
5928.000000	0.818556
5926.000000	0.818633
5924.000000	0.818470
5922.000000	0.818324
5920.000000	0.818300
5918.000000	0.818287
5916.000000	0.818219
5914.000000	0.818171
5912.000000	0.818211
5910.000000	0.818298
5908.000000	0.818261
5906.000000	0.818373
5904.000000	0.818489
5902.000000	0.818687
5900.000000	0.818736
5898.000000	0.818762
5896.000000	0.818833
5894.000000	0.818815
5892.000000	0.818863
5890.000000	0.818953
5888.000000	0.818861
5886.000000	0.818807
5884.000000	0.818614
5882.000000	0.818545
5880.000000	0.818585
5878.000000	0.818549
5876.000000	0.818565
5874.000000	0.818532
5872.000000	0.818531
5870.000000	0.818461
5868.000000	0.818481
5866.000000	0.818597
5864.000000	0.818780
5862.000000	0.818666
5860.000000	0.818515
5858.000000	0.818485
5856.000000	0.818528
5854.000000	0.818570
5852.000000	0.818539
5850.000000	0.818713
5848.000000	0.818837
5846.000000	0.818726
5844.000000	0.818607
5842.000000	0.818695
5840.000000	0.818889
5838.000000	0.818977
5836.000000	0.818758
5834.000000	0.818635
5832.000000	0.818725
5830.000000	0.818845
5828.000000	0.818841
5826.000000	0.818759
5824.000000	0.818736
5822.000000	0.818864
5820.000000	0.818930
5818.000000	0.818915
5816.000000	0.819033
5814.000000	0.819053
5812.000000	0.819089
5810.000000	0.819077
5808.000000	0.819017
5806.000000	0.819103
5804.000000	0.819107
5802.000000	0.819152
5800.000000	0.819183
5798.000000	0.819063
5796.000000	0.818972
5794.000000	0.818885
5792.000000	0.818936
5790.000000	0.819091
5788.000000	0.819173
5786.000000	0.819127
5784.000000	0.819012
5782.000000	0.819008
5780.000000	0.819044
5778.000000	0.818968
5776.000000	0.818877
5774.000000	0.818953
5772.000000	0.819044
5770.000000	0.819067
5768.000000	0.819066
5766.000000	0.819165
5764.000000	0.819193
5762.000000	0.818995
5760.000000	0.818909
5758.000000	0.818944
5756.000000	0.819049
5754.000000	0.819120
5752.000000	0.818940
5750.000000	0.818813
5748.000000	0.818726
5746.000000	0.818899
5744.000000	0.819110
5742.000000	0.819106
5740.000000	0.819103
5738.000000	0.819156
5736.000000	0.819134
5734.000000	0.818947
5732.000000	0.818810
5730.000000	0.818749
5728.000000	0.818879
5726.000000	0.819143
5724.000000	0.819357
5722.000000	0.819340
5720.000000	0.819056
5718.000000	0.819012
5716.000000	0.819290
5714.000000	0.819546
5712.000000	0.819561
5710.000000	0.819387
5708.000000	0.819185
5706.000000	0.819091
5704.000000	0.819230
5702.000000	0.819549
5700.000000	0.819753
5698.000000	0.819599
5696.000000	0.819354
5694.000000	0.819235
5692.000000	0.819267
5690.000000	0.819322
5688.000000	0.819414
5686.000000	0.819450
5684.000000	0.819349
5682.000000	0.819118
5680.000000	0.819145
5678.000000	0.819361
5676.000000	0.819512
5674.000000	0.819369
5672.000000	0.819232
5670.000000	0.819294
5668.000000	0.819312
5666.000000	0.819177
5664.000000	0.819003
5662.000000	0.818946
5660.000000	0.819047
5658.000000	0.819212
5656.000000	0.819361
5654.000000	0.819373
5652.000000	0.819319
5650.000000	0.819208
5648.000000	0.819176
5646.000000	0.819159
5644.000000	0.819185
5642.000000	0.819208
5640.000000	0.819072
5638.000000	0.819108
5636.000000	0.819260
5634.000000	0.819387
5632.000000	0.819388
5630.000000	0.819304
5628.000000	0.819386
5626.000000	0.819452
5624.000000	0.819427
5622.000000	0.819269
5620.000000	0.819155
5618.000000	0.819114
5616.000000	0.819245
5614.000000	0.819562
5612.000000	0.819729
5610.000000	0.819633
5608.000000	0.819448
5606.000000	0.819436
5604.000000	0.819576
5602.000000	0.819564
5600.000000	0.819449
5598.000000	0.819404
5596.000000	0.819404
5594.000000	0.819374
5592.000000	0.819348
5590.000000	0.819326
5588.000000	0.819448
5586.000000	0.819572
5584.000000	0.819524
5582.000000	0.819448
5580.000000	0.819394
5578.000000	0.819399
5576.000000	0.819345
5574.000000	0.819232
5572.000000	0.819197
5570.000000	0.819261
5568.000000	0.819338
5566.000000	0.819413
5564.000000	0.819398
5562.000000	0.819329
5560.000000	0.819291
5558.000000	0.819293
5556.000000	0.819329
5554.000000	0.819413
5552.000000	0.819375
5550.000000	0.819264
5548.000000	0.819265
5546.000000	0.819339
5544.000000	0.819399
5542.000000	0.819345
5540.000000	0.819354
5538.000000	0.819519
5536.000000	0.819594
5534.000000	0.819573
5532.000000	0.819431
5530.000000	0.819411
5528.000000	0.819431
5526.000000	0.819450
5524.000000	0.819422
5522.000000	0.819366
5520.000000	0.819361
5518.000000	0.819381
5516.000000	0.819344
5514.000000	0.819288
5512.000000	0.819264
5510.000000	0.819376
5508.000000	0.819488
5506.000000	0.819604
5504.000000	0.819693
5502.000000	0.819618
5500.000000	0.819422
5498.000000	0.819178
5496.000000	0.819119
5494.000000	0.819194
5492.000000	0.819331
5490.000000	0.819393
5488.000000	0.819265
5486.000000	0.819196
5484.000000	0.819173
5482.000000	0.819160
5480.000000	0.819093
5478.000000	0.819189
5476.000000	0.819400
5474.000000	0.819430
5472.000000	0.819288
5470.000000	0.819160
5468.000000	0.819195
5466.000000	0.819305
5464.000000	0.819366
5462.000000	0.819323
5460.000000	0.819182
5458.000000	0.819167
5456.000000	0.819248
5454.000000	0.819325
5452.000000	0.819262
5450.000000	0.819118
5448.000000	0.818975
5446.000000	0.818992
5444.000000	0.819077
5442.000000	0.819178
5440.000000	0.819296
5438.000000	0.819425
5436.000000	0.819496
5434.000000	0.819419
5432.000000	0.819338
5430.000000	0.819362
5428.000000	0.819410
5426.000000	0.819432
5424.000000	0.819398
5422.000000	0.819337
5420.000000	0.819344
5418.000000	0.819314
5416.000000	0.819327
5414.000000	0.819272
5412.000000	0.819243
5410.000000	0.819307
5408.000000	0.819402
5406.000000	0.819437
5404.000000	0.819306
5402.000000	0.819173
5400.000000	0.819116
5398.000000	0.819135
5396.000000	0.819173
5394.000000	0.819254
5392.000000	0.819279
5390.000000	0.819245
5388.000000	0.819224
5386.000000	0.819267
5384.000000	0.819363
5382.000000	0.819370
5380.000000	0.819282
5378.000000	0.819221
5376.000000	0.819164
5374.000000	0.819151
5372.000000	0.819135
5370.000000	0.819207
5368.000000	0.819261
5366.000000	0.819228
5364.000000	0.819183
5362.000000	0.819133
5360.000000	0.819110
5358.000000	0.818984
5356.000000	0.818882
5354.000000	0.818898
5352.000000	0.818958
5350.000000	0.818960
5348.000000	0.818994
5346.000000	0.819176
5344.000000	0.819259
5342.000000	0.819061
5340.000000	0.818874
5338.000000	0.818926
5336.000000	0.819100
5334.000000	0.819209
5332.000000	0.819243
5330.000000	0.819234
5328.000000	0.819258
5326.000000	0.819345
5324.000000	0.819339
5322.000000	0.819237
5320.000000	0.819168
5318.000000	0.819195
5316.000000	0.819270
5314.000000	0.819229
5312.000000	0.819143
5310.000000	0.819076
5308.000000	0.819131
5306.000000	0.819166
5304.000000	0.819184
5302.000000	0.819133
5300.000000	0.819101
5298.000000	0.819127
5296.000000	0.819193
5294.000000	0.819183
5292.000000	0.819065
5290.000000	0.818979
5288.000000	0.818973
5286.000000	0.819007
5284.000000	0.819101
5282.000000	0.819171
5280.000000	0.819192
5278.000000	0.819108
5276.000000	0.819042
5274.000000	0.819000
5272.000000	0.819001
5270.000000	0.818905
5268.000000	0.818812
5266.000000	0.818784
5264.000000	0.818826
5262.000000	0.818911
5260.000000	0.818914
5258.000000	0.818862
5256.000000	0.818824
5254.000000	0.818889
5252.000000	0.818919
5250.000000	0.818858
5248.000000	0.818873
5246.000000	0.818959
5244.000000	0.819004
5242.000000	0.819003
5240.000000	0.819060
5238.000000	0.819195
5236.000000	0.819243
5234.000000	0.819126
5232.000000	0.818981
5230.000000	0.818958
5228.000000	0.819043
5226.000000	0.819118
5224.000000	0.819134
5222.000000	0.819056
5220.000000	0.818996
5218.000000	0.818988
5216.000000	0.819077
5214.000000	0.819073
5212.000000	0.818979
5210.000000	0.818893
5208.000000	0.818875
5206.000000	0.818964
5204.000000	0.819044
5202.000000	0.819019
5200.000000	0.818948
5198.000000	0.818933
5196.000000	0.818936
5194.000000	0.818930
5192.000000	0.818862
5190.000000	0.818853
5188.000000	0.818844
5186.000000	0.818844
5184.000000	0.818775
5182.000000	0.818733
5180.000000	0.818831
5178.000000	0.818943
5176.000000	0.818825
5174.000000	0.818631
5172.000000	0.818615
5170.000000	0.818791
5168.000000	0.818920
5166.000000	0.818876
5164.000000	0.818730
5162.000000	0.818645
5160.000000	0.818670
5158.000000	0.818756
5156.000000	0.818776
5154.000000	0.818790
5152.000000	0.818783
5150.000000	0.818758
5148.000000	0.818769
5146.000000	0.818867
5144.000000	0.818922
5142.000000	0.818909
5140.000000	0.818920
5138.000000	0.818978
5136.000000	0.818951
5134.000000	0.818838
5132.000000	0.818798
5130.000000	0.818850
5128.000000	0.818889
5126.000000	0.818811
5124.000000	0.818724
5122.000000	0.818785
5120.000000	0.818896
5118.000000	0.818920
5116.000000	0.818886
5114.000000	0.818876
5112.000000	0.818830
5110.000000	0.818769
5108.000000	0.818803
5106.000000	0.818892
5104.000000	0.818896
5102.000000	0.818911
5100.000000	0.818953
5098.000000	0.818922
5096.000000	0.818808
5094.000000	0.818729
5092.000000	0.818775
5090.000000	0.818869
5088.000000	0.818871
5086.000000	0.818758
5084.000000	0.818638
5082.000000	0.818618
5080.000000	0.818613
5078.000000	0.818599
5076.000000	0.818657
5074.000000	0.818664
5072.000000	0.818601
5070.000000	0.818561
5068.000000	0.818604
5066.000000	0.818628
5064.000000	0.818662
5062.000000	0.818743
5060.000000	0.818804
5058.000000	0.818794
5056.000000	0.818741
5054.000000	0.818705
5052.000000	0.818721
5050.000000	0.818790
5048.000000	0.818745
5046.000000	0.818665
5044.000000	0.818689
5042.000000	0.818811
5040.000000	0.818857
5038.000000	0.818800
5036.000000	0.818781
5034.000000	0.818859
5032.000000	0.818961
5030.000000	0.818975
5028.000000	0.818917
5026.000000	0.818918
5024.000000	0.818946
5022.000000	0.818913
5020.000000	0.818847
5018.000000	0.818890
5016.000000	0.818946
5014.000000	0.818784
5012.000000	0.818537
5010.000000	0.818535
5008.000000	0.818649
5006.000000	0.818720
5004.000000	0.818698
5002.000000	0.818659
5000.000000	0.818607
4998.000000	0.818669
4996.000000	0.818825
4994.000000	0.818890
4992.000000	0.818852
4990.000000	0.818840
4988.000000	0.818852
4986.000000	0.818863
4984.000000	0.818801
4982.000000	0.818723
4980.000000	0.818714
4978.000000	0.818751
4976.000000	0.818746
4974.000000	0.818693
4972.000000	0.818671
4970.000000	0.818683
4968.000000	0.818746
4966.000000	0.818819
4964.000000	0.818815
4962.000000	0.818689
4960.000000	0.818659
4958.000000	0.818764
4956.000000	0.818849
4954.000000	0.818799
4952.000000	0.818732
4950.000000	0.818710
4948.000000	0.818729
4946.000000	0.818799
4944.000000	0.818881
4942.000000	0.818854
4940.000000	0.818782
4938.000000	0.818738
4936.000000	0.818745
4934.000000	0.818770
4932.000000	0.818780
4930.000000	0.818746
4928.000000	0.818712
4926.000000	0.818746
4924.000000	0.818786
4922.000000	0.818783
4920.000000	0.818757
4918.000000	0.818734
4916.000000	0.818707
4914.000000	0.818680
4912.000000	0.818652
4910.000000	0.818657
4908.000000	0.818710
4906.000000	0.818791
4904.000000	0.818816
4902.000000	0.818747
4900.000000	0.818660
4898.000000	0.818630
4896.000000	0.818687
4894.000000	0.818749
4892.000000	0.818770
4890.000000	0.818738
4888.000000	0.818705
4886.000000	0.818612
4884.000000	0.818535
4882.000000	0.818596
4880.000000	0.818736
4878.000000	0.818745
4876.000000	0.818651
4874.000000	0.818581
4872.000000	0.818560
4870.000000	0.818553
4868.000000	0.818561
4866.000000	0.818572
4864.000000	0.818610
4862.000000	0.818681
4860.000000	0.818773
4858.000000	0.818821
4856.000000	0.818779
4854.000000	0.818720
4852.000000	0.818760
4850.000000	0.818840
4848.000000	0.818826
4846.000000	0.818729
4844.000000	0.818667
4842.000000	0.818698
4840.000000	0.818774
4838.000000	0.818818
4836.000000	0.818792
4834.000000	0.818717
4832.000000	0.818668
4830.000000	0.818695
4828.000000	0.818760
4826.000000	0.818782
4824.000000	0.818706
4822.000000	0.818567
4820.000000	0.818545
4818.000000	0.818688
4816.000000	0.818770
4814.000000	0.818669
4812.000000	0.818556
4810.000000	0.818518
4808.000000	0.818511
4806.000000	0.818524
4804.000000	0.818580
4802.000000	0.818670
4800.000000	0.818748
4798.000000	0.818721
4796.000000	0.818622
4794.000000	0.818565
4792.000000	0.818598
4790.000000	0.818643
4788.000000	0.818621
4786.000000	0.818576
4784.000000	0.818588
4782.000000	0.818606
4780.000000	0.818574
4778.000000	0.818497
4776.000000	0.818430
4774.000000	0.818403
4772.000000	0.818416
4770.000000	0.818484
4768.000000	0.818602
4766.000000	0.818685
4764.000000	0.818662
4762.000000	0.818588
4760.000000	0.818571
4758.000000	0.818617
4756.000000	0.818651
4754.000000	0.818631
4752.000000	0.818673
4750.000000	0.818753
4748.000000	0.818763
4746.000000	0.818704
4744.000000	0.818641
4742.000000	0.818620
4740.000000	0.818682
4738.000000	0.818713
4736.000000	0.818659
4734.000000	0.818595
4732.000000	0.818602
4730.000000	0.818610
4728.000000	0.818600
4726.000000	0.818593
4724.000000	0.818625
4722.000000	0.818700
4720.000000	0.818748
4718.000000	0.818746
4716.000000	0.818696
4714.000000	0.818643
4712.000000	0.818627
4710.000000	0.818631
4708.000000	0.818639
4706.000000	0.818663
4704.000000	0.818633
4702.000000	0.818568
4700.000000	0.818548
4698.000000	0.818582
4696.000000	0.818610
4694.000000	0.818566
4692.000000	0.818506
4690.000000	0.818518
4688.000000	0.818523
4686.000000	0.818472
4684.000000	0.818451
4682.000000	0.818473
4680.000000	0.818522
4678.000000	0.818574
4676.000000	0.818523
4674.000000	0.818443
4672.000000	0.818454
4670.000000	0.818495
4668.000000	0.818484
4666.000000	0.818463
4664.000000	0.818476
4662.000000	0.818534
4660.000000	0.818575
4658.000000	0.818574
4656.000000	0.818591
4654.000000	0.818641
4652.000000	0.818604
4650.000000	0.818541
4648.000000	0.818534
4646.000000	0.818588
4644.000000	0.818633
4642.000000	0.818628
4640.000000	0.818545
4638.000000	0.818499
4636.000000	0.818520
4634.000000	0.818530
4632.000000	0.818540
4630.000000	0.818561
4628.000000	0.818579
4626.000000	0.818626
4624.000000	0.818627
4622.000000	0.818561
4620.000000	0.818516
4618.000000	0.818541
4616.000000	0.818566
4614.000000	0.818579
4612.000000	0.818559
4610.000000	0.818555
4608.000000	0.818559
4606.000000	0.818537
4604.000000	0.818527
4602.000000	0.818560
4600.000000	0.818561
4598.000000	0.818522
4596.000000	0.818538
4594.000000	0.818581
4592.000000	0.818560
4590.000000	0.818539
4588.000000	0.818547
4586.000000	0.818536
4584.000000	0.818522
4582.000000	0.818496
4580.000000	0.818441
4578.000000	0.818463
4576.000000	0.818570
4574.000000	0.818620
4572.000000	0.818557
4570.000000	0.818509
4568.000000	0.818542
4566.000000	0.818613
4564.000000	0.818686
4562.000000	0.818706
4560.000000	0.818659
4558.000000	0.818638
4556.000000	0.818646
4554.000000	0.818638
4552.000000	0.818639
4550.000000	0.818638
4548.000000	0.818638
4546.000000	0.818707
4544.000000	0.818788
4542.000000	0.818819
4540.000000	0.818757
4538.000000	0.818655
4536.000000	0.818588
4534.000000	0.818588
4532.000000	0.818650
4530.000000	0.818708
4528.000000	0.818686
4526.000000	0.818639
4524.000000	0.818663
4522.000000	0.818659
4520.000000	0.818644
4518.000000	0.818691
4516.000000	0.818709
4514.000000	0.818657
4512.000000	0.818659
4510.000000	0.818711
4508.000000	0.818740
4506.000000	0.818766
4504.000000	0.818746
4502.000000	0.818654
4500.000000	0.818578
4498.000000	0.818585
4496.000000	0.818632
4494.000000	0.818638
4492.000000	0.818600
4490.000000	0.818589
4488.000000	0.818627
4486.000000	0.818648
4484.000000	0.818627
4482.000000	0.818627
4480.000000	0.818654
4478.000000	0.818644
4476.000000	0.818654
4474.000000	0.818754
4472.000000	0.818809
4470.000000	0.818791
4468.000000	0.818803
4466.000000	0.818830
4464.000000	0.818825
4462.000000	0.818841
4460.000000	0.818850
4458.000000	0.818847
4456.000000	0.818876
4454.000000	0.818929
4452.000000	0.818936
4450.000000	0.818883
4448.000000	0.818849
4446.000000	0.818846
4444.000000	0.818863
4442.000000	0.818919
4440.000000	0.818945
4438.000000	0.818850
4436.000000	0.818777
4434.000000	0.818821
4432.000000	0.818871
4430.000000	0.818869
4428.000000	0.818870
4426.000000	0.818858
4424.000000	0.818844
4422.000000	0.818875
4420.000000	0.818926
4418.000000	0.818940
4416.000000	0.818919
4414.000000	0.818912
4412.000000	0.818931
4410.000000	0.818932
4408.000000	0.818884
4406.000000	0.818869
4404.000000	0.818897
4402.000000	0.818925
4400.000000	0.818937
4398.000000	0.818900
4396.000000	0.818820
4394.000000	0.818816
4392.000000	0.818899
4390.000000	0.818948
4388.000000	0.818900
4386.000000	0.818825
4384.000000	0.818824
4382.000000	0.818901
4380.000000	0.819003
4378.000000	0.819072
4376.000000	0.819113
4374.000000	0.819116
4372.000000	0.819086
4370.000000	0.819094
4368.000000	0.819158
4366.000000	0.819168
4364.000000	0.819133
4362.000000	0.819121
4360.000000	0.819123
4358.000000	0.819116
4356.000000	0.819110
4354.000000	0.819091
4352.000000	0.819093
4350.000000	0.819151
4348.000000	0.819175
4346.000000	0.819150
4344.000000	0.819162
4342.000000	0.819164
4340.000000	0.819140
4338.000000	0.819168
4336.000000	0.819176
4334.000000	0.819130
4332.000000	0.819126
4330.000000	0.819151
4328.000000	0.819141
4326.000000	0.819120
4324.000000	0.819132
4322.000000	0.819182
4320.000000	0.819186
4318.000000	0.819110
4316.000000	0.819054
4314.000000	0.819055
4312.000000	0.819047
4310.000000	0.819027
4308.000000	0.819054
4306.000000	0.819136
4304.000000	0.819204
4302.000000	0.819219
4300.000000	0.819207
4298.000000	0.819160
4296.000000	0.819087
4294.000000	0.819074
4292.000000	0.819143
4290.000000	0.819182
4288.000000	0.819131
4286.000000	0.819071
4284.000000	0.819069
4282.000000	0.819121
4280.000000	0.819165
4278.000000	0.819150
4276.000000	0.819116
4274.000000	0.819114
4272.000000	0.819151
4270.000000	0.819228
4268.000000	0.819276
4266.000000	0.819286
4264.000000	0.819315
4262.000000	0.819342
4260.000000	0.819302
4258.000000	0.819248
4256.000000	0.819269
4254.000000	0.819317
4252.000000	0.819297
4250.000000	0.819270
4248.000000	0.819279
4246.000000	0.819275
4244.000000	0.819261
4242.000000	0.819280
4240.000000	0.819343
4238.000000	0.819367
4236.000000	0.819307
4234.000000	0.819268
4232.000000	0.819293
4230.000000	0.819318
4228.000000	0.819325
4226.000000	0.819289
4224.000000	0.819240
4222.000000	0.819250
4220.000000	0.819282
4218.000000	0.819289
4216.000000	0.819295
4214.000000	0.819310
4212.000000	0.819303
4210.000000	0.819299
4208.000000	0.819300
4206.000000	0.819269
4204.000000	0.819209
4202.000000	0.819209
4200.000000	0.819280
4198.000000	0.819310
4196.000000	0.819271
4194.000000	0.819234
4192.000000	0.819211
4190.000000	0.819203
4188.000000	0.819209
4186.000000	0.819217
4184.000000	0.819259
4182.000000	0.819299
4180.000000	0.819294
4178.000000	0.819312
4176.000000	0.819378
4174.000000	0.819396
4172.000000	0.819363
4170.000000	0.819354
4168.000000	0.819349
4166.000000	0.819352
4164.000000	0.819385
4162.000000	0.819388
4160.000000	0.819385
4158.000000	0.819408
4156.000000	0.819397
4154.000000	0.819354
4152.000000	0.819331
4150.000000	0.819355
4148.000000	0.819361
4146.000000	0.819310
4144.000000	0.819266
4142.000000	0.819274
4140.000000	0.819309
4138.000000	0.819329
4136.000000	0.819329
4134.000000	0.819326
4132.000000	0.819307
4130.000000	0.819283
4128.000000	0.819255
4126.000000	0.819226
4124.000000	0.819241
4122.000000	0.819291
4120.000000	0.819285
4118.000000	0.819234
4116.000000	0.819224
4114.000000	0.819268
4112.000000	0.819295
4110.000000	0.819285
4108.000000	0.819256
4106.000000	0.819232
4104.000000	0.819244
4102.000000	0.819246
4100.000000	0.819229
4098.000000	0.819253
4096.000000	0.819273
4094.000000	0.819235
4092.000000	0.819206
4090.000000	0.819253
4088.000000	0.819336
4086.000000	0.819394
4084.000000	0.819399
4082.000000	0.819341
4080.000000	0.819297
4078.000000	0.819320
4076.000000	0.819345
4074.000000	0.819329
4072.000000	0.819295
4070.000000	0.819287
4068.000000	0.819272
4066.000000	0.819226
4064.000000	0.819213
4062.000000	0.819237
4060.000000	0.819270
4058.000000	0.819313
4056.000000	0.819352
4054.000000	0.819337
4052.000000	0.819264
4050.000000	0.819219
4048.000000	0.819225
4046.000000	0.819227
4044.000000	0.819214
4042.000000	0.819203
4040.000000	0.819207
4038.000000	0.819237
4036.000000	0.819245
4034.000000	0.819186
4032.000000	0.819132
4030.000000	0.819123
4028.000000	0.819144
4026.000000	0.819179
4024.000000	0.819178
4022.000000	0.819149
4020.000000	0.819124
4018.000000	0.819102
4016.000000	0.819113
4014.000000	0.819121
4012.000000	0.819081
4010.000000	0.819077
4008.000000	0.819103
4006.000000	0.819115
4004.000000	0.819124
4002.000000	0.819076
4000.000000	0.819021
3998.000000	0.819037
3996.000000	0.819065
3994.000000	0.819064
3992.000000	0.819050
3990.000000	0.819055
3988.000000	0.819052
3986.000000	0.819071
3984.000000	0.819141
3982.000000	0.819171
3980.000000	0.819137
3978.000000	0.819089
3976.000000	0.819071
3974.000000	0.819065
3972.000000	0.819021
3970.000000	0.819012
3968.000000	0.819049
3966.000000	0.819030
3964.000000	0.818996
3962.000000	0.819009
3960.000000	0.819024
3958.000000	0.819033
3956.000000	0.819009
3954.000000	0.818928
3952.000000	0.818857
3950.000000	0.818842
3948.000000	0.818863
3946.000000	0.818867
3944.000000	0.818868
3942.000000	0.818919
3940.000000	0.818963
3938.000000	0.818924
3936.000000	0.818800
3934.000000	0.818684
3932.000000	0.818679
3930.000000	0.818731
3928.000000	0.818727
3926.000000	0.818675
3924.000000	0.818633
3922.000000	0.818577
3920.000000	0.818514
3918.000000	0.818554
3916.000000	0.818668
3914.000000	0.818723
3912.000000	0.818697
3910.000000	0.818594
3908.000000	0.818336
3906.000000	0.818052
3904.000000	0.818005
3902.000000	0.818181
3900.000000	0.818453
3898.000000	0.818663
3896.000000	0.818595
3894.000000	0.818344
3892.000000	0.818346
3890.000000	0.818470
3888.000000	0.818260
3886.000000	0.818180
3884.000000	0.818412
3882.000000	0.818469
3880.000000	0.818539
3878.000000	0.818574
3876.000000	0.818346
3874.000000	0.818121
3872.000000	0.817989
3870.000000	0.818136
3868.000000	0.818332
3866.000000	0.818228
3864.000000	0.818269
3862.000000	0.818486
3860.000000	0.818388
3858.000000	0.817627
3856.000000	0.816662
3854.000000	0.816929
3852.000000	0.818246
3850.000000	0.818841
3848.000000	0.818570
3846.000000	0.818222
3844.000000	0.818021
3842.000000	0.817772
3840.000000	0.817461
3838.000000	0.817627
3836.000000	0.818132
3834.000000	0.818299
3832.000000	0.818289
3830.000000	0.818336
3828.000000	0.818297
3826.000000	0.818116
3824.000000	0.817755
3822.000000	0.817625
3820.000000	0.817760
3818.000000	0.817664
3816.000000	0.817888
3814.000000	0.818433
3812.000000	0.818371
3810.000000	0.817836
3808.000000	0.817641
3806.000000	0.817820
3804.000000	0.817603
3802.000000	0.817512
3800.000000	0.818042
3798.000000	0.818270
3796.000000	0.818224
3794.000000	0.818329
3792.000000	0.818361
3790.000000	0.818276
3788.000000	0.818160
3786.000000	0.818083
3784.000000	0.818067
3782.000000	0.817997
3780.000000	0.817983
3778.000000	0.818131
3776.000000	0.818185
3774.000000	0.817995
3772.000000	0.817761
3770.000000	0.817800
3768.000000	0.817934
3766.000000	0.817932
3764.000000	0.817908
3762.000000	0.817797
3760.000000	0.817686
3758.000000	0.817688
3756.000000	0.817363
3754.000000	0.816683
3752.000000	0.816461
3750.000000	0.816891
3748.000000	0.816894
3746.000000	0.816517
3744.000000	0.817112
3742.000000	0.817798
3740.000000	0.817348
3738.000000	0.816712
3736.000000	0.816696
3734.000000	0.817032
3732.000000	0.817343
3730.000000	0.817423
3728.000000	0.817236
3726.000000	0.817147
3724.000000	0.817217
3722.000000	0.817291
3720.000000	0.817391
3718.000000	0.817365
3716.000000	0.817006
3714.000000	0.816527
3712.000000	0.816630
3710.000000	0.817624
3708.000000	0.818663
3706.000000	0.818628
3704.000000	0.817862
3702.000000	0.817459
3700.000000	0.817458
3698.000000	0.817399
3696.000000	0.817214
3694.000000	0.816883
3692.000000	0.816420
3690.000000	0.816271
3688.000000	0.816779
3686.000000	0.817223
3684.000000	0.817080
3682.000000	0.816771
3680.000000	0.816378
3678.000000	0.815825
3676.000000	0.815811
3674.000000	0.816144
3672.000000	0.815977
3670.000000	0.816099
3668.000000	0.816587
3666.000000	0.816614
3664.000000	0.816431
3662.000000	0.816338
3660.000000	0.816154
3658.000000	0.815940
3656.000000	0.816007
3654.000000	0.815871
3652.000000	0.815263
3650.000000	0.815138
3648.000000	0.815699
3646.000000	0.816094
3644.000000	0.816061
3642.000000	0.815930
3640.000000	0.815845
3638.000000	0.815734
3636.000000	0.815618
3634.000000	0.815439
3632.000000	0.814952
3630.000000	0.814705
3628.000000	0.815234
3626.000000	0.815578
3624.000000	0.815310
3622.000000	0.814918
3620.000000	0.814797
3618.000000	0.814974
3616.000000	0.814986
3614.000000	0.814800
3612.000000	0.814701
3610.000000	0.814736
3608.000000	0.814905
3606.000000	0.815012
3604.000000	0.814924
3602.000000	0.815090
3600.000000	0.815536
3598.000000	0.815513
3596.000000	0.815151
3594.000000	0.814978
3592.000000	0.814796
3590.000000	0.814516
3588.000000	0.814490
3586.000000	0.814717
3584.000000	0.814809
3582.000000	0.814721
3580.000000	0.814653
3578.000000	0.814639
3576.000000	0.814624
3574.000000	0.814597
3572.000000	0.814498
3570.000000	0.814299
3568.000000	0.814281
3566.000000	0.814492
3564.000000	0.814566
3562.000000	0.814488
3560.000000	0.814460
3558.000000	0.814466
3556.000000	0.814447
3554.000000	0.814439
3552.000000	0.814459
3550.000000	0.814446
3548.000000	0.814379
3546.000000	0.814389
3544.000000	0.814516
3542.000000	0.814624
3540.000000	0.814620
3538.000000	0.814557
3536.000000	0.814546
3534.000000	0.814587
3532.000000	0.814590
3530.000000	0.814576
3528.000000	0.814570
3526.000000	0.814579
3524.000000	0.814630
3522.000000	0.814730
3520.000000	0.814833
3518.000000	0.814876
3516.000000	0.814887
3514.000000	0.814925
3512.000000	0.814943
3510.000000	0.814948
3508.000000	0.815008
3506.000000	0.815078
3504.000000	0.815148
3502.000000	0.815294
3500.000000	0.815451
3498.000000	0.815514
3496.000000	0.815546
3494.000000	0.815625
3492.000000	0.815740
3490.000000	0.815847
3488.000000	0.815975
3486.000000	0.816100
3484.000000	0.816193
3482.000000	0.816318
3480.000000	0.816426
3478.000000	0.816536
3476.000000	0.816702
3474.000000	0.816875
3472.000000	0.816991
3470.000000	0.817083
3468.000000	0.817247
3466.000000	0.817511
3464.000000	0.817764
3462.000000	0.817953
3460.000000	0.818134
3458.000000	0.818338
3456.000000	0.818598
3454.000000	0.818845
3452.000000	0.819045
3450.000000	0.819238
3448.000000	0.819471
3446.000000	0.819751
3444.000000	0.820029
3442.000000	0.820309
3440.000000	0.820611
3438.000000	0.820864
3436.000000	0.821119
3434.000000	0.821479
3432.000000	0.821852
3430.000000	0.822176
3428.000000	0.822491
3426.000000	0.822783
3424.000000	0.823053
3422.000000	0.823334
3420.000000	0.823633
3418.000000	0.823953
3416.000000	0.824258
3414.000000	0.824528
3412.000000	0.824760
3410.000000	0.824948
3408.000000	0.825141
3406.000000	0.825379
3404.000000	0.825586
3402.000000	0.825739
3400.000000	0.825913
3398.000000	0.826127
3396.000000	0.826317
3394.000000	0.826442
3392.000000	0.826589
3390.000000	0.826798
3388.000000	0.826979
3386.000000	0.827130
3384.000000	0.827292
3382.000000	0.827459
3380.000000	0.827587
3378.000000	0.827683
3376.000000	0.827787
3374.000000	0.827936
3372.000000	0.828036
3370.000000	0.828054
3368.000000	0.828152
3366.000000	0.828346
3364.000000	0.828452
3362.000000	0.828485
3360.000000	0.828581
3358.000000	0.828716
3356.000000	0.828809
3354.000000	0.828877
3352.000000	0.828959
3350.000000	0.829055
3348.000000	0.829149
3346.000000	0.829198
3344.000000	0.829203
3342.000000	0.829206
3340.000000	0.829240
3338.000000	0.829322
3336.000000	0.829415
3334.000000	0.829456
3332.000000	0.829480
3330.000000	0.829504
3328.000000	0.829534
3326.000000	0.829605
3324.000000	0.829688
3322.000000	0.829755
3320.000000	0.829806
3318.000000	0.829858
3316.000000	0.829927
3314.000000	0.830017
3312.000000	0.830063
3310.000000	0.830090
3308.000000	0.830136
3306.000000	0.830194
3304.000000	0.830310
3302.000000	0.830460
3300.000000	0.830589
3298.000000	0.830673
3296.000000	0.830695
3294.000000	0.830712
3292.000000	0.830805
3290.000000	0.830926
3288.000000	0.830978
3286.000000	0.830999
3284.000000	0.831074
3282.000000	0.831165
3280.000000	0.831231
3278.000000	0.831289
3276.000000	0.831358
3274.000000	0.831429
3272.000000	0.831496
3270.000000	0.831568
3268.000000	0.831632
3266.000000	0.831661
3264.000000	0.831688
3262.000000	0.831756
3260.000000	0.831815
3258.000000	0.831863
3256.000000	0.831911
3254.000000	0.831991
3252.000000	0.832135
3250.000000	0.832232
3248.000000	0.832267
3246.000000	0.832351
3244.000000	0.832452
3242.000000	0.832534
3240.000000	0.832634
3238.000000	0.832713
3236.000000	0.832788
3234.000000	0.832859
3232.000000	0.832957
3230.000000	0.833075
3228.000000	0.833173
3226.000000	0.833245
3224.000000	0.833307
3222.000000	0.833403
3220.000000	0.833493
3218.000000	0.833528
3216.000000	0.833536
3214.000000	0.833535
3212.000000	0.833541
3210.000000	0.833557
3208.000000	0.833523
3206.000000	0.833498
3204.000000	0.833501
3202.000000	0.833478
3200.000000	0.833439
3198.000000	0.833400
3196.000000	0.833360
3194.000000	0.833332
3192.000000	0.833352
3190.000000	0.833365
3188.000000	0.833290
3186.000000	0.833222
3184.000000	0.833196
3182.000000	0.833133
3180.000000	0.833121
3178.000000	0.833182
3176.000000	0.833176
3174.000000	0.833131
3172.000000	0.833138
3170.000000	0.833164
3168.000000	0.833186
3166.000000	0.833187
3164.000000	0.833167
3162.000000	0.833189
3160.000000	0.833209
3158.000000	0.833202
3156.000000	0.833209
3154.000000	0.833186
3152.000000	0.833185
3150.000000	0.833227
3148.000000	0.833249
3146.000000	0.833276
3144.000000	0.833271
3142.000000	0.833250
3140.000000	0.833256
3138.000000	0.833297
3136.000000	0.833374
3134.000000	0.833419
3132.000000	0.833436
3130.000000	0.833460
3128.000000	0.833473
3126.000000	0.833505
3124.000000	0.833533
3122.000000	0.833521
3120.000000	0.833548
3118.000000	0.833629
3116.000000	0.833697
3114.000000	0.833736
3112.000000	0.833719
3110.000000	0.833657
3108.000000	0.833641
3106.000000	0.833674
3104.000000	0.833678
3102.000000	0.833636
3100.000000	0.833593
3098.000000	0.833566
3096.000000	0.833553
3094.000000	0.833497
3092.000000	0.833405
3090.000000	0.833362
3088.000000	0.833333
3086.000000	0.833256
3084.000000	0.833189
3082.000000	0.833134
3080.000000	0.833074
3078.000000	0.833029
3076.000000	0.832997
3074.000000	0.832925
3072.000000	0.832838
3070.000000	0.832774
3068.000000	0.832679
3066.000000	0.832606
3064.000000	0.832573
3062.000000	0.832496
3060.000000	0.832396
3058.000000	0.832317
3056.000000	0.832254
3054.000000	0.832189
3052.000000	0.832135
3050.000000	0.832067
3048.000000	0.831973
3046.000000	0.831874
3044.000000	0.831814
3042.000000	0.831790
3040.000000	0.831771
3038.000000	0.831696
3036.000000	0.831584
3034.000000	0.831495
3032.000000	0.831437
3030.000000	0.831404
3028.000000	0.831363
3026.000000	0.831302
3024.000000	0.831231
3022.000000	0.831187
3020.000000	0.831197
3018.000000	0.831215
3016.000000	0.831186
3014.000000	0.831099
3012.000000	0.831023
3010.000000	0.830991
3008.000000	0.830940
3006.000000	0.830846
3004.000000	0.830784
3002.000000	0.830743
3000.000000	0.830697
2998.000000	0.830628
2996.000000	0.830579
2994.000000	0.830544
2992.000000	0.830495
2990.000000	0.830459
2988.000000	0.830468
2986.000000	0.830456
2984.000000	0.830407
2982.000000	0.830372
2980.000000	0.830345
2978.000000	0.830354
2976.000000	0.830395
2974.000000	0.830433
2972.000000	0.830508
2970.000000	0.830635
2968.000000	0.830796
2966.000000	0.830958
2964.000000	0.831083
2962.000000	0.831138
2960.000000	0.831101
2958.000000	0.830921
2956.000000	0.830672
2954.000000	0.830441
2952.000000	0.830240
2950.000000	0.830055
2948.000000	0.829875
2946.000000	0.829729
2944.000000	0.829641
2942.000000	0.829589
2940.000000	0.829513
2938.000000	0.829433
2936.000000	0.829406
2934.000000	0.829416
2932.000000	0.829405
2930.000000	0.829381
2928.000000	0.829402
2926.000000	0.829437
2924.000000	0.829513
2922.000000	0.829609
2920.000000	0.829651
2918.000000	0.829665
2916.000000	0.829677
2914.000000	0.829613
2912.000000	0.829529
2910.000000	0.829495
2908.000000	0.829485
2906.000000	0.829470
2904.000000	0.829401
2902.000000	0.829308
2900.000000	0.829249
2898.000000	0.829197
2896.000000	0.829158
2894.000000	0.829150
2892.000000	0.829129
2890.000000	0.829083
2888.000000	0.829012
2886.000000	0.828968
2884.000000	0.828923
2882.000000	0.828848
2880.000000	0.828803
2878.000000	0.828763
2876.000000	0.828699
2874.000000	0.828613
2872.000000	0.828566
2870.000000	0.828529
2868.000000	0.828442
2866.000000	0.828322
2864.000000	0.828273
2862.000000	0.828344
2860.000000	0.828460
2858.000000	0.828532
2856.000000	0.828532
2854.000000	0.828519
2852.000000	0.828555
2850.000000	0.828593
2848.000000	0.828596
2846.000000	0.828582
2844.000000	0.828524
2842.000000	0.828435
2840.000000	0.828395
2838.000000	0.828422
2836.000000	0.828468
2834.000000	0.828438
2832.000000	0.828404
2830.000000	0.828409
2828.000000	0.828387
2826.000000	0.828362
2824.000000	0.828355
2822.000000	0.828336
2820.000000	0.828288
2818.000000	0.828263
2816.000000	0.828283
2814.000000	0.828255
2812.000000	0.828223
2810.000000	0.828225
2808.000000	0.828180
2806.000000	0.828152
2804.000000	0.828169
2802.000000	0.828159
2800.000000	0.828136
2798.000000	0.828109
2796.000000	0.828090
2794.000000	0.828074
2792.000000	0.828061
2790.000000	0.828064
2788.000000	0.828067
2786.000000	0.828058
2784.000000	0.828044
2782.000000	0.828031
2780.000000	0.828026
2778.000000	0.828041
2776.000000	0.828075
2774.000000	0.828050
2772.000000	0.827969
2770.000000	0.827927
2768.000000	0.827952
2766.000000	0.827991
2764.000000	0.827988
2762.000000	0.827972
2760.000000	0.827968
2758.000000	0.827957
2756.000000	0.827944
2754.000000	0.827953
2752.000000	0.827992
2750.000000	0.827991
2748.000000	0.827955
2746.000000	0.827977
2744.000000	0.827994
2742.000000	0.828006
2740.000000	0.828026
2738.000000	0.828053
2736.000000	0.828100
2734.000000	0.828145
2732.000000	0.828141
2730.000000	0.828132
2728.000000	0.828163
2726.000000	0.828192
2724.000000	0.828221
2722.000000	0.828280
2720.000000	0.828329
2718.000000	0.828320
2716.000000	0.828313
2714.000000	0.828368
2712.000000	0.828453
2710.000000	0.828508
2708.000000	0.828541
2706.000000	0.828600
2704.000000	0.828632
2702.000000	0.828652
2700.000000	0.828683
2698.000000	0.828702
2696.000000	0.828748
2694.000000	0.828802
2692.000000	0.828848
2690.000000	0.828924
2688.000000	0.828959
2686.000000	0.828970
2684.000000	0.829016
2682.000000	0.829058
2680.000000	0.829128
2678.000000	0.829181
2676.000000	0.829172
2674.000000	0.829179
2672.000000	0.829223
2670.000000	0.829294
2668.000000	0.829371
2666.000000	0.829418
2664.000000	0.829397
2662.000000	0.829380
2660.000000	0.829455
2658.000000	0.829535
2656.000000	0.829587
2654.000000	0.829638
2652.000000	0.829691
2650.000000	0.829730
2648.000000	0.829770
2646.000000	0.829795
2644.000000	0.829801
2642.000000	0.829839
2640.000000	0.829909
2638.000000	0.829948
2636.000000	0.829985
2634.000000	0.830027
2632.000000	0.830050
2630.000000	0.830060
2628.000000	0.830088
2626.000000	0.830137
2624.000000	0.830181
2622.000000	0.830203
2620.000000	0.830220
2618.000000	0.830247
2616.000000	0.830277
2614.000000	0.830298
2612.000000	0.830324
2610.000000	0.830359
2608.000000	0.830384
2606.000000	0.830405
2604.000000	0.830451
2602.000000	0.830468
2600.000000	0.830478
2598.000000	0.830497
2596.000000	0.830546
2594.000000	0.830602
2592.000000	0.830625
2590.000000	0.830632
2588.000000	0.830652
2586.000000	0.830696
2584.000000	0.830739
2582.000000	0.830761
2580.000000	0.830760
2578.000000	0.830756
2576.000000	0.830777
2574.000000	0.830766
2572.000000	0.830756
2570.000000	0.830804
2568.000000	0.830855
2566.000000	0.830873
2564.000000	0.830859
2562.000000	0.830851
2560.000000	0.830878
2558.000000	0.830906
2556.000000	0.830920
2554.000000	0.830914
2552.000000	0.830928
2550.000000	0.830931
2548.000000	0.830928
2546.000000	0.830936
2544.000000	0.830970
2542.000000	0.830987
2540.000000	0.830970
2538.000000	0.830952
2536.000000	0.830957
2534.000000	0.830957
2532.000000	0.830968
2530.000000	0.831001
2528.000000	0.831012
2526.000000	0.831009
2524.000000	0.830998
2522.000000	0.830985
2520.000000	0.830977
2518.000000	0.830979
2516.000000	0.831008
2514.000000	0.831025
2512.000000	0.831000
2510.000000	0.830953
2508.000000	0.830965
2506.000000	0.831016
2504.000000	0.831015
2502.000000	0.830962
2500.000000	0.830948
2498.000000	0.831008
2496.000000	0.831077
2494.000000	0.831049
2492.000000	0.830983
2490.000000	0.830923
2488.000000	0.830877
2486.000000	0.830918
2484.000000	0.830956
2482.000000	0.830961
2480.000000	0.830925
2478.000000	0.830886
2476.000000	0.830871
2474.000000	0.830879
2472.000000	0.830909
2470.000000	0.830924
2468.000000	0.830915
2466.000000	0.830930
2464.000000	0.830971
2462.000000	0.831000
2460.000000	0.831016
2458.000000	0.831003
2456.000000	0.831000
2454.000000	0.831003
2452.000000	0.830964
2450.000000	0.830916
2448.000000	0.830900
2446.000000	0.830879
2444.000000	0.830856
2442.000000	0.830834
2440.000000	0.830775
2438.000000	0.830706
2436.000000	0.830721
2434.000000	0.830737
2432.000000	0.830656
2430.000000	0.830615
2428.000000	0.830587
2426.000000	0.830525
2424.000000	0.830479
2422.000000	0.830453
2420.000000	0.830420
2418.000000	0.830381
2416.000000	0.830346
2414.000000	0.830296
2412.000000	0.830230
2410.000000	0.830161
2408.000000	0.830100
2406.000000	0.830023
2404.000000	0.829935
2402.000000	0.829853
2400.000000	0.829759
2398.000000	0.829677
2396.000000	0.829601
2394.000000	0.829499
2392.000000	0.829410
2390.000000	0.829336
2388.000000	0.829284
2386.000000	0.829285
2384.000000	0.829587
2382.000000	0.830714
2380.000000	0.832582
2378.000000	0.834196
2376.000000	0.835042
2374.000000	0.835382
2372.000000	0.835502
2370.000000	0.835455
2368.000000	0.835335
2366.000000	0.835320
2364.000000	0.835492
2362.000000	0.835850
2360.000000	0.836314
2358.000000	0.836778
2356.000000	0.837198
2354.000000	0.837622
2352.000000	0.838069
2350.000000	0.838499
2348.000000	0.838752
2346.000000	0.838887
2344.000000	0.839055
2342.000000	0.839134
2340.000000	0.838962
2338.000000	0.838517
2336.000000	0.837975
2334.000000	0.837501
2332.000000	0.837111
2330.000000	0.836766
2328.000000	0.836486
2326.000000	0.836302
2324.000000	0.836128
2322.000000	0.835968
2320.000000	0.835808
2318.000000	0.835646
2316.000000	0.835548
2314.000000	0.835478
2312.000000	0.835391
2310.000000	0.835277
2308.000000	0.835157
2306.000000	0.835076
2304.000000	0.835049
2302.000000	0.835022
2300.000000	0.834957
2298.000000	0.834854
2296.000000	0.834778
2294.000000	0.834736
2292.000000	0.834725
2290.000000	0.834659
2288.000000	0.834526
2286.000000	0.834503
2284.000000	0.834799
2282.000000	0.835185
2280.000000	0.835134
2278.000000	0.834848
2276.000000	0.834676
2274.000000	0.834604
2272.000000	0.834562
2270.000000	0.834532
2268.000000	0.834470
2266.000000	0.834394
2264.000000	0.834328
2262.000000	0.834263
2260.000000	0.834247
2258.000000	0.834217
2256.000000	0.834174
2254.000000	0.834120
2252.000000	0.834077
2250.000000	0.834045
2248.000000	0.834036
2246.000000	0.834007
2244.000000	0.833916
2242.000000	0.833853
2240.000000	0.833838
2238.000000	0.833803
2236.000000	0.833774
2234.000000	0.833753
2232.000000	0.833723
2230.000000	0.833696
2228.000000	0.833624
2226.000000	0.833537
2224.000000	0.833500
2222.000000	0.833481
2220.000000	0.833449
2218.000000	0.833403
2216.000000	0.833332
2214.000000	0.833291
2212.000000	0.833309
2210.000000	0.833296
2208.000000	0.833230
2206.000000	0.833177
2204.000000	0.833104
2202.000000	0.833033
2200.000000	0.833032
2198.000000	0.833051
2196.000000	0.833037
2194.000000	0.832958
2192.000000	0.832887
2190.000000	0.832864
2188.000000	0.832868
2186.000000	0.832865
2184.000000	0.832851
2182.000000	0.832807
2180.000000	0.832747
2178.000000	0.832709
2176.000000	0.832695
2174.000000	0.832681
2172.000000	0.832635
2170.000000	0.832559
2168.000000	0.832504
2166.000000	0.832478
2164.000000	0.832464
2162.000000	0.832436
2160.000000	0.832362
2158.000000	0.832308
2156.000000	0.832308
2154.000000	0.832299
2152.000000	0.832268
2150.000000	0.832221
2148.000000	0.832196
2146.000000	0.832176
2144.000000	0.832125
2142.000000	0.832056
2140.000000	0.832040
2138.000000	0.832030
2136.000000	0.831985
2134.000000	0.831952
2132.000000	0.831925
2130.000000	0.831855
2128.000000	0.831811
2126.000000	0.831795
2124.000000	0.831794
2122.000000	0.831735
2120.000000	0.831649
2118.000000	0.831598
2116.000000	0.831581
2114.000000	0.831566
2112.000000	0.831559
2110.000000	0.831544
2108.000000	0.831503
2106.000000	0.831448
2104.000000	0.831394
2102.000000	0.831380
2100.000000	0.831387
2098.000000	0.831349
2096.000000	0.831325
2094.000000	0.831333
2092.000000	0.831297
2090.000000	0.831240
2088.000000	0.831217
2086.000000	0.831175
2084.000000	0.831128
2082.000000	0.831096
2080.000000	0.831058
2078.000000	0.831009
2076.000000	0.830970
2074.000000	0.830921
2072.000000	0.830910
2070.000000	0.830919
2068.000000	0.830888
2066.000000	0.830825
2064.000000	0.830783
2062.000000	0.830782
2060.000000	0.830789
2058.000000	0.830762
2056.000000	0.830711
2054.000000	0.830648
2052.000000	0.830622
2050.000000	0.830584
2048.000000	0.830548
2046.000000	0.830492
2044.000000	0.830446
2042.000000	0.830431
2040.000000	0.830419
2038.000000	0.830390
2036.000000	0.830353
2034.000000	0.830309
2032.000000	0.830244
2030.000000	0.830169
2028.000000	0.830133
2026.000000	0.830100
2024.000000	0.830080
2022.000000	0.830026
2020.000000	0.829958
2018.000000	0.829912
2016.000000	0.829887
2014.000000	0.829832
2012.000000	0.829791
2010.000000	0.829774
2008.000000	0.829757
2006.000000	0.829741
2004.000000	0.829710
2002.000000	0.829643
2000.000000	0.829598
1998.000000	0.829565
1996.000000	0.829549
1994.000000	0.829494
1992.000000	0.829426
1990.000000	0.829383
1988.000000	0.829344
1986.000000	0.829349
1984.000000	0.829338
1982.000000	0.829316
1980.000000	0.829275
1978.000000	0.829226
1976.000000	0.829171
1974.000000	0.829169
1972.000000	0.829191
1970.000000	0.829153
1968.000000	0.829118
1966.000000	0.829101
1964.000000	0.829090
1962.000000	0.829073
1960.000000	0.829052
1958.000000	0.829044
1956.000000	0.829013
1954.000000	0.828995
1952.000000	0.828993
1950.000000	0.829003
1948.000000	0.828988
1946.000000	0.828951
1944.000000	0.828877
1942.000000	0.828895
1940.000000	0.828980
1938.000000	0.828970
1936.000000	0.828970
1934.000000	0.828953
1932.000000	0.828924
1930.000000	0.828915
1928.000000	0.828904
1926.000000	0.828873
1924.000000	0.828865
1922.000000	0.828885
1920.000000	0.828821
1918.000000	0.828811
1916.000000	0.828912
1914.000000	0.828890
1912.000000	0.828900
1910.000000	0.828932
1908.000000	0.828936
1906.000000	0.828921
1904.000000	0.828917
1902.000000	0.828973
1900.000000	0.828977
1898.000000	0.828897
1896.000000	0.828896
1894.000000	0.828928
1892.000000	0.828847
1890.000000	0.828781
1888.000000	0.828844
1886.000000	0.828813
1884.000000	0.828769
1882.000000	0.828758
1880.000000	0.828774
1878.000000	0.828767
1876.000000	0.828724
1874.000000	0.828672
1872.000000	0.828551
1870.000000	0.828388
1868.000000	0.828463
1866.000000	0.828561
1864.000000	0.828534
1862.000000	0.828508
1860.000000	0.828535
1858.000000	0.828544
1856.000000	0.828535
1854.000000	0.828460
1852.000000	0.828447
1850.000000	0.828421
1848.000000	0.828250
1846.000000	0.827980
1844.000000	0.828103
1842.000000	0.828389
1840.000000	0.828326
1838.000000	0.828232
1836.000000	0.828239
1834.000000	0.828236
1832.000000	0.828095
1830.000000	0.828058
1828.000000	0.828141
1826.000000	0.828118
1824.000000	0.828270
1822.000000	0.828388
1820.000000	0.828370
1818.000000	0.828321
1816.000000	0.828363
1814.000000	0.828370
1812.000000	0.828342
1810.000000	0.828363
1808.000000	0.828433
1806.000000	0.828429
1804.000000	0.828309
1802.000000	0.828180
1800.000000	0.828262
1798.000000	0.828322
1796.000000	0.828152
1794.000000	0.827870
1792.000000	0.828006
1790.000000	0.828278
1788.000000	0.828310
1786.000000	0.828226
1784.000000	0.828272
1782.000000	0.828305
1780.000000	0.828368
1778.000000	0.828399
1776.000000	0.828174
1774.000000	0.827793
1772.000000	0.827996
1770.000000	0.828307
1768.000000	0.828378
1766.000000	0.828513
1764.000000	0.828333
1762.000000	0.828320
1760.000000	0.828552
1758.000000	0.828509
1756.000000	0.828580
1754.000000	0.828455
1752.000000	0.828172
1750.000000	0.828365
1748.000000	0.828610
1746.000000	0.828704
1744.000000	0.828678
1742.000000	0.828564
1740.000000	0.828551
1738.000000	0.828643
1736.000000	0.828036
1734.000000	0.828058
1732.000000	0.828895
1730.000000	0.829099
1728.000000	0.829154
1726.000000	0.829151
1724.000000	0.829172
1722.000000	0.829096
1720.000000	0.828539
1718.000000	0.828234
1716.000000	0.828801
1714.000000	0.829184
1712.000000	0.829353
1710.000000	0.829345
1708.000000	0.829277
1706.000000	0.829182
1704.000000	0.829052
1702.000000	0.828237
1700.000000	0.828323
1698.000000	0.828635
1696.000000	0.828776
1694.000000	0.829611
1692.000000	0.829657
1690.000000	0.829523
1688.000000	0.829250
1686.000000	0.828516
1684.000000	0.828922
1682.000000	0.829715
1680.000000	0.829771
1678.000000	0.829609
1676.000000	0.829458
1674.000000	0.829799
1672.000000	0.829686
1670.000000	0.829577
1668.000000	0.829976
1666.000000	0.830085
1664.000000	0.829915
1662.000000	0.830136
1660.000000	0.830313
1658.000000	0.830127
1656.000000	0.829144
1654.000000	0.828245
1652.000000	0.829516
1650.000000	0.830218
1648.000000	0.829715
1646.000000	0.830015
1644.000000	0.830563
1642.000000	0.830587
1640.000000	0.830434
1638.000000	0.829926
1636.000000	0.829767
1634.000000	0.830464
1632.000000	0.830668
1630.000000	0.830530
1628.000000	0.830491
1626.000000	0.830384
1624.000000	0.830219
1622.000000	0.830341
1620.000000	0.830112
1618.000000	0.829586
1616.000000	0.830006
1614.000000	0.830560
1612.000000	0.830511
1610.000000	0.830552
1608.000000	0.830677
1606.000000	0.830792
1604.000000	0.830800
1602.000000	0.830788
1600.000000	0.830774
1598.000000	0.830801
1596.000000	0.830838
1594.000000	0.830891
1592.000000	0.830877
1590.000000	0.830871
1588.000000	0.830865
1586.000000	0.830874
1584.000000	0.830920
1582.000000	0.830960
1580.000000	0.830763
1578.000000	0.830117
1576.000000	0.830201
1574.000000	0.830836
1572.000000	0.830573
1570.000000	0.830464
1568.000000	0.830792
1566.000000	0.830869
1564.000000	0.830687
1562.000000	0.829790
1560.000000	0.828923
1558.000000	0.829792
1556.000000	0.830457
1554.000000	0.830679
1552.000000	0.830913
1550.000000	0.830988
1548.000000	0.831004
1546.000000	0.830694
1544.000000	0.830302
1542.000000	0.829661
1540.000000	0.829654
1538.000000	0.830676
1536.000000	0.830901
1534.000000	0.830744
1532.000000	0.831007
1530.000000	0.830989
1528.000000	0.830756
1526.000000	0.830649
1524.000000	0.830321
1522.000000	0.829961
1520.000000	0.830423
1518.000000	0.830612
1516.000000	0.830725
1514.000000	0.830825
1512.000000	0.830773
1510.000000	0.830343
1508.000000	0.829539
1506.000000	0.829947
1504.000000	0.830800
1502.000000	0.830676
1500.000000	0.830227
1498.000000	0.829929
1496.000000	0.830390
1494.000000	0.831050
1492.000000	0.831023
1490.000000	0.830925
1488.000000	0.831004
1486.000000	0.831104
1484.000000	0.831136
1482.000000	0.831073
1480.000000	0.830981
1478.000000	0.830657
1476.000000	0.830296
1474.000000	0.830028
1472.000000	0.830352
1470.000000	0.830747
1468.000000	0.830607
1466.000000	0.830343
1464.000000	0.830485
1462.000000	0.830580
1460.000000	0.830020
1458.000000	0.829345
1456.000000	0.829793
1454.000000	0.830351
1452.000000	0.830476
1450.000000	0.830613
1448.000000	0.830617
1446.000000	0.830604
1444.000000	0.830498
1442.000000	0.830457
1440.000000	0.830228
1438.000000	0.829775
1436.000000	0.829982
1434.000000	0.830290
1432.000000	0.830151
1430.000000	0.830136
1428.000000	0.830174
1426.000000	0.830075
1424.000000	0.830023
1422.000000	0.829824
1420.000000	0.829455
1418.000000	0.829699
1416.000000	0.829955
1414.000000	0.829988
1412.000000	0.829908
1410.000000	0.829870
1408.000000	0.829743
1406.000000	0.829628
1404.000000	0.829728
1402.000000	0.829767
1400.000000	0.829657
1398.000000	0.829654
1396.000000	0.829486
1394.000000	0.829501
1392.000000	0.829578
1390.000000	0.829376
1388.000000	0.829175
1386.000000	0.829299
1384.000000	0.829399
1382.000000	0.829351
1380.000000	0.829271
1378.000000	0.829244
1376.000000	0.829144
1374.000000	0.829094
1372.000000	0.829079
1370.000000	0.829028
1368.000000	0.829038
1366.000000	0.828979
1364.000000	0.828809
1362.000000	0.828798
1360.000000	0.828847
1358.000000	0.828845
1356.000000	0.828842
1354.000000	0.828833
1352.000000	0.828800
1350.000000	0.828789
1348.000000	0.828784
1346.000000	0.828770
1344.000000	0.828755
1342.000000	0.828742
1340.000000	0.828672
1338.000000	0.828665
1336.000000	0.828707
1334.000000	0.828719
1332.000000	0.828717
1330.000000	0.828745
1328.000000	0.828760
1326.000000	0.828788
1324.000000	0.828798
1322.000000	0.828789
1320.000000	0.828760
1318.000000	0.828761
1316.000000	0.828757
1314.000000	0.828730
1312.000000	0.828789
1310.000000	0.828846
1308.000000	0.828816
1306.000000	0.828779
1304.000000	0.828791
1302.000000	0.828872
1300.000000	0.828930
1298.000000	0.828971
1296.000000	0.828959
1294.000000	0.828931
1292.000000	0.828962
1290.000000	0.829024
1288.000000	0.829036
1286.000000	0.829046
1284.000000	0.829087
1282.000000	0.829149
1280.000000	0.829236
1278.000000	0.829377
1276.000000	0.829519
1274.000000	0.829630
1272.000000	0.829849
1270.000000	0.830330
1268.000000	0.831047
1266.000000	0.831991
1264.000000	0.833053
1262.000000	0.834013
1260.000000	0.834576
1258.000000	0.834456
1256.000000	0.833789
1254.000000	0.832915
1252.000000	0.832186
1250.000000	0.831845
1248.000000	0.831730
1246.000000	0.831694
1244.000000	0.831712
1242.000000	0.831776
1240.000000	0.831888
1238.000000	0.832034
1236.000000	0.832168
1234.000000	0.832218
1232.000000	0.832293
1230.000000	0.832407
1228.000000	0.832503
1226.000000	0.832622
1224.000000	0.832698
1222.000000	0.832697
1220.000000	0.832784
1218.000000	0.832958
1216.000000	0.833077
1214.000000	0.833128
1212.000000	0.833190
1210.000000	0.833304
1208.000000	0.833489
1206.000000	0.833696
1204.000000	0.833794
1202.000000	0.833885
1200.000000	0.834053
1198.000000	0.834258
1196.000000	0.834428
1194.000000	0.834537
1192.000000	0.834748
1190.000000	0.835015
1188.000000	0.835250
1186.000000	0.835541
1184.000000	0.835742
1182.000000	0.835858
1180.000000	0.836144
1178.000000	0.836502
1176.000000	0.836842
1174.000000	0.837099
1172.000000	0.837292
1170.000000	0.837465
1168.000000	0.837550
1166.000000	0.837661
1164.000000	0.837854
1162.000000	0.838118
1160.000000	0.838337
1158.000000	0.838475
1156.000000	0.838609
1154.000000	0.838733
1152.000000	0.838885
1150.000000	0.839102
1148.000000	0.839268
1146.000000	0.839341
1144.000000	0.839456
1142.000000	0.839588
1140.000000	0.839630
1138.000000	0.839638
1136.000000	0.839633
1134.000000	0.839751
1132.000000	0.840015
1130.000000	0.840161
1128.000000	0.840139
1126.000000	0.840144
1124.000000	0.840282
1122.000000	0.840413
1120.000000	0.840497
1118.000000	0.840701
1116.000000	0.840933
1114.000000	0.841136
1112.000000	0.841290
1110.000000	0.841404
1108.000000	0.841607
1106.000000	0.842042
1104.000000	0.842348
1102.000000	0.842541
1100.000000	0.842678
1098.000000	0.842782
1096.000000	0.842974
1094.000000	0.843268
1092.000000	0.843336
1090.000000	0.843142
1088.000000	0.842796
1086.000000	0.842916
1084.000000	0.842934
1082.000000	0.842623
1080.000000	0.842218
1078.000000	0.842089
1076.000000	0.842103
1074.000000	0.842013
1072.000000	0.841770
1070.000000	0.841317
1068.000000	0.840860
1066.000000	0.840529
1064.000000	0.840320
1062.000000	0.840226
1060.000000	0.839871
1058.000000	0.839370
1056.000000	0.838886
1054.000000	0.838367
1052.000000	0.837927
1050.000000	0.837822
1048.000000	0.837935
1046.000000	0.837514
1044.000000	0.836703
1042.000000	0.836179
1040.000000	0.835716
1038.000000	0.835667
1036.000000	0.835707
1034.000000	0.835508
1032.000000	0.834881
1030.000000	0.834048
1028.000000	0.833653
1026.000000	0.833664
1024.000000	0.833685
1022.000000	0.833553
1020.000000	0.833429
1018.000000	0.833280
1016.000000	0.832922
1014.000000	0.832338
1012.000000	0.831287
1010.000000	0.830378
1008.000000	0.829654
1006.000000	0.829205
1004.000000	0.828442
1002.000000	0.827564
1000.000000	0.826914
