PE IR       SUBTECH     SPECTRUM    ASCII       PEDS        4.00        
   -1
TE110A_009_80K.ASC
20/05/14
11:50:57.00
20/05/14
11:50:57.00
Administrator
TE108A.Thursday, May 14 2020, 004.
1000.000000
#HDR
-1
-1
#GR
cm-1
A
1.0
0.0
6000.000000
-2.000000
2501
8
0.865226
0.836344
#DATA
6000.000000	0.841683
5998.000000	0.841715
5996.000000	0.841707
5994.000000	0.841771
5992.000000	0.841874
5990.000000	0.841781
5988.000000	0.841597
5986.000000	0.841458
5984.000000	0.841599
5982.000000	0.841802
5980.000000	0.841770
5978.000000	0.841705
5976.000000	0.841554
5974.000000	0.841409
5972.000000	0.841442
5970.000000	0.841517
5968.000000	0.841735
5966.000000	0.841767
5964.000000	0.841668
5962.000000	0.841622
5960.000000	0.841567
5958.000000	0.841541
5956.000000	0.841575
5954.000000	0.841581
5952.000000	0.841547
5950.000000	0.841469
5948.000000	0.841460
5946.000000	0.841620
5944.000000	0.841684
5942.000000	0.841691
5940.000000	0.841664
5938.000000	0.841726
5936.000000	0.841863
5934.000000	0.841851
5932.000000	0.841762
5930.000000	0.841566
5928.000000	0.841542
5926.000000	0.841778
5924.000000	0.841971
5922.000000	0.842127
5920.000000	0.842063
5918.000000	0.841970
5916.000000	0.842017
5914.000000	0.842035
5912.000000	0.841992
5910.000000	0.842063
5908.000000	0.842128
5906.000000	0.842344
5904.000000	0.842412
5902.000000	0.842256
5900.000000	0.842079
5898.000000	0.842035
5896.000000	0.842137
5894.000000	0.842150
5892.000000	0.842139
5890.000000	0.842244
5888.000000	0.842510
5886.000000	0.842579
5884.000000	0.842370
5882.000000	0.842201
5880.000000	0.842131
5878.000000	0.842183
5876.000000	0.842175
5874.000000	0.842126
5872.000000	0.842218
5870.000000	0.842323
5868.000000	0.842371
5866.000000	0.842351
5864.000000	0.842240
5862.000000	0.842233
5860.000000	0.842248
5858.000000	0.842324
5856.000000	0.842311
5854.000000	0.842262
5852.000000	0.842116
5850.000000	0.842123
5848.000000	0.842176
5846.000000	0.842308
5844.000000	0.842419
5842.000000	0.842457
5840.000000	0.842436
5838.000000	0.842412
5836.000000	0.842399
5834.000000	0.842410
5832.000000	0.842506
5830.000000	0.842624
5828.000000	0.842588
5826.000000	0.842407
5824.000000	0.842304
5822.000000	0.842319
5820.000000	0.842409
5818.000000	0.842449
5816.000000	0.842527
5814.000000	0.842548
5812.000000	0.842620
5810.000000	0.842753
5808.000000	0.842842
5806.000000	0.842756
5804.000000	0.842594
5802.000000	0.842445
5800.000000	0.842382
5798.000000	0.842380
5796.000000	0.842516
5794.000000	0.842766
5792.000000	0.842969
5790.000000	0.842955
5788.000000	0.842805
5786.000000	0.842716
5784.000000	0.842715
5782.000000	0.842705
5780.000000	0.842643
5778.000000	0.842585
5776.000000	0.842634
5774.000000	0.842727
5772.000000	0.842815
5770.000000	0.842857
5768.000000	0.842817
5766.000000	0.842648
5764.000000	0.842650
5762.000000	0.842676
5760.000000	0.842747
5758.000000	0.842764
5756.000000	0.842700
5754.000000	0.842682
5752.000000	0.842659
5750.000000	0.842600
5748.000000	0.842491
5746.000000	0.842391
5744.000000	0.842423
5742.000000	0.842647
5740.000000	0.842754
5738.000000	0.842646
5736.000000	0.842541
5734.000000	0.842523
5732.000000	0.842625
5730.000000	0.842756
5728.000000	0.842810
5726.000000	0.842828
5724.000000	0.842827
5722.000000	0.842849
5720.000000	0.842968
5718.000000	0.843023
5716.000000	0.842943
5714.000000	0.842878
5712.000000	0.842861
5710.000000	0.842904
5708.000000	0.842919
5706.000000	0.842927
5704.000000	0.843082
5702.000000	0.843210
5700.000000	0.843208
5698.000000	0.843157
5696.000000	0.843006
5694.000000	0.842935
5692.000000	0.842966
5690.000000	0.843048
5688.000000	0.843147
5686.000000	0.843127
5684.000000	0.843151
5682.000000	0.843014
5680.000000	0.842905
5678.000000	0.843006
5676.000000	0.843176
5674.000000	0.843327
5672.000000	0.843334
5670.000000	0.843236
5668.000000	0.843200
5666.000000	0.843196
5664.000000	0.843229
5662.000000	0.843099
5660.000000	0.842950
5658.000000	0.842884
5656.000000	0.842909
5654.000000	0.842951
5652.000000	0.843035
5650.000000	0.843139
5648.000000	0.843192
5646.000000	0.843104
5644.000000	0.843053
5642.000000	0.843011
5640.000000	0.843084
5638.000000	0.843215
5636.000000	0.843187
5634.000000	0.843079
5632.000000	0.843008
5630.000000	0.843013
5628.000000	0.843157
5626.000000	0.843272
5624.000000	0.843375
5622.000000	0.843442
5620.000000	0.843337
5618.000000	0.843201
5616.000000	0.843156
5614.000000	0.843236
5612.000000	0.843291
5610.000000	0.843231
5608.000000	0.843065
5606.000000	0.842969
5604.000000	0.842923
5602.000000	0.842961
5600.000000	0.843125
5598.000000	0.843240
5596.000000	0.843210
5594.000000	0.843139
5592.000000	0.843172
5590.000000	0.843296
5588.000000	0.843298
5586.000000	0.843277
5584.000000	0.843244
5582.000000	0.843123
5580.000000	0.843057
5578.000000	0.843111
5576.000000	0.843143
5574.000000	0.843129
5572.000000	0.843102
5570.000000	0.843188
5568.000000	0.843240
5566.000000	0.843127
5564.000000	0.843076
5562.000000	0.843144
5560.000000	0.843239
5558.000000	0.843233
5556.000000	0.843175
5554.000000	0.843187
5552.000000	0.843154
5550.000000	0.843136
5548.000000	0.843274
5546.000000	0.843449
5544.000000	0.843440
5542.000000	0.843329
5540.000000	0.843289
5538.000000	0.843243
5536.000000	0.843243
5534.000000	0.843294
5532.000000	0.843344
5530.000000	0.843295
5528.000000	0.843221
5526.000000	0.843131
5524.000000	0.843115
5522.000000	0.843146
5520.000000	0.843163
5518.000000	0.843109
5516.000000	0.843115
5514.000000	0.843252
5512.000000	0.843390
5510.000000	0.843458
5508.000000	0.843465
5506.000000	0.843419
5504.000000	0.843298
5502.000000	0.843224
5500.000000	0.843215
5498.000000	0.843158
5496.000000	0.843131
5494.000000	0.843110
5492.000000	0.843091
5490.000000	0.843038
5488.000000	0.843000
5486.000000	0.843138
5484.000000	0.843355
5482.000000	0.843437
5480.000000	0.843272
5478.000000	0.843008
5476.000000	0.842959
5474.000000	0.843092
5472.000000	0.843259
5470.000000	0.843247
5468.000000	0.843155
5466.000000	0.843075
5464.000000	0.843074
5462.000000	0.843099
5460.000000	0.843124
5458.000000	0.843178
5456.000000	0.843254
5454.000000	0.843201
5452.000000	0.843019
5450.000000	0.842792
5448.000000	0.842613
5446.000000	0.842649
5444.000000	0.842758
5442.000000	0.842982
5440.000000	0.843089
5438.000000	0.843114
5436.000000	0.843033
5434.000000	0.842881
5432.000000	0.842779
5430.000000	0.842811
5428.000000	0.843025
5426.000000	0.843182
5424.000000	0.843271
5422.000000	0.843281
5420.000000	0.843278
5418.000000	0.843103
5416.000000	0.842880
5414.000000	0.842715
5412.000000	0.842731
5410.000000	0.842991
5408.000000	0.843264
5406.000000	0.843330
5404.000000	0.843153
5402.000000	0.843067
5400.000000	0.843075
5398.000000	0.842971
5396.000000	0.842869
5394.000000	0.842924
5392.000000	0.843145
5390.000000	0.843302
5388.000000	0.843309
5386.000000	0.843289
5384.000000	0.843230
5382.000000	0.843215
5380.000000	0.843133
5378.000000	0.843025
5376.000000	0.842996
5374.000000	0.843021
5372.000000	0.843087
5370.000000	0.843150
5368.000000	0.843163
5366.000000	0.843087
5364.000000	0.843051
5362.000000	0.843106
5360.000000	0.843131
5358.000000	0.842983
5356.000000	0.842838
5354.000000	0.842815
5352.000000	0.842886
5350.000000	0.842870
5348.000000	0.842744
5346.000000	0.842631
5344.000000	0.842682
5342.000000	0.842710
5340.000000	0.842673
5338.000000	0.842722
5336.000000	0.842912
5334.000000	0.843077
5332.000000	0.843128
5330.000000	0.843081
5328.000000	0.843113
5326.000000	0.843201
5324.000000	0.843311
5322.000000	0.843319
5320.000000	0.843258
5318.000000	0.843204
5316.000000	0.843170
5314.000000	0.843174
5312.000000	0.843165
5310.000000	0.843184
5308.000000	0.843170
5306.000000	0.843124
5304.000000	0.843085
5302.000000	0.843089
5300.000000	0.843147
5298.000000	0.843173
5296.000000	0.843224
5294.000000	0.843202
5292.000000	0.843089
5290.000000	0.843024
5288.000000	0.843086
5286.000000	0.843190
5284.000000	0.843241
5282.000000	0.843188
5280.000000	0.843097
5278.000000	0.843067
5276.000000	0.843154
5274.000000	0.843244
5272.000000	0.843219
5270.000000	0.843084
5268.000000	0.842886
5266.000000	0.842740
5264.000000	0.842738
5262.000000	0.842913
5260.000000	0.843101
5258.000000	0.843153
5256.000000	0.843085
5254.000000	0.842975
5252.000000	0.842894
5250.000000	0.842825
5248.000000	0.842800
5246.000000	0.842830
5244.000000	0.842927
5242.000000	0.843042
5240.000000	0.843110
5238.000000	0.843067
5236.000000	0.843053
5234.000000	0.843114
5232.000000	0.843191
5230.000000	0.843132
5228.000000	0.843019
5226.000000	0.842978
5224.000000	0.843040
5222.000000	0.843091
5220.000000	0.843147
5218.000000	0.843166
5216.000000	0.843201
5214.000000	0.843191
5212.000000	0.843091
5210.000000	0.842844
5208.000000	0.842670
5206.000000	0.842810
5204.000000	0.843031
5202.000000	0.843110
5200.000000	0.843012
5198.000000	0.842989
5196.000000	0.843113
5194.000000	0.843216
5192.000000	0.843157
5190.000000	0.842985
5188.000000	0.842973
5186.000000	0.843142
5184.000000	0.843161
5182.000000	0.843030
5180.000000	0.842960
5178.000000	0.843063
5176.000000	0.843107
5174.000000	0.843055
5172.000000	0.843025
5170.000000	0.842998
5168.000000	0.842979
5166.000000	0.842983
5164.000000	0.842924
5162.000000	0.842846
5160.000000	0.842823
5158.000000	0.842821
5156.000000	0.842830
5154.000000	0.842885
5152.000000	0.843013
5150.000000	0.843072
5148.000000	0.843093
5146.000000	0.843105
5144.000000	0.843162
5142.000000	0.843177
5140.000000	0.843115
5138.000000	0.843126
5136.000000	0.843166
5134.000000	0.843129
5132.000000	0.843074
5130.000000	0.843144
5128.000000	0.843275
5126.000000	0.843280
5124.000000	0.843204
5122.000000	0.843136
5120.000000	0.843142
5118.000000	0.843142
5116.000000	0.843118
5114.000000	0.843103
5112.000000	0.843101
5110.000000	0.843101
5108.000000	0.843108
5106.000000	0.843113
5104.000000	0.843126
5102.000000	0.843128
5100.000000	0.843148
5098.000000	0.843210
5096.000000	0.843244
5094.000000	0.843230
5092.000000	0.843186
5090.000000	0.843186
5088.000000	0.843149
5086.000000	0.843125
5084.000000	0.843148
5082.000000	0.843181
5080.000000	0.843201
5078.000000	0.843174
5076.000000	0.843115
5074.000000	0.843039
5072.000000	0.842992
5070.000000	0.843012
5068.000000	0.843031
5066.000000	0.842995
5064.000000	0.842968
5062.000000	0.843081
5060.000000	0.843268
5058.000000	0.843306
5056.000000	0.843239
5054.000000	0.843237
5052.000000	0.843254
5050.000000	0.843190
5048.000000	0.843127
5046.000000	0.843128
5044.000000	0.843166
5042.000000	0.843224
5040.000000	0.843292
5038.000000	0.843271
5036.000000	0.843175
5034.000000	0.843113
5032.000000	0.843146
5030.000000	0.843180
5028.000000	0.843168
5026.000000	0.843192
5024.000000	0.843315
5022.000000	0.843375
5020.000000	0.843322
5018.000000	0.843267
5016.000000	0.843297
5014.000000	0.843344
5012.000000	0.843363
5010.000000	0.843363
5008.000000	0.843323
5006.000000	0.843291
5004.000000	0.843275
5002.000000	0.843285
5000.000000	0.843286
4998.000000	0.843265
4996.000000	0.843206
4994.000000	0.843129
4992.000000	0.843086
4990.000000	0.843088
4988.000000	0.843137
4986.000000	0.843172
4984.000000	0.843188
4982.000000	0.843197
4980.000000	0.843190
4978.000000	0.843139
4976.000000	0.843138
4974.000000	0.843190
4972.000000	0.843228
4970.000000	0.843158
4968.000000	0.843147
4966.000000	0.843235
4964.000000	0.843283
4962.000000	0.843230
4960.000000	0.843233
4958.000000	0.843320
4956.000000	0.843345
4954.000000	0.843249
4952.000000	0.843123
4950.000000	0.843100
4948.000000	0.843158
4946.000000	0.843208
4944.000000	0.843217
4942.000000	0.843196
4940.000000	0.843162
4938.000000	0.843204
4936.000000	0.843320
4934.000000	0.843344
4932.000000	0.843280
4930.000000	0.843241
4928.000000	0.843289
4926.000000	0.843358
4924.000000	0.843341
4922.000000	0.843268
4920.000000	0.843222
4918.000000	0.843229
4916.000000	0.843201
4914.000000	0.843222
4912.000000	0.843217
4910.000000	0.843206
4908.000000	0.843225
4906.000000	0.843275
4904.000000	0.843308
4902.000000	0.843283
4900.000000	0.843223
4898.000000	0.843170
4896.000000	0.843234
4894.000000	0.843282
4892.000000	0.843223
4890.000000	0.843121
4888.000000	0.843094
4886.000000	0.843073
4884.000000	0.843036
4882.000000	0.843057
4880.000000	0.843120
4878.000000	0.843115
4876.000000	0.843148
4874.000000	0.843207
4872.000000	0.843148
4870.000000	0.843069
4868.000000	0.843150
4866.000000	0.843269
4864.000000	0.843251
4862.000000	0.843167
4860.000000	0.843127
4858.000000	0.843152
4856.000000	0.843205
4854.000000	0.843242
4852.000000	0.843200
4850.000000	0.843104
4848.000000	0.843103
4846.000000	0.843218
4844.000000	0.843281
4842.000000	0.843250
4840.000000	0.843231
4838.000000	0.843240
4836.000000	0.843189
4834.000000	0.843154
4832.000000	0.843180
4830.000000	0.843209
4828.000000	0.843281
4826.000000	0.843394
4824.000000	0.843392
4822.000000	0.843245
4820.000000	0.843177
4818.000000	0.843225
4816.000000	0.843241
4814.000000	0.843195
4812.000000	0.843183
4810.000000	0.843210
4808.000000	0.843239
4806.000000	0.843279
4804.000000	0.843305
4802.000000	0.843235
4800.000000	0.843169
4798.000000	0.843218
4796.000000	0.843269
4794.000000	0.843226
4792.000000	0.843157
4790.000000	0.843131
4788.000000	0.843106
4786.000000	0.843132
4784.000000	0.843160
4782.000000	0.843099
4780.000000	0.843049
4778.000000	0.843067
4776.000000	0.843090
4774.000000	0.843054
4772.000000	0.843070
4770.000000	0.843128
4768.000000	0.843167
4766.000000	0.843144
4764.000000	0.843130
4762.000000	0.843132
4760.000000	0.843140
4758.000000	0.843184
4756.000000	0.843268
4754.000000	0.843262
4752.000000	0.843216
4750.000000	0.843211
4748.000000	0.843250
4746.000000	0.843253
4744.000000	0.843220
4742.000000	0.843172
4740.000000	0.843169
4738.000000	0.843214
4736.000000	0.843263
4734.000000	0.843222
4732.000000	0.843156
4730.000000	0.843128
4728.000000	0.843144
4726.000000	0.843190
4724.000000	0.843289
4722.000000	0.843298
4720.000000	0.843197
4718.000000	0.843152
4716.000000	0.843218
4714.000000	0.843260
4712.000000	0.843253
4710.000000	0.843266
4708.000000	0.843298
4706.000000	0.843261
4704.000000	0.843228
4702.000000	0.843248
4700.000000	0.843267
4698.000000	0.843234
4696.000000	0.843211
4694.000000	0.843140
4692.000000	0.843041
4690.000000	0.843008
4688.000000	0.843061
4686.000000	0.843083
4684.000000	0.843008
4682.000000	0.842944
4680.000000	0.842976
4678.000000	0.843036
4676.000000	0.843043
4674.000000	0.843037
4672.000000	0.843027
4670.000000	0.842987
4668.000000	0.842973
4666.000000	0.843052
4664.000000	0.843119
4662.000000	0.843154
4660.000000	0.843204
4658.000000	0.843224
4656.000000	0.843150
4654.000000	0.843099
4652.000000	0.843129
4650.000000	0.843183
4648.000000	0.843204
4646.000000	0.843207
4644.000000	0.843197
4642.000000	0.843134
4640.000000	0.843085
4638.000000	0.843141
4636.000000	0.843184
4634.000000	0.843129
4632.000000	0.843121
4630.000000	0.843206
4628.000000	0.843269
4626.000000	0.843265
4624.000000	0.843233
4622.000000	0.843200
4620.000000	0.843217
4618.000000	0.843276
4616.000000	0.843278
4614.000000	0.843230
4612.000000	0.843250
4610.000000	0.843295
4608.000000	0.843251
4606.000000	0.843178
4604.000000	0.843165
4602.000000	0.843208
4600.000000	0.843260
4598.000000	0.843290
4596.000000	0.843284
4594.000000	0.843236
4592.000000	0.843163
4590.000000	0.843109
4588.000000	0.843078
4586.000000	0.843079
4584.000000	0.843096
4582.000000	0.843061
4580.000000	0.843027
4578.000000	0.843113
4576.000000	0.843200
4574.000000	0.843154
4572.000000	0.843132
4570.000000	0.843201
4568.000000	0.843227
4566.000000	0.843206
4564.000000	0.843245
4562.000000	0.843262
4560.000000	0.843236
4558.000000	0.843220
4556.000000	0.843265
4554.000000	0.843323
4552.000000	0.843338
4550.000000	0.843302
4548.000000	0.843302
4546.000000	0.843347
4544.000000	0.843364
4542.000000	0.843341
4540.000000	0.843317
4538.000000	0.843270
4536.000000	0.843243
4534.000000	0.843325
4532.000000	0.843412
4530.000000	0.843373
4528.000000	0.843286
4526.000000	0.843326
4524.000000	0.843424
4522.000000	0.843448
4520.000000	0.843445
4518.000000	0.843481
4516.000000	0.843472
4514.000000	0.843375
4512.000000	0.843310
4510.000000	0.843354
4508.000000	0.843425
4506.000000	0.843427
4504.000000	0.843416
4502.000000	0.843429
4500.000000	0.843470
4498.000000	0.843470
4496.000000	0.843383
4494.000000	0.843294
4492.000000	0.843301
4490.000000	0.843332
4488.000000	0.843374
4486.000000	0.843414
4484.000000	0.843430
4482.000000	0.843407
4480.000000	0.843364
4478.000000	0.843364
4476.000000	0.843418
4474.000000	0.843438
4472.000000	0.843417
4470.000000	0.843407
4468.000000	0.843423
4466.000000	0.843447
4464.000000	0.843443
4462.000000	0.843443
4460.000000	0.843486
4458.000000	0.843519
4456.000000	0.843533
4454.000000	0.843552
4452.000000	0.843564
4450.000000	0.843580
4448.000000	0.843605
4446.000000	0.843588
4444.000000	0.843556
4442.000000	0.843593
4440.000000	0.843635
4438.000000	0.843650
4436.000000	0.843671
4434.000000	0.843654
4432.000000	0.843580
4430.000000	0.843591
4428.000000	0.843643
4426.000000	0.843621
4424.000000	0.843589
4422.000000	0.843606
4420.000000	0.843627
4418.000000	0.843623
4416.000000	0.843576
4414.000000	0.843566
4412.000000	0.843629
4410.000000	0.843658
4408.000000	0.843631
4406.000000	0.843637
4404.000000	0.843619
4402.000000	0.843567
4400.000000	0.843577
4398.000000	0.843616
4396.000000	0.843604
4394.000000	0.843600
4392.000000	0.843607
4390.000000	0.843596
4388.000000	0.843602
4386.000000	0.843599
4384.000000	0.843607
4382.000000	0.843653
4380.000000	0.843699
4378.000000	0.843719
4376.000000	0.843718
4374.000000	0.843716
4372.000000	0.843757
4370.000000	0.843791
4368.000000	0.843783
4366.000000	0.843779
4364.000000	0.843808
4362.000000	0.843853
4360.000000	0.843849
4358.000000	0.843826
4356.000000	0.843867
4354.000000	0.843914
4352.000000	0.843902
4350.000000	0.843869
4348.000000	0.843862
4346.000000	0.843884
4344.000000	0.843886
4342.000000	0.843845
4340.000000	0.843827
4338.000000	0.843841
4336.000000	0.843865
4334.000000	0.843882
4332.000000	0.843899
4330.000000	0.843908
4328.000000	0.843902
4326.000000	0.843918
4324.000000	0.843954
4322.000000	0.843933
4320.000000	0.843873
4318.000000	0.843857
4316.000000	0.843940
4314.000000	0.844023
4312.000000	0.844010
4310.000000	0.843937
4308.000000	0.843854
4306.000000	0.843793
4304.000000	0.843816
4302.000000	0.843863
4300.000000	0.843861
4298.000000	0.843837
4296.000000	0.843867
4294.000000	0.843937
4292.000000	0.843946
4290.000000	0.843889
4288.000000	0.843867
4286.000000	0.843892
4284.000000	0.843942
4282.000000	0.843983
4280.000000	0.843975
4278.000000	0.843958
4276.000000	0.843975
4274.000000	0.843984
4272.000000	0.843980
4270.000000	0.844024
4268.000000	0.844080
4266.000000	0.844094
4264.000000	0.844079
4262.000000	0.844045
4260.000000	0.844013
4258.000000	0.844091
4256.000000	0.844206
4254.000000	0.844194
4252.000000	0.844120
4250.000000	0.844143
4248.000000	0.844170
4246.000000	0.844114
4244.000000	0.844094
4242.000000	0.844137
4240.000000	0.844168
4238.000000	0.844196
4236.000000	0.844231
4234.000000	0.844231
4232.000000	0.844199
4230.000000	0.844197
4228.000000	0.844219
4226.000000	0.844212
4224.000000	0.844192
4222.000000	0.844166
4220.000000	0.844153
4218.000000	0.844209
4216.000000	0.844258
4214.000000	0.844244
4212.000000	0.844226
4210.000000	0.844214
4208.000000	0.844186
4206.000000	0.844139
4204.000000	0.844093
4202.000000	0.844113
4200.000000	0.844143
4198.000000	0.844126
4196.000000	0.844125
4194.000000	0.844151
4192.000000	0.844157
4190.000000	0.844153
4188.000000	0.844190
4186.000000	0.844259
4184.000000	0.844264
4182.000000	0.844182
4180.000000	0.844133
4178.000000	0.844163
4176.000000	0.844193
4174.000000	0.844169
4172.000000	0.844155
4170.000000	0.844209
4168.000000	0.844307
4166.000000	0.844378
4164.000000	0.844379
4162.000000	0.844355
4160.000000	0.844401
4158.000000	0.844441
4156.000000	0.844374
4154.000000	0.844299
4152.000000	0.844317
4150.000000	0.844350
4148.000000	0.844315
4146.000000	0.844279
4144.000000	0.844300
4142.000000	0.844305
4140.000000	0.844262
4138.000000	0.844229
4136.000000	0.844231
4134.000000	0.844251
4132.000000	0.844259
4130.000000	0.844278
4128.000000	0.844318
4126.000000	0.844334
4124.000000	0.844337
4122.000000	0.844377
4120.000000	0.844382
4118.000000	0.844312
4116.000000	0.844294
4114.000000	0.844341
4112.000000	0.844310
4110.000000	0.844250
4108.000000	0.844213
4106.000000	0.844192
4104.000000	0.844240
4102.000000	0.844305
4100.000000	0.844302
4098.000000	0.844284
4096.000000	0.844274
4094.000000	0.844259
4092.000000	0.844253
4090.000000	0.844270
4088.000000	0.844268
4086.000000	0.844253
4084.000000	0.844251
4082.000000	0.844222
4080.000000	0.844225
4078.000000	0.844310
4076.000000	0.844340
4074.000000	0.844314
4072.000000	0.844321
4070.000000	0.844340
4068.000000	0.844362
4066.000000	0.844391
4064.000000	0.844374
4062.000000	0.844354
4060.000000	0.844370
4058.000000	0.844373
4056.000000	0.844371
4054.000000	0.844379
4052.000000	0.844389
4050.000000	0.844375
4048.000000	0.844304
4046.000000	0.844263
4044.000000	0.844280
4042.000000	0.844299
4040.000000	0.844368
4038.000000	0.844435
4036.000000	0.844395
4034.000000	0.844304
4032.000000	0.844261
4030.000000	0.844298
4028.000000	0.844332
4026.000000	0.844323
4024.000000	0.844322
4022.000000	0.844323
4020.000000	0.844323
4018.000000	0.844313
4016.000000	0.844275
4014.000000	0.844251
4012.000000	0.844227
4010.000000	0.844184
4008.000000	0.844181
4006.000000	0.844206
4004.000000	0.844193
4002.000000	0.844172
4000.000000	0.844185
3998.000000	0.844204
3996.000000	0.844183
3994.000000	0.844164
3992.000000	0.844187
3990.000000	0.844234
3988.000000	0.844249
3986.000000	0.844214
3984.000000	0.844212
3982.000000	0.844239
3980.000000	0.844202
3978.000000	0.844129
3976.000000	0.844112
3974.000000	0.844144
3972.000000	0.844189
3970.000000	0.844241
3968.000000	0.844244
3966.000000	0.844187
3964.000000	0.844125
3962.000000	0.844068
3960.000000	0.844042
3958.000000	0.844069
3956.000000	0.844071
3954.000000	0.844016
3952.000000	0.843925
3950.000000	0.843808
3948.000000	0.843783
3946.000000	0.843766
3944.000000	0.843660
3942.000000	0.843733
3940.000000	0.843952
3938.000000	0.844039
3936.000000	0.843898
3934.000000	0.843614
3932.000000	0.843517
3930.000000	0.843687
3928.000000	0.843744
3926.000000	0.843603
3924.000000	0.843551
3922.000000	0.843486
3920.000000	0.843180
3918.000000	0.843008
3916.000000	0.843334
3914.000000	0.843768
3912.000000	0.843928
3910.000000	0.843837
3908.000000	0.843258
3906.000000	0.842192
3904.000000	0.841348
3902.000000	0.841223
3900.000000	0.841818
3898.000000	0.842763
3896.000000	0.843250
3894.000000	0.842861
3892.000000	0.842454
3890.000000	0.842545
3888.000000	0.842223
3886.000000	0.841844
3884.000000	0.842159
3882.000000	0.842400
3880.000000	0.842662
3878.000000	0.843043
3876.000000	0.842895
3874.000000	0.842269
3872.000000	0.841331
3870.000000	0.840982
3868.000000	0.841487
3866.000000	0.841755
3864.000000	0.841972
3862.000000	0.842563
3860.000000	0.842887
3858.000000	0.841595
3856.000000	0.838282
3854.000000	0.836344
3852.000000	0.838419
3850.000000	0.841584
3848.000000	0.843050
3846.000000	0.843027
3844.000000	0.842468
3842.000000	0.841572
3840.000000	0.840220
3838.000000	0.839685
3836.000000	0.840645
3834.000000	0.841729
3832.000000	0.842359
3830.000000	0.842828
3828.000000	0.842976
3826.000000	0.842704
3824.000000	0.841708
3822.000000	0.840733
3820.000000	0.840631
3818.000000	0.840355
3816.000000	0.840529
3814.000000	0.842026
3812.000000	0.843042
3810.000000	0.842478
3808.000000	0.841467
3806.000000	0.841220
3804.000000	0.840628
3802.000000	0.839977
3800.000000	0.840857
3798.000000	0.842056
3796.000000	0.842730
3794.000000	0.843267
3792.000000	0.843544
3790.000000	0.843560
3788.000000	0.843405
3786.000000	0.843249
3784.000000	0.843201
3782.000000	0.842994
3780.000000	0.842785
3778.000000	0.843040
3776.000000	0.843393
3774.000000	0.843237
3772.000000	0.842562
3770.000000	0.842136
3768.000000	0.842250
3766.000000	0.842504
3764.000000	0.842672
3762.000000	0.842430
3760.000000	0.842046
3758.000000	0.842034
3756.000000	0.841466
3754.000000	0.839432
3752.000000	0.837453
3750.000000	0.837470
3748.000000	0.837891
3746.000000	0.837016
3744.000000	0.837669
3742.000000	0.840202
3740.000000	0.841075
3738.000000	0.839977
3736.000000	0.839100
3734.000000	0.839346
3732.000000	0.840360
3730.000000	0.841445
3728.000000	0.841716
3726.000000	0.841570
3724.000000	0.841565
3722.000000	0.841729
3720.000000	0.842039
3718.000000	0.842248
3716.000000	0.841779
3714.000000	0.840411
3712.000000	0.839597
3710.000000	0.840684
3708.000000	0.842527
3706.000000	0.843158
3704.000000	0.842513
3702.000000	0.842014
3700.000000	0.842212
3698.000000	0.842482
3696.000000	0.842425
3694.000000	0.841805
3692.000000	0.840312
3690.000000	0.838842
3688.000000	0.839267
3686.000000	0.840994
3684.000000	0.841900
3682.000000	0.841745
3680.000000	0.840790
3678.000000	0.838884
3676.000000	0.837664
3674.000000	0.838089
3672.000000	0.838257
3670.000000	0.838633
3668.000000	0.840140
3666.000000	0.841371
3664.000000	0.841768
3662.000000	0.841710
3660.000000	0.841164
3658.000000	0.840242
3656.000000	0.839926
3654.000000	0.839786
3652.000000	0.838401
3650.000000	0.837072
3648.000000	0.837763
3646.000000	0.839546
3644.000000	0.840663
3642.000000	0.840965
3640.000000	0.840999
3638.000000	0.840899
3636.000000	0.840646
3634.000000	0.840142
3632.000000	0.838703
3630.000000	0.837124
3628.000000	0.837670
3626.000000	0.839380
3624.000000	0.839986
3622.000000	0.839341
3620.000000	0.838642
3618.000000	0.838794
3616.000000	0.839106
3614.000000	0.838947
3612.000000	0.838611
3610.000000	0.838421
3608.000000	0.838783
3606.000000	0.839474
3604.000000	0.839825
3602.000000	0.839966
3600.000000	0.840221
3598.000000	0.840220
3596.000000	0.839903
3594.000000	0.839739
3592.000000	0.839539
3590.000000	0.838894
3588.000000	0.838467
3586.000000	0.838916
3584.000000	0.839599
3582.000000	0.839896
3580.000000	0.839917
3578.000000	0.839886
3576.000000	0.839890
3574.000000	0.839934
3572.000000	0.839728
3570.000000	0.839061
3568.000000	0.838524
3566.000000	0.838782
3564.000000	0.839395
3562.000000	0.839722
3560.000000	0.839840
3558.000000	0.839951
3556.000000	0.839988
3554.000000	0.839923
3552.000000	0.839877
3550.000000	0.839851
3548.000000	0.839702
3546.000000	0.839637
3544.000000	0.839896
3542.000000	0.840217
3540.000000	0.840323
3538.000000	0.840289
3536.000000	0.840319
3534.000000	0.840411
3532.000000	0.840410
3530.000000	0.840346
3528.000000	0.840339
3526.000000	0.840371
3524.000000	0.840447
3522.000000	0.840641
3520.000000	0.840828
3518.000000	0.840949
3516.000000	0.841053
3514.000000	0.841091
3512.000000	0.841083
3510.000000	0.841174
3508.000000	0.841335
3506.000000	0.841387
3504.000000	0.841412
3502.000000	0.841609
3500.000000	0.841861
3498.000000	0.842019
3496.000000	0.842158
3494.000000	0.842383
3492.000000	0.842617
3490.000000	0.842750
3488.000000	0.842847
3486.000000	0.842987
3484.000000	0.843133
3482.000000	0.843293
3480.000000	0.843520
3478.000000	0.843755
3476.000000	0.843954
3474.000000	0.844168
3472.000000	0.844345
3470.000000	0.844516
3468.000000	0.844806
3466.000000	0.845126
3464.000000	0.845372
3462.000000	0.845632
3460.000000	0.845932
3458.000000	0.846201
3456.000000	0.846472
3454.000000	0.846772
3452.000000	0.847061
3450.000000	0.847254
3448.000000	0.847404
3446.000000	0.847724
3444.000000	0.848097
3442.000000	0.848416
3440.000000	0.848767
3438.000000	0.849108
3436.000000	0.849387
3434.000000	0.849661
3432.000000	0.849983
3430.000000	0.850330
3428.000000	0.850648
3426.000000	0.850922
3424.000000	0.851174
3422.000000	0.851392
3420.000000	0.851654
3418.000000	0.852010
3416.000000	0.852334
3414.000000	0.852580
3412.000000	0.852810
3410.000000	0.853006
3408.000000	0.853222
3406.000000	0.853441
3404.000000	0.853583
3402.000000	0.853707
3400.000000	0.853874
3398.000000	0.854062
3396.000000	0.854239
3394.000000	0.854360
3392.000000	0.854506
3390.000000	0.854722
3388.000000	0.854924
3386.000000	0.855045
3384.000000	0.855124
3382.000000	0.855256
3380.000000	0.855415
3378.000000	0.855516
3376.000000	0.855571
3374.000000	0.855649
3372.000000	0.855722
3370.000000	0.855764
3368.000000	0.855873
3366.000000	0.856060
3364.000000	0.856220
3362.000000	0.856311
3360.000000	0.856384
3358.000000	0.856494
3356.000000	0.856592
3354.000000	0.856636
3352.000000	0.856649
3350.000000	0.856709
3348.000000	0.856836
3346.000000	0.856915
3344.000000	0.856944
3342.000000	0.856964
3340.000000	0.856992
3338.000000	0.857054
3336.000000	0.857142
3334.000000	0.857212
3332.000000	0.857255
3330.000000	0.857312
3328.000000	0.857388
3326.000000	0.857421
3324.000000	0.857462
3322.000000	0.857591
3320.000000	0.857718
3318.000000	0.857778
3316.000000	0.857816
3314.000000	0.857837
3312.000000	0.857887
3310.000000	0.857961
3308.000000	0.857977
3306.000000	0.858029
3304.000000	0.858212
3302.000000	0.858380
3300.000000	0.858441
3298.000000	0.858444
3296.000000	0.858460
3294.000000	0.858529
3292.000000	0.858600
3290.000000	0.858669
3288.000000	0.858762
3286.000000	0.858841
3284.000000	0.858890
3282.000000	0.858907
3280.000000	0.858913
3278.000000	0.858969
3276.000000	0.859043
3274.000000	0.859100
3272.000000	0.859136
3270.000000	0.859217
3268.000000	0.859319
3266.000000	0.859361
3264.000000	0.859389
3262.000000	0.859432
3260.000000	0.859477
3258.000000	0.859511
3256.000000	0.859538
3254.000000	0.859600
3252.000000	0.859660
3250.000000	0.859695
3248.000000	0.859733
3246.000000	0.859788
3244.000000	0.859832
3242.000000	0.859853
3240.000000	0.859923
3238.000000	0.859976
3236.000000	0.859980
3234.000000	0.860019
3232.000000	0.860133
3230.000000	0.860217
3228.000000	0.860248
3226.000000	0.860341
3224.000000	0.860474
3222.000000	0.860498
3220.000000	0.860484
3218.000000	0.860551
3216.000000	0.860631
3214.000000	0.860644
3212.000000	0.860660
3210.000000	0.860695
3208.000000	0.860700
3206.000000	0.860725
3204.000000	0.860745
3202.000000	0.860717
3200.000000	0.860702
3198.000000	0.860726
3196.000000	0.860740
3194.000000	0.860717
3192.000000	0.860709
3190.000000	0.860718
3188.000000	0.860716
3186.000000	0.860723
3184.000000	0.860770
3182.000000	0.860786
3180.000000	0.860755
3178.000000	0.860744
3176.000000	0.860756
3174.000000	0.860741
3172.000000	0.860719
3170.000000	0.860706
3168.000000	0.860731
3166.000000	0.860801
3164.000000	0.860804
3162.000000	0.860769
3160.000000	0.860761
3158.000000	0.860808
3156.000000	0.860828
3154.000000	0.860791
3152.000000	0.860787
3150.000000	0.860819
3148.000000	0.860877
3146.000000	0.860927
3144.000000	0.860914
3142.000000	0.860911
3140.000000	0.860899
3138.000000	0.860885
3136.000000	0.860907
3134.000000	0.860921
3132.000000	0.860909
3130.000000	0.860943
3128.000000	0.861010
3126.000000	0.861054
3124.000000	0.861056
3122.000000	0.861034
3120.000000	0.861011
3118.000000	0.861017
3116.000000	0.861065
3114.000000	0.861133
3112.000000	0.861138
3110.000000	0.861070
3108.000000	0.861034
3106.000000	0.861030
3104.000000	0.861026
3102.000000	0.860983
3100.000000	0.860953
3098.000000	0.860954
3096.000000	0.860927
3094.000000	0.860884
3092.000000	0.860875
3090.000000	0.860870
3088.000000	0.860834
3086.000000	0.860731
3084.000000	0.860631
3082.000000	0.860583
3080.000000	0.860511
3078.000000	0.860441
3076.000000	0.860393
3074.000000	0.860323
3072.000000	0.860238
3070.000000	0.860149
3068.000000	0.860055
3066.000000	0.859984
3064.000000	0.859899
3062.000000	0.859811
3060.000000	0.859757
3058.000000	0.859657
3056.000000	0.859554
3054.000000	0.859507
3052.000000	0.859474
3050.000000	0.859388
3048.000000	0.859318
3046.000000	0.859288
3044.000000	0.859228
3042.000000	0.859129
3040.000000	0.859090
3038.000000	0.859053
3036.000000	0.858950
3034.000000	0.858866
3032.000000	0.858835
3030.000000	0.858795
3028.000000	0.858743
3026.000000	0.858699
3024.000000	0.858646
3022.000000	0.858618
3020.000000	0.858571
3018.000000	0.858498
3016.000000	0.858432
3014.000000	0.858364
3012.000000	0.858301
3010.000000	0.858277
3008.000000	0.858262
3006.000000	0.858217
3004.000000	0.858153
3002.000000	0.858098
3000.000000	0.858044
2998.000000	0.857970
2996.000000	0.857911
2994.000000	0.857857
2992.000000	0.857836
2990.000000	0.857857
2988.000000	0.857847
2986.000000	0.857804
2984.000000	0.857788
2982.000000	0.857770
2980.000000	0.857753
2978.000000	0.857787
2976.000000	0.857845
2974.000000	0.857852
2972.000000	0.857917
2970.000000	0.858081
2968.000000	0.858255
2966.000000	0.858388
2964.000000	0.858499
2962.000000	0.858565
2960.000000	0.858460
2958.000000	0.858209
2956.000000	0.857975
2954.000000	0.857772
2952.000000	0.857575
2950.000000	0.857371
2948.000000	0.857182
2946.000000	0.857065
2944.000000	0.857006
2942.000000	0.856932
2940.000000	0.856841
2938.000000	0.856768
2936.000000	0.856742
2934.000000	0.856761
2932.000000	0.856743
2930.000000	0.856728
2928.000000	0.856782
2926.000000	0.856841
2924.000000	0.856884
2922.000000	0.856916
2920.000000	0.856916
2918.000000	0.856908
2916.000000	0.856899
2914.000000	0.856829
2912.000000	0.856761
2910.000000	0.856743
2908.000000	0.856722
2906.000000	0.856664
2904.000000	0.856609
2902.000000	0.856575
2900.000000	0.856530
2898.000000	0.856459
2896.000000	0.856420
2894.000000	0.856369
2892.000000	0.856309
2890.000000	0.856287
2888.000000	0.856244
2886.000000	0.856194
2884.000000	0.856116
2882.000000	0.856021
2880.000000	0.856005
2878.000000	0.855979
2876.000000	0.855893
2874.000000	0.855829
2872.000000	0.855806
2870.000000	0.855765
2868.000000	0.855696
2866.000000	0.855646
2864.000000	0.855672
2862.000000	0.855704
2860.000000	0.855683
2858.000000	0.855669
2856.000000	0.855693
2854.000000	0.855692
2852.000000	0.855704
2850.000000	0.855737
2848.000000	0.855743
2846.000000	0.855717
2844.000000	0.855668
2842.000000	0.855640
2840.000000	0.855611
2838.000000	0.855580
2836.000000	0.855574
2834.000000	0.855553
2832.000000	0.855541
2830.000000	0.855520
2828.000000	0.855485
2826.000000	0.855490
2824.000000	0.855496
2822.000000	0.855473
2820.000000	0.855455
2818.000000	0.855457
2816.000000	0.855423
2814.000000	0.855378
2812.000000	0.855349
2810.000000	0.855316
2808.000000	0.855296
2806.000000	0.855304
2804.000000	0.855318
2802.000000	0.855307
2800.000000	0.855304
2798.000000	0.855290
2796.000000	0.855254
2794.000000	0.855239
2792.000000	0.855219
2790.000000	0.855167
2788.000000	0.855149
2786.000000	0.855167
2784.000000	0.855173
2782.000000	0.855147
2780.000000	0.855143
2778.000000	0.855158
2776.000000	0.855147
2774.000000	0.855149
2772.000000	0.855166
2770.000000	0.855149
2768.000000	0.855088
2766.000000	0.855040
2764.000000	0.855029
2762.000000	0.855026
2760.000000	0.855035
2758.000000	0.855056
2756.000000	0.855075
2754.000000	0.855059
2752.000000	0.855029
2750.000000	0.855033
2748.000000	0.855056
2746.000000	0.855062
2744.000000	0.855089
2742.000000	0.855145
2740.000000	0.855200
2738.000000	0.855204
2736.000000	0.855181
2734.000000	0.855184
2732.000000	0.855193
2730.000000	0.855198
2728.000000	0.855229
2726.000000	0.855245
2724.000000	0.855260
2722.000000	0.855300
2720.000000	0.855361
2718.000000	0.855400
2716.000000	0.855423
2714.000000	0.855460
2712.000000	0.855478
2710.000000	0.855473
2708.000000	0.855508
2706.000000	0.855566
2704.000000	0.855653
2702.000000	0.855725
2700.000000	0.855759
2698.000000	0.855796
2696.000000	0.855846
2694.000000	0.855876
2692.000000	0.855911
2690.000000	0.855951
2688.000000	0.856014
2686.000000	0.856090
2684.000000	0.856134
2682.000000	0.856175
2680.000000	0.856219
2678.000000	0.856232
2676.000000	0.856241
2674.000000	0.856283
2672.000000	0.856359
2670.000000	0.856422
2668.000000	0.856441
2666.000000	0.856453
2664.000000	0.856482
2662.000000	0.856525
2660.000000	0.856596
2658.000000	0.856677
2656.000000	0.856723
2654.000000	0.856746
2652.000000	0.856790
2650.000000	0.856840
2648.000000	0.856880
2646.000000	0.856896
2644.000000	0.856932
2642.000000	0.856993
2640.000000	0.857049
2638.000000	0.857056
2636.000000	0.857085
2634.000000	0.857128
2632.000000	0.857167
2630.000000	0.857191
2628.000000	0.857224
2626.000000	0.857269
2624.000000	0.857289
2622.000000	0.857284
2620.000000	0.857302
2618.000000	0.857331
2616.000000	0.857365
2614.000000	0.857394
2612.000000	0.857429
2610.000000	0.857476
2608.000000	0.857519
2606.000000	0.857542
2604.000000	0.857560
2602.000000	0.857596
2600.000000	0.857660
2598.000000	0.857703
2596.000000	0.857736
2594.000000	0.857751
2592.000000	0.857754
2590.000000	0.857791
2588.000000	0.857841
2586.000000	0.857889
2584.000000	0.857910
2582.000000	0.857896
2580.000000	0.857901
2578.000000	0.857901
2576.000000	0.857906
2574.000000	0.857918
2572.000000	0.857906
2570.000000	0.857938
2568.000000	0.858013
2566.000000	0.858032
2564.000000	0.858010
2562.000000	0.857992
2560.000000	0.858008
2558.000000	0.858047
2556.000000	0.858083
2554.000000	0.858134
2552.000000	0.858155
2550.000000	0.858158
2548.000000	0.858182
2546.000000	0.858204
2544.000000	0.858203
2542.000000	0.858195
2540.000000	0.858215
2538.000000	0.858229
2536.000000	0.858254
2534.000000	0.858244
2532.000000	0.858219
2530.000000	0.858240
2528.000000	0.858262
2526.000000	0.858235
2524.000000	0.858213
2522.000000	0.858227
2520.000000	0.858251
2518.000000	0.858253
2516.000000	0.858272
2514.000000	0.858316
2512.000000	0.858351
2510.000000	0.858349
2508.000000	0.858315
2506.000000	0.858314
2504.000000	0.858311
2502.000000	0.858298
2500.000000	0.858308
2498.000000	0.858283
2496.000000	0.858289
2494.000000	0.858317
2492.000000	0.858302
2490.000000	0.858275
2488.000000	0.858273
2486.000000	0.858250
2484.000000	0.858243
2482.000000	0.858285
2480.000000	0.858332
2478.000000	0.858329
2476.000000	0.858314
2474.000000	0.858302
2472.000000	0.858300
2470.000000	0.858294
2468.000000	0.858309
2466.000000	0.858360
2464.000000	0.858425
2462.000000	0.858446
2460.000000	0.858423
2458.000000	0.858403
2456.000000	0.858432
2454.000000	0.858438
2452.000000	0.858408
2450.000000	0.858406
2448.000000	0.858443
2446.000000	0.858451
2444.000000	0.858436
2442.000000	0.858401
2440.000000	0.858352
2438.000000	0.858332
2436.000000	0.858335
2434.000000	0.858320
2432.000000	0.858273
2430.000000	0.858215
2428.000000	0.858206
2426.000000	0.858160
2424.000000	0.858098
2422.000000	0.858087
2420.000000	0.858061
2418.000000	0.858019
2416.000000	0.857979
2414.000000	0.857945
2412.000000	0.857877
2410.000000	0.857792
2408.000000	0.857750
2406.000000	0.857697
2404.000000	0.857637
2402.000000	0.857560
2400.000000	0.857474
2398.000000	0.857373
2396.000000	0.857280
2394.000000	0.857193
2392.000000	0.857106
2390.000000	0.856982
2388.000000	0.856851
2386.000000	0.856761
2384.000000	0.856883
2382.000000	0.857588
2380.000000	0.858903
2378.000000	0.860097
2376.000000	0.860762
2374.000000	0.861072
2372.000000	0.861167
2370.000000	0.861133
2368.000000	0.861046
2366.000000	0.860972
2364.000000	0.861038
2362.000000	0.861307
2360.000000	0.861720
2358.000000	0.862148
2356.000000	0.862563
2354.000000	0.863013
2352.000000	0.863520
2350.000000	0.863969
2348.000000	0.864243
2346.000000	0.864430
2344.000000	0.864714
2342.000000	0.865069
2340.000000	0.865226
2338.000000	0.864842
2336.000000	0.864143
2334.000000	0.863571
2332.000000	0.863208
2330.000000	0.862939
2328.000000	0.862754
2326.000000	0.862609
2324.000000	0.862468
2322.000000	0.862352
2320.000000	0.862248
2318.000000	0.862156
2316.000000	0.862110
2314.000000	0.862082
2312.000000	0.862051
2310.000000	0.862009
2308.000000	0.861972
2306.000000	0.861949
2304.000000	0.861953
2302.000000	0.861934
2300.000000	0.861879
2298.000000	0.861837
2296.000000	0.861818
2294.000000	0.861759
2292.000000	0.861719
2290.000000	0.861707
2288.000000	0.861679
2286.000000	0.861670
2284.000000	0.861873
2282.000000	0.862119
2280.000000	0.862077
2278.000000	0.861913
2276.000000	0.861855
2274.000000	0.861811
2272.000000	0.861735
2270.000000	0.861678
2268.000000	0.861654
2266.000000	0.861635
2264.000000	0.861600
2262.000000	0.861563
2260.000000	0.861544
2258.000000	0.861510
2256.000000	0.861446
2254.000000	0.861406
2252.000000	0.861400
2250.000000	0.861384
2248.000000	0.861387
2246.000000	0.861347
2244.000000	0.861310
2242.000000	0.861273
2240.000000	0.861233
2238.000000	0.861205
2236.000000	0.861177
2234.000000	0.861153
2232.000000	0.861127
2230.000000	0.861096
2228.000000	0.861094
2226.000000	0.861072
2224.000000	0.861055
2222.000000	0.861019
2220.000000	0.860984
2218.000000	0.860966
2216.000000	0.860952
2214.000000	0.860906
2212.000000	0.860877
2210.000000	0.860822
2208.000000	0.860769
2206.000000	0.860731
2204.000000	0.860706
2202.000000	0.860682
2200.000000	0.860652
2198.000000	0.860644
2196.000000	0.860618
2194.000000	0.860549
2192.000000	0.860513
2190.000000	0.860499
2188.000000	0.860499
2186.000000	0.860490
2184.000000	0.860457
2182.000000	0.860409
2180.000000	0.860389
2178.000000	0.860374
2176.000000	0.860349
2174.000000	0.860287
2172.000000	0.860212
2170.000000	0.860187
2168.000000	0.860190
2166.000000	0.860151
2164.000000	0.860096
2162.000000	0.860073
2160.000000	0.860082
2158.000000	0.860056
2156.000000	0.860016
2154.000000	0.859962
2152.000000	0.859926
2150.000000	0.859881
2148.000000	0.859843
2146.000000	0.859833
2144.000000	0.859798
2142.000000	0.859709
2140.000000	0.859676
2138.000000	0.859665
2136.000000	0.859631
2134.000000	0.859579
2132.000000	0.859575
2130.000000	0.859553
2128.000000	0.859495
2126.000000	0.859477
2124.000000	0.859445
2122.000000	0.859375
2120.000000	0.859332
2118.000000	0.859314
2116.000000	0.859302
2114.000000	0.859301
2112.000000	0.859281
2110.000000	0.859237
2108.000000	0.859204
2106.000000	0.859152
2104.000000	0.859124
2102.000000	0.859101
2100.000000	0.859047
2098.000000	0.859003
2096.000000	0.858980
2094.000000	0.858945
2092.000000	0.858915
2090.000000	0.858883
2088.000000	0.858873
2086.000000	0.858862
2084.000000	0.858865
2082.000000	0.858854
2080.000000	0.858782
2078.000000	0.858703
2076.000000	0.858685
2074.000000	0.858656
2072.000000	0.858615
2070.000000	0.858563
2068.000000	0.858533
2066.000000	0.858471
2064.000000	0.858439
2062.000000	0.858429
2060.000000	0.858410
2058.000000	0.858365
2056.000000	0.858330
2054.000000	0.858300
2052.000000	0.858261
2050.000000	0.858210
2048.000000	0.858154
2046.000000	0.858122
2044.000000	0.858104
2042.000000	0.858013
2040.000000	0.857953
2038.000000	0.857945
2036.000000	0.857943
2034.000000	0.857888
2032.000000	0.857807
2030.000000	0.857770
2028.000000	0.857757
2026.000000	0.857692
2024.000000	0.857623
2022.000000	0.857576
2020.000000	0.857501
2018.000000	0.857393
2016.000000	0.857372
2014.000000	0.857421
2012.000000	0.857402
2010.000000	0.857289
2008.000000	0.857218
2006.000000	0.857199
2004.000000	0.857183
2002.000000	0.857152
2000.000000	0.857119
1998.000000	0.857078
1996.000000	0.857060
1994.000000	0.856877
1992.000000	0.856692
1990.000000	0.856749
1988.000000	0.856819
1986.000000	0.856856
1984.000000	0.856853
1982.000000	0.856786
1980.000000	0.856750
1978.000000	0.856736
1976.000000	0.856734
1974.000000	0.856702
1972.000000	0.856655
1970.000000	0.856568
1968.000000	0.856446
1966.000000	0.856439
1964.000000	0.856503
1962.000000	0.856489
1960.000000	0.856522
1958.000000	0.856565
1956.000000	0.856534
1954.000000	0.856488
1952.000000	0.856484
1950.000000	0.856481
1948.000000	0.856425
1946.000000	0.856292
1944.000000	0.856088
1942.000000	0.856074
1940.000000	0.856324
1938.000000	0.856421
1936.000000	0.856450
1934.000000	0.856455
1932.000000	0.856458
1930.000000	0.856439
1928.000000	0.856438
1926.000000	0.856357
1924.000000	0.856178
1922.000000	0.856105
1920.000000	0.855873
1918.000000	0.855636
1916.000000	0.856037
1914.000000	0.856311
1912.000000	0.856299
1910.000000	0.856228
1908.000000	0.856289
1906.000000	0.856375
1904.000000	0.856414
1902.000000	0.856393
1900.000000	0.856395
1898.000000	0.856319
1896.000000	0.856204
1894.000000	0.856196
1892.000000	0.856099
1890.000000	0.855848
1888.000000	0.856036
1886.000000	0.856212
1884.000000	0.856206
1882.000000	0.856206
1880.000000	0.856208
1878.000000	0.856153
1876.000000	0.856116
1874.000000	0.856042
1872.000000	0.855657
1870.000000	0.854883
1868.000000	0.854901
1866.000000	0.855553
1864.000000	0.855889
1862.000000	0.855879
1860.000000	0.855826
1858.000000	0.855804
1856.000000	0.855838
1854.000000	0.855793
1852.000000	0.855739
1850.000000	0.855610
1848.000000	0.855297
1846.000000	0.854238
1844.000000	0.853710
1842.000000	0.854822
1840.000000	0.855551
1838.000000	0.855560
1836.000000	0.855557
1834.000000	0.855467
1832.000000	0.854870
1830.000000	0.854380
1828.000000	0.854718
1826.000000	0.854754
1824.000000	0.855013
1822.000000	0.855537
1820.000000	0.855695
1818.000000	0.855615
1816.000000	0.855652
1814.000000	0.855646
1812.000000	0.855405
1810.000000	0.855360
1808.000000	0.855601
1806.000000	0.855696
1804.000000	0.855468
1802.000000	0.854986
1800.000000	0.854911
1798.000000	0.855208
1796.000000	0.855130
1794.000000	0.853985
1792.000000	0.853555
1790.000000	0.854757
1788.000000	0.855496
1786.000000	0.855264
1784.000000	0.855260
1782.000000	0.855351
1780.000000	0.855436
1778.000000	0.855621
1776.000000	0.855123
1774.000000	0.853367
1772.000000	0.852715
1770.000000	0.853905
1768.000000	0.854722
1766.000000	0.855546
1764.000000	0.855350
1762.000000	0.854768
1760.000000	0.855250
1758.000000	0.855395
1756.000000	0.855488
1754.000000	0.855299
1752.000000	0.853956
1750.000000	0.853929
1748.000000	0.854941
1746.000000	0.855553
1744.000000	0.855629
1742.000000	0.855211
1740.000000	0.854827
1738.000000	0.855113
1736.000000	0.853028
1734.000000	0.851219
1732.000000	0.853828
1730.000000	0.855941
1728.000000	0.856669
1726.000000	0.856915
1724.000000	0.856879
1722.000000	0.856581
1720.000000	0.854521
1718.000000	0.851826
1716.000000	0.852816
1714.000000	0.855300
1712.000000	0.856727
1710.000000	0.856902
1708.000000	0.856383
1706.000000	0.855664
1704.000000	0.855336
1702.000000	0.852541
1700.000000	0.850768
1698.000000	0.851860
1696.000000	0.852001
1694.000000	0.854896
1692.000000	0.857079
1690.000000	0.857069
1688.000000	0.856061
1686.000000	0.852456
1684.000000	0.851359
1682.000000	0.854949
1680.000000	0.857035
1678.000000	0.856833
1676.000000	0.855397
1674.000000	0.855726
1672.000000	0.856039
1670.000000	0.855298
1668.000000	0.856352
1666.000000	0.857540
1664.000000	0.856944
1662.000000	0.856918
1660.000000	0.857871
1658.000000	0.857835
1656.000000	0.854719
1654.000000	0.848988
1652.000000	0.850286
1650.000000	0.855194
1648.000000	0.854921
1646.000000	0.854655
1644.000000	0.856930
1642.000000	0.858229
1640.000000	0.857980
1638.000000	0.855979
1636.000000	0.853792
1634.000000	0.855619
1632.000000	0.857957
1630.000000	0.858023
1628.000000	0.857572
1626.000000	0.857239
1624.000000	0.856613
1622.000000	0.857133
1620.000000	0.857300
1618.000000	0.855010
1616.000000	0.854835
1614.000000	0.857426
1612.000000	0.858387
1610.000000	0.858346
1608.000000	0.858376
1606.000000	0.858533
1604.000000	0.858534
1602.000000	0.858571
1600.000000	0.858679
1598.000000	0.858698
1596.000000	0.858590
1594.000000	0.858581
1592.000000	0.858672
1590.000000	0.858744
1588.000000	0.858776
1586.000000	0.858781
1584.000000	0.858808
1582.000000	0.858817
1580.000000	0.858332
1578.000000	0.855881
1576.000000	0.854465
1574.000000	0.856936
1572.000000	0.857614
1570.000000	0.856624
1568.000000	0.857355
1566.000000	0.858169
1564.000000	0.857933
1562.000000	0.854971
1560.000000	0.849665
1558.000000	0.850358
1556.000000	0.854427
1554.000000	0.856308
1552.000000	0.857536
1550.000000	0.858008
1548.000000	0.858090
1546.000000	0.857023
1544.000000	0.855118
1542.000000	0.852196
1540.000000	0.850625
1538.000000	0.854160
1536.000000	0.857018
1534.000000	0.856563
1532.000000	0.857334
1530.000000	0.858053
1528.000000	0.857356
1526.000000	0.856490
1524.000000	0.855363
1522.000000	0.853456
1520.000000	0.854325
1518.000000	0.855918
1516.000000	0.856728
1514.000000	0.857506
1512.000000	0.857417
1510.000000	0.855992
1508.000000	0.852283
1506.000000	0.851763
1504.000000	0.856012
1502.000000	0.858168
1500.000000	0.857434
1498.000000	0.855964
1496.000000	0.856044
1494.000000	0.857764
1492.000000	0.857589
1490.000000	0.856691
1488.000000	0.857112
1486.000000	0.858009
1484.000000	0.858633
1482.000000	0.858625
1480.000000	0.858557
1478.000000	0.857907
1476.000000	0.856637
1474.000000	0.854988
1472.000000	0.855181
1470.000000	0.857394
1468.000000	0.858127
1466.000000	0.857120
1464.000000	0.857081
1462.000000	0.857781
1460.000000	0.856181
1458.000000	0.852774
1456.000000	0.853278
1454.000000	0.856679
1452.000000	0.857927
1450.000000	0.857835
1448.000000	0.857457
1446.000000	0.857817
1444.000000	0.858127
1442.000000	0.858150
1440.000000	0.857511
1438.000000	0.855532
1436.000000	0.855184
1434.000000	0.856966
1432.000000	0.857280
1430.000000	0.857122
1428.000000	0.857405
1426.000000	0.857443
1424.000000	0.857097
1422.000000	0.856346
1420.000000	0.854609
1418.000000	0.855161
1416.000000	0.856856
1414.000000	0.857445
1412.000000	0.857411
1410.000000	0.857413
1408.000000	0.857267
1406.000000	0.856887
1404.000000	0.856854
1402.000000	0.856913
1400.000000	0.856261
1398.000000	0.856001
1396.000000	0.855636
1394.000000	0.855709
1392.000000	0.856522
1390.000000	0.856420
1388.000000	0.855652
1386.000000	0.855963
1384.000000	0.856612
1382.000000	0.856674
1380.000000	0.856548
1378.000000	0.856402
1376.000000	0.856026
1374.000000	0.855792
1372.000000	0.856050
1370.000000	0.856148
1368.000000	0.856145
1366.000000	0.856054
1364.000000	0.855502
1362.000000	0.855287
1360.000000	0.855647
1358.000000	0.855892
1356.000000	0.855843
1354.000000	0.855811
1352.000000	0.855844
1350.000000	0.855802
1348.000000	0.855808
1346.000000	0.855883
1344.000000	0.855774
1342.000000	0.855435
1340.000000	0.855111
1338.000000	0.855228
1336.000000	0.855483
1334.000000	0.855660
1332.000000	0.855682
1330.000000	0.855655
1328.000000	0.855617
1326.000000	0.855607
1324.000000	0.855583
1322.000000	0.855517
1320.000000	0.855377
1318.000000	0.855285
1316.000000	0.855298
1314.000000	0.855326
1312.000000	0.855369
1310.000000	0.855445
1308.000000	0.855445
1306.000000	0.855437
1304.000000	0.855439
1302.000000	0.855473
1300.000000	0.855470
1298.000000	0.855413
1296.000000	0.855360
1294.000000	0.855332
1292.000000	0.855319
1290.000000	0.855348
1288.000000	0.855325
1286.000000	0.855311
1284.000000	0.855268
1282.000000	0.855257
1280.000000	0.855348
1278.000000	0.855505
1276.000000	0.855597
1274.000000	0.855671
1272.000000	0.855820
1270.000000	0.856235
1268.000000	0.856944
1266.000000	0.857905
1264.000000	0.859020
1262.000000	0.860009
1260.000000	0.860449
1258.000000	0.860236
1256.000000	0.859425
1254.000000	0.858400
1252.000000	0.857644
1250.000000	0.857266
1248.000000	0.857022
1246.000000	0.856894
1244.000000	0.856857
1242.000000	0.856872
1240.000000	0.856856
1238.000000	0.856876
1236.000000	0.856903
1234.000000	0.856926
1232.000000	0.856892
1230.000000	0.856899
1228.000000	0.857019
1226.000000	0.857077
1224.000000	0.857053
1222.000000	0.857088
1220.000000	0.857093
1218.000000	0.857029
1216.000000	0.856948
1214.000000	0.856999
1212.000000	0.857070
1210.000000	0.857094
1208.000000	0.857125
1206.000000	0.857143
1204.000000	0.857130
1202.000000	0.857155
1200.000000	0.857257
1198.000000	0.857392
1196.000000	0.857539
1194.000000	0.857768
1192.000000	0.857925
1190.000000	0.858068
1188.000000	0.858163
1186.000000	0.858245
1184.000000	0.858377
1182.000000	0.858623
1180.000000	0.858872
1178.000000	0.859037
1176.000000	0.859149
1174.000000	0.859317
1172.000000	0.859510
1170.000000	0.859708
1168.000000	0.859870
1166.000000	0.860019
1164.000000	0.860139
1162.000000	0.860201
1160.000000	0.860316
1158.000000	0.860506
1156.000000	0.860560
1154.000000	0.860578
1152.000000	0.860680
1150.000000	0.860760
1148.000000	0.860756
1146.000000	0.860804
1144.000000	0.860906
1142.000000	0.860943
1140.000000	0.860846
1138.000000	0.860892
1136.000000	0.861030
1134.000000	0.861007
1132.000000	0.860951
1130.000000	0.861028
1128.000000	0.861084
1126.000000	0.861170
1124.000000	0.861225
1122.000000	0.861306
1120.000000	0.861396
1118.000000	0.861639
1116.000000	0.861842
1114.000000	0.861905
1112.000000	0.862080
1110.000000	0.862285
1108.000000	0.862481
1106.000000	0.862697
1104.000000	0.862827
1102.000000	0.863013
1100.000000	0.863159
1098.000000	0.863324
1096.000000	0.863449
1094.000000	0.863531
1092.000000	0.863417
1090.000000	0.863238
1088.000000	0.863032
1086.000000	0.862988
1084.000000	0.862903
1082.000000	0.862584
1080.000000	0.862252
1078.000000	0.861869
1076.000000	0.861644
1074.000000	0.861500
1072.000000	0.861154
1070.000000	0.860683
1068.000000	0.860427
1066.000000	0.860173
1064.000000	0.859801
1062.000000	0.859534
1060.000000	0.859169
1058.000000	0.858537
1056.000000	0.858090
1054.000000	0.857826
1052.000000	0.857442
1050.000000	0.857213
1048.000000	0.856954
1046.000000	0.856695
1044.000000	0.856338
1042.000000	0.855694
1040.000000	0.855119
1038.000000	0.854650
1036.000000	0.854394
1034.000000	0.854104
1032.000000	0.853534
1030.000000	0.853159
1028.000000	0.853106
1026.000000	0.853034
1024.000000	0.852557
1022.000000	0.852385
1020.000000	0.852563
1018.000000	0.852278
1016.000000	0.851383
1014.000000	0.850554
1012.000000	0.849590
1010.000000	0.848572
1008.000000	0.847744
1006.000000	0.847109
1004.000000	0.846249
1002.000000	0.845463
1000.000000	0.845200
