PE IR       SUBTECH     SPECTRUM    ASCII       PEDS        4.00        
   -1
TE110A_008_80K.ASC
20/05/14
11:46:44.00
20/05/14
11:46:44.00
Administrator
TE108A.Thursday, May 14 2020, 003.
1000.000000
#HDR
-1
-1
#GR
cm-1
A
1.0
0.0
6000.000000
-2.000000
2501
8
0.863510
0.834409
#DATA
6000.000000	0.841061
5998.000000	0.840989
5996.000000	0.840894
5994.000000	0.841000
5992.000000	0.841046
5990.000000	0.841179
5988.000000	0.841284
5986.000000	0.841420
5984.000000	0.841443
5982.000000	0.841200
5980.000000	0.841058
5978.000000	0.841048
5976.000000	0.841029
5974.000000	0.841061
5972.000000	0.841017
5970.000000	0.840972
5968.000000	0.841031
5966.000000	0.841052
5964.000000	0.841170
5962.000000	0.841193
5960.000000	0.841158
5958.000000	0.841202
5956.000000	0.841307
5954.000000	0.841431
5952.000000	0.841554
5950.000000	0.841570
5948.000000	0.841448
5946.000000	0.841349
5944.000000	0.841280
5942.000000	0.841212
5940.000000	0.841115
5938.000000	0.841027
5936.000000	0.841111
5934.000000	0.841167
5932.000000	0.841061
5930.000000	0.841021
5928.000000	0.841261
5926.000000	0.841491
5924.000000	0.841706
5922.000000	0.841695
5920.000000	0.841707
5918.000000	0.841682
5916.000000	0.841622
5914.000000	0.841565
5912.000000	0.841470
5910.000000	0.841325
5908.000000	0.841283
5906.000000	0.841305
5904.000000	0.841328
5902.000000	0.841359
5900.000000	0.841517
5898.000000	0.841634
5896.000000	0.841651
5894.000000	0.841638
5892.000000	0.841629
5890.000000	0.841600
5888.000000	0.841487
5886.000000	0.841354
5884.000000	0.841389
5882.000000	0.841604
5880.000000	0.841743
5878.000000	0.841780
5876.000000	0.841743
5874.000000	0.841715
5872.000000	0.841748
5870.000000	0.841751
5868.000000	0.841645
5866.000000	0.841510
5864.000000	0.841504
5862.000000	0.841580
5860.000000	0.841670
5858.000000	0.841518
5856.000000	0.841332
5854.000000	0.841475
5852.000000	0.841652
5850.000000	0.841688
5848.000000	0.841565
5846.000000	0.841580
5844.000000	0.841644
5842.000000	0.841577
5840.000000	0.841476
5838.000000	0.841453
5836.000000	0.841514
5834.000000	0.841491
5832.000000	0.841605
5830.000000	0.841934
5828.000000	0.842134
5826.000000	0.842106
5824.000000	0.841873
5822.000000	0.841763
5820.000000	0.841886
5818.000000	0.842056
5816.000000	0.842090
5814.000000	0.841967
5812.000000	0.841929
5810.000000	0.841970
5808.000000	0.842016
5806.000000	0.841922
5804.000000	0.841922
5802.000000	0.842052
5800.000000	0.842140
5798.000000	0.842102
5796.000000	0.841968
5794.000000	0.841916
5792.000000	0.841959
5790.000000	0.842051
5788.000000	0.842064
5786.000000	0.842051
5784.000000	0.842085
5782.000000	0.842055
5780.000000	0.842006
5778.000000	0.841885
5776.000000	0.841918
5774.000000	0.841901
5772.000000	0.841839
5770.000000	0.841690
5768.000000	0.841686
5766.000000	0.841918
5764.000000	0.842117
5762.000000	0.842252
5760.000000	0.842227
5758.000000	0.842162
5756.000000	0.842112
5754.000000	0.841929
5752.000000	0.841818
5750.000000	0.841759
5748.000000	0.841884
5746.000000	0.842008
5744.000000	0.842054
5742.000000	0.841998
5740.000000	0.841936
5738.000000	0.842008
5736.000000	0.842131
5734.000000	0.842130
5732.000000	0.842104
5730.000000	0.842079
5728.000000	0.842148
5726.000000	0.842244
5724.000000	0.842264
5722.000000	0.842232
5720.000000	0.842142
5718.000000	0.842140
5716.000000	0.842252
5714.000000	0.842301
5712.000000	0.842284
5710.000000	0.842342
5708.000000	0.842466
5706.000000	0.842433
5704.000000	0.842283
5702.000000	0.842287
5700.000000	0.842444
5698.000000	0.842501
5696.000000	0.842367
5694.000000	0.842201
5692.000000	0.842336
5690.000000	0.842522
5688.000000	0.842523
5686.000000	0.842392
5684.000000	0.842285
5682.000000	0.842336
5680.000000	0.842383
5678.000000	0.842351
5676.000000	0.842355
5674.000000	0.842292
5672.000000	0.842211
5670.000000	0.842170
5668.000000	0.842147
5666.000000	0.842223
5664.000000	0.842308
5662.000000	0.842446
5660.000000	0.842527
5658.000000	0.842573
5656.000000	0.842367
5654.000000	0.842190
5652.000000	0.841997
5650.000000	0.842004
5648.000000	0.842192
5646.000000	0.842390
5644.000000	0.842605
5642.000000	0.842669
5640.000000	0.842636
5638.000000	0.842522
5636.000000	0.842390
5634.000000	0.842260
5632.000000	0.842159
5630.000000	0.842224
5628.000000	0.842478
5626.000000	0.842633
5624.000000	0.842615
5622.000000	0.842495
5620.000000	0.842468
5618.000000	0.842427
5616.000000	0.842384
5614.000000	0.842409
5612.000000	0.842507
5610.000000	0.842523
5608.000000	0.842500
5606.000000	0.842523
5604.000000	0.842542
5602.000000	0.842577
5600.000000	0.842522
5598.000000	0.842450
5596.000000	0.842476
5594.000000	0.842507
5592.000000	0.842536
5590.000000	0.842500
5588.000000	0.842506
5586.000000	0.842579
5584.000000	0.842674
5582.000000	0.842656
5580.000000	0.842528
5578.000000	0.842429
5576.000000	0.842397
5574.000000	0.842374
5572.000000	0.842355
5570.000000	0.842385
5568.000000	0.842541
5566.000000	0.842608
5564.000000	0.842641
5562.000000	0.842616
5560.000000	0.842559
5558.000000	0.842409
5556.000000	0.842319
5554.000000	0.842307
5552.000000	0.842332
5550.000000	0.842374
5548.000000	0.842449
5546.000000	0.842539
5544.000000	0.842570
5542.000000	0.842549
5540.000000	0.842511
5538.000000	0.842514
5536.000000	0.842539
5534.000000	0.842527
5532.000000	0.842439
5530.000000	0.842406
5528.000000	0.842451
5526.000000	0.842452
5524.000000	0.842445
5522.000000	0.842571
5520.000000	0.842675
5518.000000	0.842587
5516.000000	0.842498
5514.000000	0.842549
5512.000000	0.842644
5510.000000	0.842567
5508.000000	0.842513
5506.000000	0.842519
5504.000000	0.842540
5502.000000	0.842502
5500.000000	0.842468
5498.000000	0.842406
5496.000000	0.842258
5494.000000	0.842221
5492.000000	0.842288
5490.000000	0.842290
5488.000000	0.842231
5486.000000	0.842312
5484.000000	0.842507
5482.000000	0.842554
5480.000000	0.842414
5478.000000	0.842268
5476.000000	0.842236
5474.000000	0.842250
5472.000000	0.842337
5470.000000	0.842379
5468.000000	0.842366
5466.000000	0.842236
5464.000000	0.842053
5462.000000	0.842003
5460.000000	0.842128
5458.000000	0.842280
5456.000000	0.842322
5454.000000	0.842296
5452.000000	0.842250
5450.000000	0.842181
5448.000000	0.842068
5446.000000	0.841999
5444.000000	0.842067
5442.000000	0.842222
5440.000000	0.842298
5438.000000	0.842208
5436.000000	0.842149
5434.000000	0.842134
5432.000000	0.842080
5430.000000	0.842059
5428.000000	0.842224
5426.000000	0.842517
5424.000000	0.842677
5422.000000	0.842693
5420.000000	0.842659
5418.000000	0.842481
5416.000000	0.842245
5414.000000	0.842116
5412.000000	0.842120
5410.000000	0.842141
5408.000000	0.842232
5406.000000	0.842441
5404.000000	0.842634
5402.000000	0.842646
5400.000000	0.842510
5398.000000	0.842278
5396.000000	0.842083
5394.000000	0.842105
5392.000000	0.842314
5390.000000	0.842467
5388.000000	0.842433
5386.000000	0.842297
5384.000000	0.842298
5382.000000	0.842332
5380.000000	0.842318
5378.000000	0.842268
5376.000000	0.842255
5374.000000	0.842281
5372.000000	0.842268
5370.000000	0.842295
5368.000000	0.842377
5366.000000	0.842438
5364.000000	0.842454
5362.000000	0.842413
5360.000000	0.842377
5358.000000	0.842297
5356.000000	0.842171
5354.000000	0.842013
5352.000000	0.841946
5350.000000	0.841983
5348.000000	0.841953
5346.000000	0.841906
5344.000000	0.841955
5342.000000	0.842012
5340.000000	0.841919
5338.000000	0.841832
5336.000000	0.842000
5334.000000	0.842248
5332.000000	0.842331
5330.000000	0.842252
5328.000000	0.842179
5326.000000	0.842298
5324.000000	0.842517
5322.000000	0.842611
5320.000000	0.842471
5318.000000	0.842321
5316.000000	0.842353
5314.000000	0.842546
5312.000000	0.842634
5310.000000	0.842497
5308.000000	0.842348
5306.000000	0.842301
5304.000000	0.842343
5302.000000	0.842333
5300.000000	0.842401
5298.000000	0.842504
5296.000000	0.842536
5294.000000	0.842402
5292.000000	0.842293
5290.000000	0.842326
5288.000000	0.842384
5286.000000	0.842325
5284.000000	0.842267
5282.000000	0.842348
5280.000000	0.842419
5278.000000	0.842387
5276.000000	0.842348
5274.000000	0.842312
5272.000000	0.842294
5270.000000	0.842245
5268.000000	0.842095
5266.000000	0.841867
5264.000000	0.841722
5262.000000	0.841799
5260.000000	0.841996
5258.000000	0.842099
5256.000000	0.842083
5254.000000	0.842064
5252.000000	0.842061
5250.000000	0.841992
5248.000000	0.841896
5246.000000	0.841914
5244.000000	0.842092
5242.000000	0.842287
5240.000000	0.842445
5238.000000	0.842477
5236.000000	0.842394
5234.000000	0.842310
5232.000000	0.842289
5230.000000	0.842161
5228.000000	0.842031
5226.000000	0.842062
5224.000000	0.842281
5222.000000	0.842461
5220.000000	0.842482
5218.000000	0.842416
5216.000000	0.842388
5214.000000	0.842425
5212.000000	0.842364
5210.000000	0.842122
5208.000000	0.841968
5206.000000	0.842080
5204.000000	0.842301
5202.000000	0.842356
5200.000000	0.842281
5198.000000	0.842189
5196.000000	0.842235
5194.000000	0.842362
5192.000000	0.842472
5190.000000	0.842449
5188.000000	0.842307
5186.000000	0.842191
5184.000000	0.842200
5182.000000	0.842267
5180.000000	0.842302
5178.000000	0.842362
5176.000000	0.842396
5174.000000	0.842307
5172.000000	0.842201
5170.000000	0.842208
5168.000000	0.842302
5166.000000	0.842314
5164.000000	0.842287
5162.000000	0.842226
5160.000000	0.842181
5158.000000	0.842212
5156.000000	0.842297
5154.000000	0.842346
5152.000000	0.842391
5150.000000	0.842436
5148.000000	0.842422
5146.000000	0.842329
5144.000000	0.842286
5142.000000	0.842307
5140.000000	0.842330
5138.000000	0.842345
5136.000000	0.842361
5134.000000	0.842377
5132.000000	0.842356
5130.000000	0.842390
5128.000000	0.842462
5126.000000	0.842436
5124.000000	0.842348
5122.000000	0.842334
5120.000000	0.842362
5118.000000	0.842296
5116.000000	0.842271
5114.000000	0.842347
5112.000000	0.842416
5110.000000	0.842396
5108.000000	0.842395
5106.000000	0.842420
5104.000000	0.842424
5102.000000	0.842410
5100.000000	0.842425
5098.000000	0.842488
5096.000000	0.842485
5094.000000	0.842439
5092.000000	0.842365
5090.000000	0.842334
5088.000000	0.842309
5086.000000	0.842279
5084.000000	0.842284
5082.000000	0.842338
5080.000000	0.842431
5078.000000	0.842465
5076.000000	0.842435
5074.000000	0.842397
5072.000000	0.842390
5070.000000	0.842392
5068.000000	0.842316
5066.000000	0.842278
5064.000000	0.842293
5062.000000	0.842340
5060.000000	0.842318
5058.000000	0.842306
5056.000000	0.842330
5054.000000	0.842402
5052.000000	0.842459
5050.000000	0.842408
5048.000000	0.842386
5046.000000	0.842418
5044.000000	0.842432
5042.000000	0.842389
5040.000000	0.842417
5038.000000	0.842499
5036.000000	0.842499
5034.000000	0.842480
5032.000000	0.842533
5030.000000	0.842613
5028.000000	0.842577
5026.000000	0.842481
5024.000000	0.842416
5022.000000	0.842467
5020.000000	0.842609
5018.000000	0.842730
5016.000000	0.842753
5014.000000	0.842691
5012.000000	0.842651
5010.000000	0.842657
5008.000000	0.842688
5006.000000	0.842639
5004.000000	0.842447
5002.000000	0.842322
5000.000000	0.842400
4998.000000	0.842555
4996.000000	0.842620
4994.000000	0.842574
4992.000000	0.842477
4990.000000	0.842379
4988.000000	0.842365
4986.000000	0.842394
4984.000000	0.842413
4982.000000	0.842410
4980.000000	0.842397
4978.000000	0.842380
4976.000000	0.842389
4974.000000	0.842395
4972.000000	0.842380
4970.000000	0.842337
4968.000000	0.842364
4966.000000	0.842450
4964.000000	0.842491
4962.000000	0.842487
4960.000000	0.842513
4958.000000	0.842548
4956.000000	0.842497
4954.000000	0.842416
4952.000000	0.842389
4950.000000	0.842442
4948.000000	0.842515
4946.000000	0.842549
4944.000000	0.842555
4942.000000	0.842558
4940.000000	0.842547
4938.000000	0.842517
4936.000000	0.842511
4934.000000	0.842547
4932.000000	0.842576
4930.000000	0.842502
4928.000000	0.842385
4926.000000	0.842345
4924.000000	0.842368
4922.000000	0.842393
4920.000000	0.842430
4918.000000	0.842458
4916.000000	0.842467
4914.000000	0.842473
4912.000000	0.842500
4910.000000	0.842497
4908.000000	0.842454
4906.000000	0.842384
4904.000000	0.842334
4902.000000	0.842360
4900.000000	0.842425
4898.000000	0.842450
4896.000000	0.842418
4894.000000	0.842355
4892.000000	0.842330
4890.000000	0.842358
4888.000000	0.842447
4886.000000	0.842524
4884.000000	0.842468
4882.000000	0.842364
4880.000000	0.842332
4878.000000	0.842362
4876.000000	0.842366
4874.000000	0.842377
4872.000000	0.842449
4870.000000	0.842495
4868.000000	0.842488
4866.000000	0.842462
4864.000000	0.842509
4862.000000	0.842536
4860.000000	0.842473
4858.000000	0.842414
4856.000000	0.842416
4854.000000	0.842388
4852.000000	0.842321
4850.000000	0.842309
4848.000000	0.842370
4846.000000	0.842470
4844.000000	0.842573
4842.000000	0.842631
4840.000000	0.842586
4838.000000	0.842500
4836.000000	0.842475
4834.000000	0.842526
4832.000000	0.842561
4830.000000	0.842514
4828.000000	0.842435
4826.000000	0.842393
4824.000000	0.842442
4822.000000	0.842481
4820.000000	0.842479
4818.000000	0.842498
4816.000000	0.842573
4814.000000	0.842594
4812.000000	0.842526
4810.000000	0.842521
4808.000000	0.842566
4806.000000	0.842523
4804.000000	0.842398
4802.000000	0.842376
4800.000000	0.842417
4798.000000	0.842414
4796.000000	0.842407
4794.000000	0.842430
4792.000000	0.842410
4790.000000	0.842353
4788.000000	0.842338
4786.000000	0.842386
4784.000000	0.842393
4782.000000	0.842317
4780.000000	0.842300
4778.000000	0.842349
4776.000000	0.842357
4774.000000	0.842320
4772.000000	0.842324
4770.000000	0.842335
4768.000000	0.842358
4766.000000	0.842387
4764.000000	0.842421
4762.000000	0.842444
4760.000000	0.842431
4758.000000	0.842409
4756.000000	0.842408
4754.000000	0.842451
4752.000000	0.842473
4750.000000	0.842467
4748.000000	0.842438
4746.000000	0.842426
4744.000000	0.842446
4742.000000	0.842480
4740.000000	0.842482
4738.000000	0.842446
4736.000000	0.842455
4734.000000	0.842478
4732.000000	0.842473
4730.000000	0.842430
4728.000000	0.842429
4726.000000	0.842433
4724.000000	0.842426
4722.000000	0.842419
4720.000000	0.842460
4718.000000	0.842472
4716.000000	0.842460
4714.000000	0.842443
4712.000000	0.842429
4710.000000	0.842419
4708.000000	0.842420
4706.000000	0.842384
4704.000000	0.842355
4702.000000	0.842363
4700.000000	0.842391
4698.000000	0.842416
4696.000000	0.842430
4694.000000	0.842437
4692.000000	0.842433
4690.000000	0.842400
4688.000000	0.842353
4686.000000	0.842340
4684.000000	0.842335
4682.000000	0.842300
4680.000000	0.842261
4678.000000	0.842243
4676.000000	0.842253
4674.000000	0.842330
4672.000000	0.842410
4670.000000	0.842389
4668.000000	0.842317
4666.000000	0.842334
4664.000000	0.842381
4662.000000	0.842354
4660.000000	0.842310
4658.000000	0.842364
4656.000000	0.842437
4654.000000	0.842451
4652.000000	0.842447
4650.000000	0.842447
4648.000000	0.842423
4646.000000	0.842415
4644.000000	0.842458
4642.000000	0.842466
4640.000000	0.842427
4638.000000	0.842395
4636.000000	0.842413
4634.000000	0.842402
4632.000000	0.842392
4630.000000	0.842394
4628.000000	0.842409
4626.000000	0.842414
4624.000000	0.842400
4622.000000	0.842390
4620.000000	0.842440
4618.000000	0.842499
4616.000000	0.842472
4614.000000	0.842421
4612.000000	0.842421
4610.000000	0.842429
4608.000000	0.842430
4606.000000	0.842440
4604.000000	0.842396
4602.000000	0.842332
4600.000000	0.842397
4598.000000	0.842485
4596.000000	0.842440
4594.000000	0.842415
4592.000000	0.842487
4590.000000	0.842483
4588.000000	0.842411
4586.000000	0.842371
4584.000000	0.842328
4582.000000	0.842271
4580.000000	0.842280
4578.000000	0.842372
4576.000000	0.842475
4574.000000	0.842490
4572.000000	0.842476
4570.000000	0.842497
4568.000000	0.842499
4566.000000	0.842492
4564.000000	0.842497
4562.000000	0.842468
4560.000000	0.842430
4558.000000	0.842449
4556.000000	0.842523
4554.000000	0.842628
4552.000000	0.842703
4550.000000	0.842684
4548.000000	0.842555
4546.000000	0.842440
4544.000000	0.842460
4542.000000	0.842557
4540.000000	0.842595
4538.000000	0.842565
4536.000000	0.842577
4534.000000	0.842636
4532.000000	0.842654
4530.000000	0.842606
4528.000000	0.842579
4526.000000	0.842591
4524.000000	0.842594
4522.000000	0.842599
4520.000000	0.842572
4518.000000	0.842528
4516.000000	0.842529
4514.000000	0.842569
4512.000000	0.842568
4510.000000	0.842570
4508.000000	0.842607
4506.000000	0.842635
4504.000000	0.842635
4502.000000	0.842621
4500.000000	0.842595
4498.000000	0.842594
4496.000000	0.842629
4494.000000	0.842654
4492.000000	0.842628
4490.000000	0.842602
4488.000000	0.842571
4486.000000	0.842566
4484.000000	0.842582
4482.000000	0.842615
4480.000000	0.842639
4478.000000	0.842641
4476.000000	0.842641
4474.000000	0.842680
4472.000000	0.842703
4470.000000	0.842714
4468.000000	0.842766
4466.000000	0.842800
4464.000000	0.842749
4462.000000	0.842719
4460.000000	0.842759
4458.000000	0.842811
4456.000000	0.842825
4454.000000	0.842798
4452.000000	0.842776
4450.000000	0.842806
4448.000000	0.842862
4446.000000	0.842903
4444.000000	0.842933
4442.000000	0.842942
4440.000000	0.842914
4438.000000	0.842849
4436.000000	0.842794
4434.000000	0.842760
4432.000000	0.842768
4430.000000	0.842817
4428.000000	0.842841
4426.000000	0.842846
4424.000000	0.842880
4422.000000	0.842892
4420.000000	0.842871
4418.000000	0.842832
4416.000000	0.842831
4414.000000	0.842928
4412.000000	0.842995
4410.000000	0.842951
4408.000000	0.842893
4406.000000	0.842852
4404.000000	0.842830
4402.000000	0.842835
4400.000000	0.842848
4398.000000	0.842847
4396.000000	0.842843
4394.000000	0.842846
4392.000000	0.842832
4390.000000	0.842784
4388.000000	0.842801
4386.000000	0.842916
4384.000000	0.843009
4382.000000	0.843015
4380.000000	0.842979
4378.000000	0.842926
4376.000000	0.842907
4374.000000	0.842913
4372.000000	0.842907
4370.000000	0.842935
4368.000000	0.843015
4366.000000	0.843059
4364.000000	0.843108
4362.000000	0.843130
4360.000000	0.843077
4358.000000	0.843028
4356.000000	0.843045
4354.000000	0.843055
4352.000000	0.843072
4350.000000	0.843112
4348.000000	0.843178
4346.000000	0.843219
4344.000000	0.843195
4342.000000	0.843142
4340.000000	0.843134
4338.000000	0.843143
4336.000000	0.843118
4334.000000	0.843103
4332.000000	0.843158
4330.000000	0.843178
4328.000000	0.843107
4326.000000	0.843079
4324.000000	0.843130
4322.000000	0.843151
4320.000000	0.843146
4318.000000	0.843184
4316.000000	0.843236
4314.000000	0.843208
4312.000000	0.843151
4310.000000	0.843155
4308.000000	0.843165
4306.000000	0.843178
4304.000000	0.843220
4302.000000	0.843211
4300.000000	0.843151
4298.000000	0.843143
4296.000000	0.843177
4294.000000	0.843189
4292.000000	0.843171
4290.000000	0.843185
4288.000000	0.843217
4286.000000	0.843203
4284.000000	0.843167
4282.000000	0.843149
4280.000000	0.843164
4278.000000	0.843241
4276.000000	0.843315
4274.000000	0.843333
4272.000000	0.843327
4270.000000	0.843304
4268.000000	0.843285
4266.000000	0.843303
4264.000000	0.843326
4262.000000	0.843318
4260.000000	0.843298
4258.000000	0.843324
4256.000000	0.843396
4254.000000	0.843455
4252.000000	0.843440
4250.000000	0.843386
4248.000000	0.843357
4246.000000	0.843358
4244.000000	0.843352
4242.000000	0.843360
4240.000000	0.843368
4238.000000	0.843369
4236.000000	0.843377
4234.000000	0.843398
4232.000000	0.843418
4230.000000	0.843416
4228.000000	0.843393
4226.000000	0.843390
4224.000000	0.843435
4222.000000	0.843511
4220.000000	0.843510
4218.000000	0.843448
4216.000000	0.843423
4214.000000	0.843420
4212.000000	0.843427
4210.000000	0.843468
4208.000000	0.843455
4206.000000	0.843383
4204.000000	0.843347
4202.000000	0.843354
4200.000000	0.843362
4198.000000	0.843389
4196.000000	0.843380
4194.000000	0.843355
4192.000000	0.843371
4190.000000	0.843372
4188.000000	0.843348
4186.000000	0.843370
4184.000000	0.843403
4182.000000	0.843421
4180.000000	0.843440
4178.000000	0.843464
4176.000000	0.843483
4174.000000	0.843502
4172.000000	0.843523
4170.000000	0.843539
4168.000000	0.843533
4166.000000	0.843534
4164.000000	0.843554
4162.000000	0.843561
4160.000000	0.843549
4158.000000	0.843574
4156.000000	0.843610
4154.000000	0.843608
4152.000000	0.843602
4150.000000	0.843606
4148.000000	0.843563
4146.000000	0.843536
4144.000000	0.843571
4142.000000	0.843570
4140.000000	0.843521
4138.000000	0.843508
4136.000000	0.843540
4134.000000	0.843560
4132.000000	0.843532
4130.000000	0.843512
4128.000000	0.843543
4126.000000	0.843552
4124.000000	0.843530
4122.000000	0.843569
4120.000000	0.843632
4118.000000	0.843600
4116.000000	0.843540
4114.000000	0.843549
4112.000000	0.843571
4110.000000	0.843546
4108.000000	0.843492
4106.000000	0.843444
4104.000000	0.843427
4102.000000	0.843456
4100.000000	0.843496
4098.000000	0.843494
4096.000000	0.843495
4094.000000	0.843544
4092.000000	0.843578
4090.000000	0.843584
4088.000000	0.843583
4086.000000	0.843561
4084.000000	0.843544
4082.000000	0.843552
4080.000000	0.843561
4078.000000	0.843580
4076.000000	0.843587
4074.000000	0.843567
4072.000000	0.843568
4070.000000	0.843585
4068.000000	0.843587
4066.000000	0.843590
4064.000000	0.843586
4062.000000	0.843561
4060.000000	0.843531
4058.000000	0.843509
4056.000000	0.843504
4054.000000	0.843534
4052.000000	0.843569
4050.000000	0.843590
4048.000000	0.843584
4046.000000	0.843566
4044.000000	0.843576
4042.000000	0.843610
4040.000000	0.843631
4038.000000	0.843622
4036.000000	0.843607
4034.000000	0.843610
4032.000000	0.843638
4030.000000	0.843670
4028.000000	0.843620
4026.000000	0.843530
4024.000000	0.843514
4022.000000	0.843513
4020.000000	0.843492
4018.000000	0.843497
4016.000000	0.843523
4014.000000	0.843511
4012.000000	0.843454
4010.000000	0.843425
4008.000000	0.843447
4006.000000	0.843464
4004.000000	0.843446
4002.000000	0.843408
4000.000000	0.843391
3998.000000	0.843396
3996.000000	0.843412
3994.000000	0.843436
3992.000000	0.843421
3990.000000	0.843392
3988.000000	0.843420
3986.000000	0.843458
3984.000000	0.843445
3982.000000	0.843420
3980.000000	0.843407
3978.000000	0.843420
3976.000000	0.843474
3974.000000	0.843481
3972.000000	0.843426
3970.000000	0.843431
3968.000000	0.843487
3966.000000	0.843474
3964.000000	0.843376
3962.000000	0.843297
3960.000000	0.843312
3958.000000	0.843366
3956.000000	0.843368
3954.000000	0.843289
3952.000000	0.843152
3950.000000	0.843026
3948.000000	0.843030
3946.000000	0.843049
3944.000000	0.842954
3942.000000	0.842962
3940.000000	0.843147
3938.000000	0.843292
3936.000000	0.843174
3934.000000	0.842815
3932.000000	0.842634
3930.000000	0.842817
3928.000000	0.842912
3926.000000	0.842761
3924.000000	0.842716
3922.000000	0.842681
3920.000000	0.842401
3918.000000	0.842220
3916.000000	0.842518
3914.000000	0.842982
3912.000000	0.843160
3910.000000	0.843001
3908.000000	0.842346
3906.000000	0.841188
3904.000000	0.840278
3902.000000	0.840159
3900.000000	0.840775
3898.000000	0.841835
3896.000000	0.842475
3894.000000	0.842068
3892.000000	0.841529
3890.000000	0.841551
3888.000000	0.841169
3886.000000	0.840734
3884.000000	0.841107
3882.000000	0.841420
3880.000000	0.841719
3878.000000	0.842155
3876.000000	0.841999
3874.000000	0.841270
3872.000000	0.840171
3870.000000	0.839728
3868.000000	0.840304
3866.000000	0.840655
3864.000000	0.840905
3862.000000	0.841582
3860.000000	0.842020
3858.000000	0.840601
3856.000000	0.836743
3854.000000	0.834409
3852.000000	0.836808
3850.000000	0.840546
3848.000000	0.842258
3846.000000	0.842198
3844.000000	0.841549
3842.000000	0.840523
3840.000000	0.838883
3838.000000	0.838147
3836.000000	0.839238
3834.000000	0.840555
3832.000000	0.841344
3830.000000	0.841910
3828.000000	0.842104
3826.000000	0.841838
3824.000000	0.840694
3822.000000	0.839496
3820.000000	0.839365
3818.000000	0.839105
3816.000000	0.839299
3814.000000	0.841010
3812.000000	0.842236
3810.000000	0.841574
3808.000000	0.840318
3806.000000	0.840043
3804.000000	0.839449
3802.000000	0.838722
3800.000000	0.839720
3798.000000	0.841089
3796.000000	0.841830
3794.000000	0.842414
3792.000000	0.842725
3790.000000	0.842803
3788.000000	0.842728
3786.000000	0.842561
3784.000000	0.842431
3782.000000	0.842148
3780.000000	0.841903
3778.000000	0.842190
3776.000000	0.842600
3774.000000	0.842437
3772.000000	0.841663
3770.000000	0.841129
3768.000000	0.841229
3766.000000	0.841557
3764.000000	0.841826
3762.000000	0.841589
3760.000000	0.841132
3758.000000	0.841066
3756.000000	0.840412
3754.000000	0.838117
3752.000000	0.835819
3750.000000	0.835810
3748.000000	0.836323
3746.000000	0.835307
3744.000000	0.835985
3742.000000	0.838898
3740.000000	0.839971
3738.000000	0.838741
3736.000000	0.837692
3734.000000	0.837956
3732.000000	0.839169
3730.000000	0.840468
3728.000000	0.840816
3726.000000	0.840669
3724.000000	0.840663
3722.000000	0.840820
3720.000000	0.841181
3718.000000	0.841442
3716.000000	0.840892
3714.000000	0.839322
3712.000000	0.838397
3710.000000	0.839585
3708.000000	0.841637
3706.000000	0.842438
3704.000000	0.841776
3702.000000	0.841193
3700.000000	0.841418
3698.000000	0.841766
3696.000000	0.841749
3694.000000	0.841003
3692.000000	0.839232
3690.000000	0.837533
3688.000000	0.837987
3686.000000	0.839972
3684.000000	0.841118
3682.000000	0.841040
3680.000000	0.839951
3678.000000	0.837721
3676.000000	0.836251
3674.000000	0.836705
3672.000000	0.836900
3670.000000	0.837328
3668.000000	0.839117
3666.000000	0.840605
3664.000000	0.841052
3662.000000	0.840973
3660.000000	0.840379
3658.000000	0.839356
3656.000000	0.839007
3654.000000	0.838816
3652.000000	0.837191
3650.000000	0.835680
3648.000000	0.836527
3646.000000	0.838597
3644.000000	0.839878
3642.000000	0.840233
3640.000000	0.840263
3638.000000	0.840155
3636.000000	0.839878
3634.000000	0.839336
3632.000000	0.837755
3630.000000	0.835915
3628.000000	0.836460
3626.000000	0.838452
3624.000000	0.839239
3622.000000	0.838527
3620.000000	0.837679
3618.000000	0.837837
3616.000000	0.838183
3614.000000	0.837978
3612.000000	0.837614
3610.000000	0.837424
3608.000000	0.837874
3606.000000	0.838720
3604.000000	0.839121
3602.000000	0.839212
3600.000000	0.839413
3598.000000	0.839331
3596.000000	0.838940
3594.000000	0.838824
3592.000000	0.838680
3590.000000	0.837953
3588.000000	0.837455
3586.000000	0.837950
3584.000000	0.838735
3582.000000	0.839127
3580.000000	0.839187
3578.000000	0.839164
3576.000000	0.839196
3574.000000	0.839201
3572.000000	0.838899
3570.000000	0.838108
3568.000000	0.837469
3566.000000	0.837753
3564.000000	0.838470
3562.000000	0.838899
3560.000000	0.839093
3558.000000	0.839230
3556.000000	0.839223
3554.000000	0.839084
3552.000000	0.839032
3550.000000	0.839049
3548.000000	0.838905
3546.000000	0.838802
3544.000000	0.839017
3542.000000	0.839351
3540.000000	0.839508
3538.000000	0.839522
3536.000000	0.839593
3534.000000	0.839708
3532.000000	0.839682
3530.000000	0.839539
3528.000000	0.839494
3526.000000	0.839554
3524.000000	0.839625
3522.000000	0.839803
3520.000000	0.840029
3518.000000	0.840184
3516.000000	0.840277
3514.000000	0.840307
3512.000000	0.840313
3510.000000	0.840397
3508.000000	0.840555
3506.000000	0.840622
3504.000000	0.840635
3502.000000	0.840828
3500.000000	0.841088
3498.000000	0.841258
3496.000000	0.841439
3494.000000	0.841646
3492.000000	0.841795
3490.000000	0.841897
3488.000000	0.842027
3486.000000	0.842222
3484.000000	0.842372
3482.000000	0.842482
3480.000000	0.842703
3478.000000	0.842979
3476.000000	0.843173
3474.000000	0.843357
3472.000000	0.843557
3470.000000	0.843745
3468.000000	0.843997
3466.000000	0.844312
3464.000000	0.844548
3462.000000	0.844764
3460.000000	0.845087
3458.000000	0.845424
3456.000000	0.845681
3454.000000	0.845917
3452.000000	0.846154
3450.000000	0.846373
3448.000000	0.846576
3446.000000	0.846832
3444.000000	0.847182
3442.000000	0.847549
3440.000000	0.847906
3438.000000	0.848200
3436.000000	0.848456
3434.000000	0.848815
3432.000000	0.849184
3430.000000	0.849480
3428.000000	0.849789
3426.000000	0.850088
3424.000000	0.850336
3422.000000	0.850584
3420.000000	0.850900
3418.000000	0.851234
3416.000000	0.851485
3414.000000	0.851682
3412.000000	0.851907
3410.000000	0.852151
3408.000000	0.852363
3406.000000	0.852592
3404.000000	0.852813
3402.000000	0.852952
3400.000000	0.853080
3398.000000	0.853256
3396.000000	0.853411
3394.000000	0.853505
3392.000000	0.853650
3390.000000	0.853884
3388.000000	0.854058
3386.000000	0.854165
3384.000000	0.854298
3382.000000	0.854456
3380.000000	0.854616
3378.000000	0.854752
3376.000000	0.854849
3374.000000	0.854925
3372.000000	0.854980
3370.000000	0.855040
3368.000000	0.855151
3366.000000	0.855293
3364.000000	0.855385
3362.000000	0.855455
3360.000000	0.855580
3358.000000	0.855708
3356.000000	0.855760
3354.000000	0.855820
3352.000000	0.855931
3350.000000	0.855997
3348.000000	0.856050
3346.000000	0.856107
3344.000000	0.856135
3342.000000	0.856207
3340.000000	0.856295
3338.000000	0.856324
3336.000000	0.856360
3334.000000	0.856444
3332.000000	0.856513
3330.000000	0.856552
3328.000000	0.856584
3326.000000	0.856637
3324.000000	0.856721
3322.000000	0.856811
3320.000000	0.856919
3318.000000	0.857030
3316.000000	0.857065
3314.000000	0.857062
3312.000000	0.857120
3310.000000	0.857191
3308.000000	0.857233
3306.000000	0.857284
3304.000000	0.857420
3302.000000	0.857548
3300.000000	0.857605
3298.000000	0.857671
3296.000000	0.857743
3294.000000	0.857788
3292.000000	0.857844
3290.000000	0.857941
3288.000000	0.858025
3286.000000	0.858060
3284.000000	0.858107
3282.000000	0.858160
3280.000000	0.858219
3278.000000	0.858266
3276.000000	0.858288
3274.000000	0.858320
3272.000000	0.858386
3270.000000	0.858496
3268.000000	0.858594
3266.000000	0.858641
3264.000000	0.858667
3262.000000	0.858693
3260.000000	0.858729
3258.000000	0.858818
3256.000000	0.858873
3254.000000	0.858884
3252.000000	0.858924
3250.000000	0.858978
3248.000000	0.858999
3246.000000	0.859008
3244.000000	0.859078
3242.000000	0.859158
3240.000000	0.859195
3238.000000	0.859243
3236.000000	0.859327
3234.000000	0.859383
3232.000000	0.859427
3230.000000	0.859474
3228.000000	0.859531
3226.000000	0.859630
3224.000000	0.859736
3222.000000	0.859801
3220.000000	0.859849
3218.000000	0.859893
3216.000000	0.859932
3214.000000	0.859980
3212.000000	0.859975
3210.000000	0.859950
3208.000000	0.859979
3206.000000	0.860009
3204.000000	0.859991
3202.000000	0.859962
3200.000000	0.859936
3198.000000	0.859927
3196.000000	0.859924
3194.000000	0.859955
3192.000000	0.860021
3190.000000	0.860026
3188.000000	0.859966
3186.000000	0.859952
3184.000000	0.859963
3182.000000	0.859958
3180.000000	0.859964
3178.000000	0.860016
3176.000000	0.860051
3174.000000	0.860020
3172.000000	0.860007
3170.000000	0.860014
3168.000000	0.860023
3166.000000	0.860065
3164.000000	0.860096
3162.000000	0.860080
3160.000000	0.860067
3158.000000	0.860068
3156.000000	0.860060
3154.000000	0.860013
3152.000000	0.860001
3150.000000	0.860065
3148.000000	0.860087
3146.000000	0.860099
3144.000000	0.860130
3142.000000	0.860140
3140.000000	0.860156
3138.000000	0.860135
3136.000000	0.860085
3134.000000	0.860108
3132.000000	0.860183
3130.000000	0.860239
3128.000000	0.860249
3126.000000	0.860248
3124.000000	0.860278
3122.000000	0.860294
3120.000000	0.860283
3118.000000	0.860232
3116.000000	0.860249
3114.000000	0.860340
3112.000000	0.860356
3110.000000	0.860284
3108.000000	0.860251
3106.000000	0.860265
3104.000000	0.860249
3102.000000	0.860228
3100.000000	0.860188
3098.000000	0.860159
3096.000000	0.860161
3094.000000	0.860157
3092.000000	0.860104
3090.000000	0.860040
3088.000000	0.860023
3086.000000	0.859941
3084.000000	0.859789
3082.000000	0.859691
3080.000000	0.859659
3078.000000	0.859661
3076.000000	0.859631
3074.000000	0.859557
3072.000000	0.859454
3070.000000	0.859357
3068.000000	0.859252
3066.000000	0.859155
3064.000000	0.859102
3062.000000	0.859043
3060.000000	0.858982
3058.000000	0.858924
3056.000000	0.858876
3054.000000	0.858824
3052.000000	0.858718
3050.000000	0.858598
3048.000000	0.858552
3046.000000	0.858496
3044.000000	0.858392
3042.000000	0.858311
3040.000000	0.858291
3038.000000	0.858246
3036.000000	0.858140
3034.000000	0.858060
3032.000000	0.858034
3030.000000	0.857978
3028.000000	0.857902
3026.000000	0.857859
3024.000000	0.857847
3022.000000	0.857827
3020.000000	0.857741
3018.000000	0.857652
3016.000000	0.857589
3014.000000	0.857557
3012.000000	0.857563
3010.000000	0.857546
3008.000000	0.857486
3006.000000	0.857398
3004.000000	0.857319
3002.000000	0.857303
3000.000000	0.857275
2998.000000	0.857197
2996.000000	0.857125
2994.000000	0.857071
2992.000000	0.857052
2990.000000	0.857052
2988.000000	0.857046
2986.000000	0.857023
2984.000000	0.856972
2982.000000	0.856949
2980.000000	0.856953
2978.000000	0.856961
2976.000000	0.856984
2974.000000	0.857009
2972.000000	0.857077
2970.000000	0.857243
2968.000000	0.857443
2966.000000	0.857600
2964.000000	0.857734
2962.000000	0.857797
2960.000000	0.857693
2958.000000	0.857455
2956.000000	0.857184
2954.000000	0.856893
2952.000000	0.856671
2950.000000	0.856516
2948.000000	0.856355
2946.000000	0.856230
2944.000000	0.856152
2942.000000	0.856066
2940.000000	0.856033
2938.000000	0.856044
2936.000000	0.856034
2934.000000	0.855971
2932.000000	0.855921
2930.000000	0.855928
2928.000000	0.855953
2926.000000	0.856004
2924.000000	0.856081
2922.000000	0.856132
2920.000000	0.856120
2918.000000	0.856076
2916.000000	0.856029
2914.000000	0.855971
2912.000000	0.855915
2910.000000	0.855890
2908.000000	0.855883
2906.000000	0.855874
2904.000000	0.855815
2902.000000	0.855727
2900.000000	0.855675
2898.000000	0.855638
2896.000000	0.855603
2894.000000	0.855593
2892.000000	0.855583
2890.000000	0.855531
2888.000000	0.855448
2886.000000	0.855379
2884.000000	0.855328
2882.000000	0.855286
2880.000000	0.855250
2878.000000	0.855189
2876.000000	0.855114
2874.000000	0.855049
2872.000000	0.855022
2870.000000	0.854974
2868.000000	0.854898
2866.000000	0.854844
2864.000000	0.854860
2862.000000	0.854894
2860.000000	0.854898
2858.000000	0.854858
2856.000000	0.854805
2854.000000	0.854814
2852.000000	0.854852
2850.000000	0.854887
2848.000000	0.854913
2846.000000	0.854917
2844.000000	0.854882
2842.000000	0.854833
2840.000000	0.854816
2838.000000	0.854807
2836.000000	0.854772
2834.000000	0.854724
2832.000000	0.854710
2830.000000	0.854694
2828.000000	0.854648
2826.000000	0.854632
2824.000000	0.854661
2822.000000	0.854694
2820.000000	0.854700
2818.000000	0.854656
2816.000000	0.854609
2814.000000	0.854582
2812.000000	0.854585
2810.000000	0.854588
2808.000000	0.854535
2806.000000	0.854479
2804.000000	0.854460
2802.000000	0.854420
2800.000000	0.854419
2798.000000	0.854439
2796.000000	0.854436
2794.000000	0.854408
2792.000000	0.854392
2790.000000	0.854396
2788.000000	0.854379
2786.000000	0.854369
2784.000000	0.854381
2782.000000	0.854366
2780.000000	0.854337
2778.000000	0.854316
2776.000000	0.854292
2774.000000	0.854265
2772.000000	0.854271
2770.000000	0.854301
2768.000000	0.854270
2766.000000	0.854216
2764.000000	0.854206
2762.000000	0.854215
2760.000000	0.854225
2758.000000	0.854206
2756.000000	0.854200
2754.000000	0.854222
2752.000000	0.854247
2750.000000	0.854237
2748.000000	0.854247
2746.000000	0.854299
2744.000000	0.854307
2742.000000	0.854294
2740.000000	0.854294
2738.000000	0.854297
2736.000000	0.854333
2734.000000	0.854347
2732.000000	0.854356
2730.000000	0.854388
2728.000000	0.854408
2726.000000	0.854409
2724.000000	0.854436
2722.000000	0.854480
2720.000000	0.854524
2718.000000	0.854543
2716.000000	0.854577
2714.000000	0.854634
2712.000000	0.854683
2710.000000	0.854700
2708.000000	0.854733
2706.000000	0.854778
2704.000000	0.854819
2702.000000	0.854858
2700.000000	0.854906
2698.000000	0.854942
2696.000000	0.854974
2694.000000	0.855031
2692.000000	0.855101
2690.000000	0.855166
2688.000000	0.855220
2686.000000	0.855213
2684.000000	0.855239
2682.000000	0.855289
2680.000000	0.855337
2678.000000	0.855395
2676.000000	0.855452
2674.000000	0.855507
2672.000000	0.855539
2670.000000	0.855541
2668.000000	0.855566
2666.000000	0.855608
2664.000000	0.855639
2662.000000	0.855696
2660.000000	0.855737
2658.000000	0.855752
2656.000000	0.855806
2654.000000	0.855829
2652.000000	0.855862
2650.000000	0.855935
2648.000000	0.855970
2646.000000	0.855956
2644.000000	0.856012
2642.000000	0.856124
2640.000000	0.856192
2638.000000	0.856209
2636.000000	0.856251
2634.000000	0.856318
2632.000000	0.856338
2630.000000	0.856310
2628.000000	0.856315
2626.000000	0.856380
2624.000000	0.856438
2622.000000	0.856445
2620.000000	0.856463
2618.000000	0.856524
2616.000000	0.856579
2614.000000	0.856606
2612.000000	0.856637
2610.000000	0.856671
2608.000000	0.856713
2606.000000	0.856719
2604.000000	0.856740
2602.000000	0.856777
2600.000000	0.856785
2598.000000	0.856771
2596.000000	0.856790
2594.000000	0.856835
2592.000000	0.856883
2590.000000	0.856904
2588.000000	0.856930
2586.000000	0.856984
2584.000000	0.857016
2582.000000	0.857060
2580.000000	0.857110
2578.000000	0.857143
2576.000000	0.857175
2574.000000	0.857155
2572.000000	0.857129
2570.000000	0.857143
2568.000000	0.857186
2566.000000	0.857222
2564.000000	0.857227
2562.000000	0.857218
2560.000000	0.857216
2558.000000	0.857240
2556.000000	0.857257
2554.000000	0.857271
2552.000000	0.857295
2550.000000	0.857303
2548.000000	0.857323
2546.000000	0.857331
2544.000000	0.857343
2542.000000	0.857382
2540.000000	0.857386
2538.000000	0.857371
2536.000000	0.857350
2534.000000	0.857334
2532.000000	0.857378
2530.000000	0.857404
2528.000000	0.857398
2526.000000	0.857403
2524.000000	0.857429
2522.000000	0.857422
2520.000000	0.857417
2518.000000	0.857397
2516.000000	0.857396
2514.000000	0.857439
2512.000000	0.857478
2510.000000	0.857471
2508.000000	0.857434
2506.000000	0.857432
2504.000000	0.857442
2502.000000	0.857420
2500.000000	0.857435
2498.000000	0.857453
2496.000000	0.857470
2494.000000	0.857511
2492.000000	0.857551
2490.000000	0.857519
2488.000000	0.857485
2486.000000	0.857467
2484.000000	0.857450
2482.000000	0.857459
2480.000000	0.857459
2478.000000	0.857451
2476.000000	0.857438
2474.000000	0.857401
2472.000000	0.857413
2470.000000	0.857473
2468.000000	0.857530
2466.000000	0.857539
2464.000000	0.857550
2462.000000	0.857568
2460.000000	0.857591
2458.000000	0.857611
2456.000000	0.857597
2454.000000	0.857569
2452.000000	0.857557
2450.000000	0.857525
2448.000000	0.857491
2446.000000	0.857483
2444.000000	0.857499
2442.000000	0.857484
2440.000000	0.857444
2438.000000	0.857422
2436.000000	0.857443
2434.000000	0.857408
2432.000000	0.857343
2430.000000	0.857330
2428.000000	0.857331
2426.000000	0.857339
2424.000000	0.857313
2422.000000	0.857249
2420.000000	0.857210
2418.000000	0.857194
2416.000000	0.857155
2414.000000	0.857083
2412.000000	0.857019
2410.000000	0.856961
2408.000000	0.856946
2406.000000	0.856900
2404.000000	0.856819
2402.000000	0.856710
2400.000000	0.856597
2398.000000	0.856492
2396.000000	0.856389
2394.000000	0.856286
2392.000000	0.856214
2390.000000	0.856120
2388.000000	0.856005
2386.000000	0.855922
2384.000000	0.856054
2382.000000	0.856755
2380.000000	0.858039
2378.000000	0.859198
2376.000000	0.859745
2374.000000	0.859830
2372.000000	0.859720
2370.000000	0.859496
2368.000000	0.859234
2366.000000	0.859084
2364.000000	0.859126
2362.000000	0.859365
2360.000000	0.859777
2358.000000	0.860294
2356.000000	0.860877
2354.000000	0.861543
2352.000000	0.862233
2350.000000	0.862803
2348.000000	0.863091
2346.000000	0.863146
2344.000000	0.863260
2342.000000	0.863465
2340.000000	0.863510
2338.000000	0.863126
2336.000000	0.862466
2334.000000	0.861896
2332.000000	0.861528
2330.000000	0.861293
2328.000000	0.861162
2326.000000	0.861105
2324.000000	0.861084
2322.000000	0.861039
2320.000000	0.861026
2318.000000	0.861042
2316.000000	0.861028
2314.000000	0.861001
2312.000000	0.861022
2310.000000	0.861048
2308.000000	0.861048
2306.000000	0.861033
2304.000000	0.861030
2302.000000	0.861000
2300.000000	0.860943
2298.000000	0.860910
2296.000000	0.860899
2294.000000	0.860884
2292.000000	0.860858
2290.000000	0.860809
2288.000000	0.860778
2286.000000	0.860780
2284.000000	0.861018
2282.000000	0.861318
2280.000000	0.861274
2278.000000	0.861070
2276.000000	0.860960
2274.000000	0.860903
2272.000000	0.860858
2270.000000	0.860785
2268.000000	0.860748
2266.000000	0.860740
2264.000000	0.860701
2262.000000	0.860656
2260.000000	0.860669
2258.000000	0.860635
2256.000000	0.860597
2254.000000	0.860581
2252.000000	0.860544
2250.000000	0.860509
2248.000000	0.860499
2246.000000	0.860448
2244.000000	0.860395
2242.000000	0.860360
2240.000000	0.860343
2238.000000	0.860334
2236.000000	0.860334
2234.000000	0.860306
2232.000000	0.860258
2230.000000	0.860207
2228.000000	0.860194
2226.000000	0.860173
2224.000000	0.860144
2222.000000	0.860116
2220.000000	0.860083
2218.000000	0.860035
2216.000000	0.860013
2214.000000	0.860006
2212.000000	0.859955
2210.000000	0.859918
2208.000000	0.859933
2206.000000	0.859897
2204.000000	0.859859
2202.000000	0.859820
2200.000000	0.859774
2198.000000	0.859744
2196.000000	0.859711
2194.000000	0.859633
2192.000000	0.859596
2190.000000	0.859597
2188.000000	0.859572
2186.000000	0.859546
2184.000000	0.859530
2182.000000	0.859502
2180.000000	0.859508
2178.000000	0.859490
2176.000000	0.859421
2174.000000	0.859359
2172.000000	0.859335
2170.000000	0.859329
2168.000000	0.859316
2166.000000	0.859251
2164.000000	0.859212
2162.000000	0.859189
2160.000000	0.859171
2158.000000	0.859140
2156.000000	0.859103
2154.000000	0.859057
2152.000000	0.859032
2150.000000	0.859011
2148.000000	0.858976
2146.000000	0.858936
2144.000000	0.858909
2142.000000	0.858872
2140.000000	0.858827
2138.000000	0.858757
2136.000000	0.858731
2134.000000	0.858726
2132.000000	0.858700
2130.000000	0.858669
2128.000000	0.858642
2126.000000	0.858590
2124.000000	0.858562
2122.000000	0.858532
2120.000000	0.858525
2118.000000	0.858498
2116.000000	0.858451
2114.000000	0.858422
2112.000000	0.858383
2110.000000	0.858303
2108.000000	0.858265
2106.000000	0.858234
2104.000000	0.858209
2102.000000	0.858206
2100.000000	0.858187
2098.000000	0.858115
2096.000000	0.858083
2094.000000	0.858062
2092.000000	0.858018
2090.000000	0.857989
2088.000000	0.858002
2086.000000	0.857996
2084.000000	0.857968
2082.000000	0.857921
2080.000000	0.857887
2078.000000	0.857861
2076.000000	0.857824
2074.000000	0.857788
2072.000000	0.857775
2070.000000	0.857727
2068.000000	0.857647
2066.000000	0.857562
2064.000000	0.857566
2062.000000	0.857563
2060.000000	0.857534
2058.000000	0.857505
2056.000000	0.857462
2054.000000	0.857402
2052.000000	0.857387
2050.000000	0.857382
2048.000000	0.857335
2046.000000	0.857236
2044.000000	0.857186
2042.000000	0.857128
2040.000000	0.857102
2038.000000	0.857091
2036.000000	0.857062
2034.000000	0.857001
2032.000000	0.856954
2030.000000	0.856937
2028.000000	0.856920
2026.000000	0.856834
2024.000000	0.856781
2022.000000	0.856737
2020.000000	0.856645
2018.000000	0.856536
2016.000000	0.856552
2014.000000	0.856575
2012.000000	0.856534
2010.000000	0.856463
2008.000000	0.856420
2006.000000	0.856397
2004.000000	0.856353
2002.000000	0.856301
2000.000000	0.856298
1998.000000	0.856272
1996.000000	0.856184
1994.000000	0.855960
1992.000000	0.855800
1990.000000	0.855903
1988.000000	0.855989
1986.000000	0.856006
1984.000000	0.856011
1982.000000	0.855982
1980.000000	0.855948
1978.000000	0.855901
1976.000000	0.855849
1974.000000	0.855824
1972.000000	0.855814
1970.000000	0.855714
1968.000000	0.855544
1966.000000	0.855542
1964.000000	0.855639
1962.000000	0.855643
1960.000000	0.855660
1958.000000	0.855671
1956.000000	0.855632
1954.000000	0.855635
1952.000000	0.855647
1950.000000	0.855607
1948.000000	0.855558
1946.000000	0.855420
1944.000000	0.855155
1942.000000	0.855128
1940.000000	0.855434
1938.000000	0.855557
1936.000000	0.855569
1934.000000	0.855567
1932.000000	0.855578
1930.000000	0.855549
1928.000000	0.855551
1926.000000	0.855481
1924.000000	0.855284
1922.000000	0.855209
1920.000000	0.854966
1918.000000	0.854675
1916.000000	0.855102
1914.000000	0.855458
1912.000000	0.855455
1910.000000	0.855315
1908.000000	0.855349
1906.000000	0.855466
1904.000000	0.855544
1902.000000	0.855529
1900.000000	0.855521
1898.000000	0.855450
1896.000000	0.855335
1894.000000	0.855324
1892.000000	0.855226
1890.000000	0.854935
1888.000000	0.855131
1886.000000	0.855368
1884.000000	0.855404
1882.000000	0.855395
1880.000000	0.855389
1878.000000	0.855359
1876.000000	0.855337
1874.000000	0.855243
1872.000000	0.854792
1870.000000	0.853877
1868.000000	0.853853
1866.000000	0.854587
1864.000000	0.854995
1862.000000	0.855021
1860.000000	0.855000
1858.000000	0.855001
1856.000000	0.855019
1854.000000	0.854967
1852.000000	0.854931
1850.000000	0.854764
1848.000000	0.854354
1846.000000	0.853124
1844.000000	0.852557
1842.000000	0.853859
1840.000000	0.854689
1838.000000	0.854677
1836.000000	0.854703
1834.000000	0.854630
1832.000000	0.853922
1830.000000	0.853286
1828.000000	0.853690
1826.000000	0.853781
1824.000000	0.854053
1822.000000	0.854634
1820.000000	0.854797
1818.000000	0.854729
1816.000000	0.854784
1814.000000	0.854755
1812.000000	0.854481
1810.000000	0.854435
1808.000000	0.854714
1806.000000	0.854818
1804.000000	0.854527
1802.000000	0.853965
1800.000000	0.853934
1798.000000	0.854358
1796.000000	0.854223
1794.000000	0.852854
1792.000000	0.852365
1790.000000	0.853768
1788.000000	0.854631
1786.000000	0.854329
1784.000000	0.854299
1782.000000	0.854443
1780.000000	0.854519
1778.000000	0.854726
1776.000000	0.854137
1774.000000	0.852088
1772.000000	0.851318
1770.000000	0.852682
1768.000000	0.853601
1766.000000	0.854591
1764.000000	0.854395
1762.000000	0.853683
1760.000000	0.854227
1758.000000	0.854381
1756.000000	0.854481
1754.000000	0.854296
1752.000000	0.852708
1750.000000	0.852616
1748.000000	0.853787
1746.000000	0.854556
1744.000000	0.854664
1742.000000	0.854119
1740.000000	0.853621
1738.000000	0.853948
1736.000000	0.851562
1734.000000	0.849352
1732.000000	0.852310
1730.000000	0.854849
1728.000000	0.855749
1726.000000	0.855969
1724.000000	0.855895
1722.000000	0.855616
1720.000000	0.853273
1718.000000	0.850141
1716.000000	0.851240
1714.000000	0.854078
1712.000000	0.855735
1710.000000	0.855992
1708.000000	0.855365
1706.000000	0.854470
1704.000000	0.854073
1702.000000	0.850863
1700.000000	0.848737
1698.000000	0.850000
1696.000000	0.850169
1694.000000	0.853536
1692.000000	0.856134
1690.000000	0.856088
1688.000000	0.854892
1686.000000	0.850735
1684.000000	0.849441
1682.000000	0.853621
1680.000000	0.856016
1678.000000	0.855710
1676.000000	0.854046
1674.000000	0.854435
1672.000000	0.854826
1670.000000	0.853930
1668.000000	0.855089
1666.000000	0.856487
1664.000000	0.855830
1662.000000	0.855776
1660.000000	0.856910
1658.000000	0.856935
1656.000000	0.853349
1654.000000	0.846641
1652.000000	0.848058
1650.000000	0.853769
1648.000000	0.853431
1646.000000	0.852993
1644.000000	0.855667
1642.000000	0.857254
1640.000000	0.856940
1638.000000	0.854664
1636.000000	0.852132
1634.000000	0.854246
1632.000000	0.857028
1630.000000	0.857144
1628.000000	0.856620
1626.000000	0.856213
1624.000000	0.855467
1622.000000	0.856046
1620.000000	0.856232
1618.000000	0.853545
1616.000000	0.853310
1614.000000	0.856316
1612.000000	0.857412
1610.000000	0.857386
1608.000000	0.857450
1606.000000	0.857634
1604.000000	0.857632
1602.000000	0.857677
1600.000000	0.857792
1598.000000	0.857828
1596.000000	0.857710
1594.000000	0.857716
1592.000000	0.857832
1590.000000	0.857886
1588.000000	0.857920
1586.000000	0.857944
1584.000000	0.857923
1582.000000	0.857959
1580.000000	0.857489
1578.000000	0.854603
1576.000000	0.852843
1574.000000	0.855742
1572.000000	0.856581
1570.000000	0.855395
1568.000000	0.856209
1566.000000	0.857126
1564.000000	0.856873
1562.000000	0.853477
1560.000000	0.847263
1558.000000	0.847964
1556.000000	0.852669
1554.000000	0.854891
1552.000000	0.856441
1550.000000	0.857010
1548.000000	0.857043
1546.000000	0.855759
1544.000000	0.853518
1542.000000	0.850174
1540.000000	0.848333
1538.000000	0.852371
1536.000000	0.855782
1534.000000	0.855287
1532.000000	0.856120
1530.000000	0.856969
1528.000000	0.856149
1526.000000	0.855097
1524.000000	0.853834
1522.000000	0.851656
1520.000000	0.852672
1518.000000	0.854552
1516.000000	0.855491
1514.000000	0.856370
1512.000000	0.856214
1510.000000	0.854681
1508.000000	0.850470
1506.000000	0.849734
1504.000000	0.854569
1502.000000	0.857056
1500.000000	0.856159
1498.000000	0.854463
1496.000000	0.854603
1494.000000	0.856636
1492.000000	0.856428
1490.000000	0.855345
1488.000000	0.855877
1486.000000	0.856980
1484.000000	0.857685
1482.000000	0.857671
1480.000000	0.857662
1478.000000	0.856931
1476.000000	0.855424
1474.000000	0.853498
1472.000000	0.853688
1470.000000	0.856277
1468.000000	0.857154
1466.000000	0.855989
1464.000000	0.855983
1462.000000	0.856842
1460.000000	0.854965
1458.000000	0.850923
1456.000000	0.851458
1454.000000	0.855531
1452.000000	0.857009
1450.000000	0.856808
1448.000000	0.856328
1446.000000	0.856801
1444.000000	0.857215
1442.000000	0.857251
1440.000000	0.856530
1438.000000	0.854244
1436.000000	0.853834
1434.000000	0.855954
1432.000000	0.856404
1430.000000	0.856219
1428.000000	0.856475
1426.000000	0.856520
1424.000000	0.856139
1422.000000	0.855260
1420.000000	0.853174
1418.000000	0.853768
1416.000000	0.855797
1414.000000	0.856531
1412.000000	0.856514
1410.000000	0.856537
1408.000000	0.856407
1406.000000	0.856000
1404.000000	0.855943
1402.000000	0.855998
1400.000000	0.855220
1398.000000	0.854904
1396.000000	0.854550
1394.000000	0.854660
1392.000000	0.855578
1390.000000	0.855455
1388.000000	0.854581
1386.000000	0.854933
1384.000000	0.855688
1382.000000	0.855788
1380.000000	0.855668
1378.000000	0.855508
1376.000000	0.855045
1374.000000	0.854733
1372.000000	0.855103
1370.000000	0.855298
1368.000000	0.855272
1366.000000	0.855118
1364.000000	0.854444
1362.000000	0.854220
1360.000000	0.854747
1358.000000	0.855057
1356.000000	0.854981
1354.000000	0.854957
1352.000000	0.855027
1350.000000	0.855008
1348.000000	0.854965
1346.000000	0.854934
1344.000000	0.854817
1342.000000	0.854490
1340.000000	0.854096
1338.000000	0.854191
1336.000000	0.854550
1334.000000	0.854779
1332.000000	0.854783
1330.000000	0.854777
1328.000000	0.854743
1326.000000	0.854728
1324.000000	0.854739
1322.000000	0.854642
1320.000000	0.854414
1318.000000	0.854318
1316.000000	0.854395
1314.000000	0.854453
1312.000000	0.854506
1310.000000	0.854579
1308.000000	0.854560
1306.000000	0.854568
1304.000000	0.854601
1302.000000	0.854612
1300.000000	0.854553
1298.000000	0.854543
1296.000000	0.854528
1294.000000	0.854525
1292.000000	0.854534
1290.000000	0.854520
1288.000000	0.854490
1286.000000	0.854544
1284.000000	0.854561
1282.000000	0.854540
1280.000000	0.854555
1278.000000	0.854634
1276.000000	0.854746
1274.000000	0.854886
1272.000000	0.855057
1270.000000	0.855414
1268.000000	0.856093
1266.000000	0.857076
1264.000000	0.858164
1262.000000	0.859133
1260.000000	0.859615
1258.000000	0.859409
1256.000000	0.858566
1254.000000	0.857652
1252.000000	0.856931
1250.000000	0.856442
1248.000000	0.856185
1246.000000	0.856060
1244.000000	0.856003
1242.000000	0.856063
1240.000000	0.856125
1238.000000	0.856081
1236.000000	0.856079
1234.000000	0.856138
1232.000000	0.856124
1230.000000	0.856138
1228.000000	0.856100
1226.000000	0.856080
1224.000000	0.856133
1222.000000	0.856234
1220.000000	0.856241
1218.000000	0.856205
1216.000000	0.856250
1214.000000	0.856332
1212.000000	0.856341
1210.000000	0.856373
1208.000000	0.856414
1206.000000	0.856453
1204.000000	0.856448
1202.000000	0.856464
1200.000000	0.856530
1198.000000	0.856657
1196.000000	0.856775
1194.000000	0.856968
1192.000000	0.857199
1190.000000	0.857337
1188.000000	0.857360
1186.000000	0.857471
1184.000000	0.857606
1182.000000	0.857894
1180.000000	0.858194
1178.000000	0.858353
1176.000000	0.858396
1174.000000	0.858496
1172.000000	0.858672
1170.000000	0.858890
1168.000000	0.859074
1166.000000	0.859240
1164.000000	0.859304
1162.000000	0.859363
1160.000000	0.859509
1158.000000	0.859697
1156.000000	0.859732
1154.000000	0.859718
1152.000000	0.859739
1150.000000	0.859763
1148.000000	0.859804
1146.000000	0.859907
1144.000000	0.859952
1142.000000	0.859904
1140.000000	0.859941
1138.000000	0.860061
1136.000000	0.860036
1134.000000	0.860058
1132.000000	0.860050
1130.000000	0.860183
1128.000000	0.860317
1126.000000	0.860345
1124.000000	0.860380
1122.000000	0.860410
1120.000000	0.860492
1118.000000	0.860748
1116.000000	0.860951
1114.000000	0.861193
1112.000000	0.861413
1110.000000	0.861509
1108.000000	0.861767
1106.000000	0.862039
1104.000000	0.861957
1102.000000	0.862029
1100.000000	0.862365
1098.000000	0.862532
1096.000000	0.862560
1094.000000	0.862609
1092.000000	0.862551
1090.000000	0.862448
1088.000000	0.862325
1086.000000	0.862293
1084.000000	0.861990
1082.000000	0.861611
1080.000000	0.861362
1078.000000	0.861139
1076.000000	0.860884
1074.000000	0.860676
1072.000000	0.860344
1070.000000	0.859966
1068.000000	0.859565
1066.000000	0.859199
1064.000000	0.858866
1062.000000	0.858553
1060.000000	0.858250
1058.000000	0.857945
1056.000000	0.857463
1054.000000	0.857011
1052.000000	0.856848
1050.000000	0.856777
1048.000000	0.856325
1046.000000	0.855613
1044.000000	0.855013
1042.000000	0.854669
1040.000000	0.854278
1038.000000	0.854138
1036.000000	0.854098
1034.000000	0.853729
1032.000000	0.853215
1030.000000	0.852886
1028.000000	0.852592
1026.000000	0.852263
1024.000000	0.851824
1022.000000	0.851407
1020.000000	0.851181
1018.000000	0.851097
1016.000000	0.850440
1014.000000	0.849417
1012.000000	0.848645
1010.000000	0.847980
1008.000000	0.847250
1006.000000	0.846492
1004.000000	0.845607
1002.000000	0.845018
1000.000000	0.844371
