PE IR       SUBTECH     SPECTRUM    ASCII       PEDS        4.00        
   -1
TE110A_075_80K_AFTER_130K_SB.ASC
20/05/14
15:19:46.00
20/05/14
15:19:46.00
Administrator
TE110A.Thursday, May 14 2020, 006.
1000.000000
#HDR
-1
-1
#GR
cm-1
EGY
1.0
0.0
6000.000000
-2.000000
2501
8
4.517056
0.462383
#DATA
6000.000000	0.742472
5998.000000	0.744923
5996.000000	0.747681
5994.000000	0.748635
5992.000000	0.748438
5990.000000	0.748974
5988.000000	0.750294
5986.000000	0.752166
5984.000000	0.754010
5982.000000	0.755719
5980.000000	0.758118
5978.000000	0.760647
5976.000000	0.763076
5974.000000	0.765395
5972.000000	0.766445
5970.000000	0.766105
5968.000000	0.767059
5966.000000	0.769705
5964.000000	0.771431
5962.000000	0.772847
5960.000000	0.774686
5958.000000	0.776577
5956.000000	0.777998
5954.000000	0.778167
5952.000000	0.779388
5950.000000	0.781444
5948.000000	0.782596
5946.000000	0.784238
5944.000000	0.786577
5942.000000	0.788764
5940.000000	0.789990
5938.000000	0.790952
5936.000000	0.792182
5934.000000	0.794895
5932.000000	0.797681
5930.000000	0.799426
5928.000000	0.799827
5926.000000	0.799307
5924.000000	0.800122
5922.000000	0.802481
5920.000000	0.805670
5918.000000	0.807724
5916.000000	0.808687
5914.000000	0.809662
5912.000000	0.811046
5910.000000	0.812745
5908.000000	0.813571
5906.000000	0.815514
5904.000000	0.818339
5902.000000	0.821052
5900.000000	0.822481
5898.000000	0.822895
5896.000000	0.823845
5894.000000	0.825443
5892.000000	0.827784
5890.000000	0.830096
5888.000000	0.832430
5886.000000	0.834319
5884.000000	0.835698
5882.000000	0.836601
5880.000000	0.838132
5878.000000	0.839806
5876.000000	0.841994
5874.000000	0.843609
5872.000000	0.844840
5870.000000	0.846109
5868.000000	0.846878
5866.000000	0.848561
5864.000000	0.850877
5862.000000	0.853334
5860.000000	0.855365
5858.000000	0.856918
5856.000000	0.858374
5854.000000	0.860237
5852.000000	0.862026
5850.000000	0.864538
5848.000000	0.866926
5846.000000	0.868277
5844.000000	0.868629
5842.000000	0.869108
5840.000000	0.871027
5838.000000	0.874792
5836.000000	0.877255
5834.000000	0.878390
5832.000000	0.878693
5830.000000	0.879871
5828.000000	0.882291
5826.000000	0.884612
5824.000000	0.886343
5822.000000	0.888569
5820.000000	0.890414
5818.000000	0.892529
5816.000000	0.894665
5814.000000	0.896735
5812.000000	0.898818
5810.000000	0.900707
5808.000000	0.902182
5806.000000	0.903505
5804.000000	0.905663
5802.000000	0.907801
5800.000000	0.909301
5798.000000	0.910179
5796.000000	0.910230
5794.000000	0.910959
5792.000000	0.913025
5790.000000	0.916523
5788.000000	0.920117
5786.000000	0.922323
5784.000000	0.923416
5782.000000	0.925185
5780.000000	0.927167
5778.000000	0.928632
5776.000000	0.930750
5774.000000	0.932929
5772.000000	0.934588
5770.000000	0.936187
5768.000000	0.938210
5766.000000	0.941183
5764.000000	0.942926
5762.000000	0.944400
5760.000000	0.946676
5758.000000	0.949340
5756.000000	0.951703
5754.000000	0.952966
5752.000000	0.954766
5750.000000	0.956500
5748.000000	0.958402
5746.000000	0.960023
5744.000000	0.961254
5742.000000	0.963064
5740.000000	0.965478
5738.000000	0.967604
5736.000000	0.968311
5734.000000	0.968480
5732.000000	0.969962
5730.000000	0.972614
5728.000000	0.975736
5726.000000	0.978229
5724.000000	0.980186
5722.000000	0.982024
5720.000000	0.984945
5718.000000	0.987203
5716.000000	0.988742
5714.000000	0.989806
5712.000000	0.991208
5710.000000	0.993400
5708.000000	0.994900
5706.000000	0.996757
5704.000000	0.999604
5702.000000	1.002102
5700.000000	1.003631
5698.000000	1.004469
5696.000000	1.006040
5694.000000	1.008798
5692.000000	1.012030
5690.000000	1.013711
5688.000000	1.014656
5686.000000	1.015052
5684.000000	1.016836
5682.000000	1.019977
5680.000000	1.022864
5678.000000	1.024844
5676.000000	1.026028
5674.000000	1.027847
5672.000000	1.030162
5670.000000	1.032722
5668.000000	1.035005
5666.000000	1.037057
5664.000000	1.039025
5662.000000	1.040700
5660.000000	1.042469
5658.000000	1.044543
5656.000000	1.047220
5654.000000	1.050338
5652.000000	1.053001
5650.000000	1.054786
5648.000000	1.056024
5646.000000	1.058010
5644.000000	1.059552
5642.000000	1.060817
5640.000000	1.062648
5638.000000	1.065378
5636.000000	1.068811
5634.000000	1.070800
5632.000000	1.072281
5630.000000	1.074234
5628.000000	1.076186
5626.000000	1.077791
5624.000000	1.079040
5622.000000	1.080856
5620.000000	1.083404
5618.000000	1.085479
5616.000000	1.087517
5614.000000	1.090094
5612.000000	1.092788
5610.000000	1.093772
5608.000000	1.094856
5606.000000	1.097302
5604.000000	1.101079
5602.000000	1.103575
5600.000000	1.104724
5598.000000	1.106252
5596.000000	1.108200
5594.000000	1.110272
5592.000000	1.112450
5590.000000	1.114907
5588.000000	1.117084
5586.000000	1.119118
5584.000000	1.121844
5582.000000	1.124425
5580.000000	1.126149
5578.000000	1.126900
5576.000000	1.128056
5574.000000	1.130256
5572.000000	1.132488
5570.000000	1.134717
5568.000000	1.137672
5566.000000	1.140345
5564.000000	1.142557
5562.000000	1.144259
5560.000000	1.146278
5558.000000	1.148804
5556.000000	1.151225
5554.000000	1.153740
5552.000000	1.156038
5550.000000	1.158478
5548.000000	1.161242
5546.000000	1.163575
5544.000000	1.165138
5542.000000	1.166480
5540.000000	1.168353
5538.000000	1.170482
5536.000000	1.172302
5534.000000	1.173859
5532.000000	1.175896
5530.000000	1.178481
5528.000000	1.180795
5526.000000	1.182535
5524.000000	1.184468
5522.000000	1.187419
5520.000000	1.190221
5518.000000	1.192408
5516.000000	1.193677
5514.000000	1.195067
5512.000000	1.197302
5510.000000	1.200427
5508.000000	1.202861
5506.000000	1.204689
5504.000000	1.206366
5502.000000	1.208973
5500.000000	1.211729
5498.000000	1.214060
5496.000000	1.215973
5494.000000	1.217668
5492.000000	1.219123
5490.000000	1.220669
5488.000000	1.222769
5486.000000	1.225618
5484.000000	1.228650
5482.000000	1.230827
5480.000000	1.232874
5478.000000	1.235988
5476.000000	1.237948
5474.000000	1.238382
5472.000000	1.239541
5470.000000	1.242819
5468.000000	1.246697
5466.000000	1.248347
5464.000000	1.248972
5462.000000	1.250888
5460.000000	1.253545
5458.000000	1.256454
5456.000000	1.258669
5454.000000	1.260601
5452.000000	1.263306
5450.000000	1.266265
5448.000000	1.267919
5446.000000	1.269041
5444.000000	1.270853
5442.000000	1.273869
5440.000000	1.276513
5438.000000	1.277749
5436.000000	1.279202
5434.000000	1.281324
5432.000000	1.283686
5430.000000	1.286102
5428.000000	1.287790
5426.000000	1.289441
5424.000000	1.291890
5422.000000	1.295318
5420.000000	1.298969
5418.000000	1.301291
5416.000000	1.302934
5414.000000	1.303169
5412.000000	1.303894
5410.000000	1.306328
5408.000000	1.310480
5406.000000	1.314516
5404.000000	1.317503
5402.000000	1.320887
5400.000000	1.323668
5398.000000	1.325959
5396.000000	1.327230
5394.000000	1.327525
5392.000000	1.327511
5390.000000	1.329450
5388.000000	1.333127
5386.000000	1.335678
5384.000000	1.336455
5382.000000	1.338176
5380.000000	1.341120
5378.000000	1.343480
5376.000000	1.345219
5374.000000	1.348544
5372.000000	1.352258
5370.000000	1.354913
5368.000000	1.357461
5366.000000	1.360079
5364.000000	1.362334
5362.000000	1.363770
5360.000000	1.365715
5358.000000	1.368413
5356.000000	1.371070
5354.000000	1.373409
5352.000000	1.374936
5350.000000	1.375721
5348.000000	1.377629
5346.000000	1.380327
5344.000000	1.382343
5342.000000	1.383661
5340.000000	1.385428
5338.000000	1.387742
5336.000000	1.389738
5334.000000	1.392309
5332.000000	1.395553
5330.000000	1.398762
5328.000000	1.400812
5326.000000	1.402704
5324.000000	1.404136
5322.000000	1.405485
5320.000000	1.407759
5318.000000	1.411380
5316.000000	1.416077
5314.000000	1.419809
5312.000000	1.422088
5310.000000	1.423737
5308.000000	1.424972
5306.000000	1.426460
5304.000000	1.428856
5302.000000	1.432214
5300.000000	1.435016
5298.000000	1.437342
5296.000000	1.440343
5294.000000	1.443815
5292.000000	1.445476
5290.000000	1.445214
5288.000000	1.445478
5286.000000	1.448250
5284.000000	1.452539
5282.000000	1.455719
5280.000000	1.457491
5278.000000	1.459237
5276.000000	1.461952
5274.000000	1.464464
5272.000000	1.466626
5270.000000	1.468433
5268.000000	1.470633
5266.000000	1.472366
5264.000000	1.473489
5262.000000	1.475132
5260.000000	1.477120
5258.000000	1.480610
5256.000000	1.483824
5254.000000	1.485925
5252.000000	1.487677
5250.000000	1.490019
5248.000000	1.492737
5246.000000	1.494602
5244.000000	1.497029
5242.000000	1.500131
5240.000000	1.502728
5238.000000	1.504615
5236.000000	1.506622
5234.000000	1.508466
5232.000000	1.510541
5230.000000	1.514086
5228.000000	1.517911
5226.000000	1.520062
5224.000000	1.520185
5222.000000	1.521385
5220.000000	1.524496
5218.000000	1.527298
5216.000000	1.529560
5214.000000	1.531593
5212.000000	1.533752
5210.000000	1.536254
5208.000000	1.538824
5206.000000	1.541050
5204.000000	1.542544
5202.000000	1.545597
5200.000000	1.549801
5198.000000	1.552969
5196.000000	1.553935
5194.000000	1.554265
5192.000000	1.556535
5190.000000	1.560396
5188.000000	1.563810
5186.000000	1.565569
5184.000000	1.567543
5182.000000	1.570374
5180.000000	1.573816
5178.000000	1.576480
5176.000000	1.579082
5174.000000	1.581106
5172.000000	1.583115
5170.000000	1.585237
5168.000000	1.588374
5166.000000	1.591482
5164.000000	1.593019
5162.000000	1.593317
5160.000000	1.595117
5158.000000	1.599155
5156.000000	1.603263
5154.000000	1.605770
5152.000000	1.607281
5150.000000	1.609084
5148.000000	1.611422
5146.000000	1.614341
5144.000000	1.618027
5142.000000	1.621683
5140.000000	1.623951
5138.000000	1.625401
5136.000000	1.626910
5134.000000	1.629059
5132.000000	1.631612
5130.000000	1.633812
5128.000000	1.634868
5126.000000	1.635885
5124.000000	1.638005
5122.000000	1.640715
5120.000000	1.642724
5118.000000	1.644866
5116.000000	1.646979
5114.000000	1.649296
5112.000000	1.652245
5110.000000	1.656168
5108.000000	1.659921
5106.000000	1.662099
5104.000000	1.663647
5102.000000	1.666597
5100.000000	1.669967
5098.000000	1.672514
5096.000000	1.674326
5094.000000	1.676985
5092.000000	1.679974
5090.000000	1.682257
5088.000000	1.683721
5086.000000	1.685704
5084.000000	1.688815
5082.000000	1.692121
5080.000000	1.694524
5078.000000	1.696879
5076.000000	1.699039
5074.000000	1.701379
5072.000000	1.703724
5070.000000	1.706075
5068.000000	1.708106
5066.000000	1.710582
5064.000000	1.713331
5062.000000	1.715809
5060.000000	1.717462
5058.000000	1.719115
5056.000000	1.721455
5054.000000	1.724097
5052.000000	1.726184
5050.000000	1.728646
5048.000000	1.731970
5046.000000	1.735034
5044.000000	1.737409
5042.000000	1.739458
5040.000000	1.741761
5038.000000	1.744204
5036.000000	1.746832
5034.000000	1.749608
5032.000000	1.752668
5030.000000	1.755734
5028.000000	1.757652
5026.000000	1.759394
5024.000000	1.761880
5022.000000	1.764682
5020.000000	1.767194
5018.000000	1.768918
5016.000000	1.770032
5014.000000	1.771819
5012.000000	1.775293
5010.000000	1.779259
5008.000000	1.782691
5006.000000	1.785151
5004.000000	1.786991
5002.000000	1.789006
5000.000000	1.791490
4998.000000	1.793916
4996.000000	1.796109
4994.000000	1.798211
4992.000000	1.800306
4990.000000	1.802398
4988.000000	1.805254
4986.000000	1.809306
4984.000000	1.813916
4982.000000	1.816855
4980.000000	1.817940
4978.000000	1.819303
4976.000000	1.821566
4974.000000	1.824216
4972.000000	1.826415
4970.000000	1.828571
4968.000000	1.831510
4966.000000	1.834369
4964.000000	1.836025
4962.000000	1.837660
4960.000000	1.840611
4958.000000	1.844216
4956.000000	1.847792
4954.000000	1.850581
4952.000000	1.852395
4950.000000	1.853663
4948.000000	1.855264
4946.000000	1.857222
4944.000000	1.859970
4942.000000	1.863485
4940.000000	1.866595
4938.000000	1.868703
4936.000000	1.870440
4934.000000	1.873021
4932.000000	1.875693
4930.000000	1.878163
4928.000000	1.880904
4926.000000	1.884261
4924.000000	1.887468
4922.000000	1.889631
4920.000000	1.891290
4918.000000	1.893757
4916.000000	1.897199
4914.000000	1.899889
4912.000000	1.901607
4910.000000	1.903358
4908.000000	1.905492
4906.000000	1.908276
4904.000000	1.911817
4902.000000	1.915319
4900.000000	1.918170
4898.000000	1.920202
4896.000000	1.922682
4894.000000	1.925197
4892.000000	1.927444
4890.000000	1.929285
4888.000000	1.931149
4886.000000	1.933533
4884.000000	1.936707
4882.000000	1.940068
4880.000000	1.942565
4878.000000	1.945014
4876.000000	1.947435
4874.000000	1.949398
4872.000000	1.951756
4870.000000	1.955365
4868.000000	1.958973
4866.000000	1.961398
4864.000000	1.962961
4862.000000	1.964413
4860.000000	1.966109
4858.000000	1.969283
4856.000000	1.972770
4854.000000	1.975322
4852.000000	1.978073
4850.000000	1.981298
4848.000000	1.983462
4846.000000	1.983935
4844.000000	1.985287
4842.000000	1.987610
4840.000000	1.991012
4838.000000	1.994413
4836.000000	1.997178
4834.000000	1.999212
4832.000000	2.001815
4830.000000	2.004764
4828.000000	2.007366
4826.000000	2.009691
4824.000000	2.012496
4822.000000	2.015456
4820.000000	2.017861
4818.000000	2.020447
4816.000000	2.023412
4814.000000	2.025658
4812.000000	2.027205
4810.000000	2.029472
4808.000000	2.031712
4806.000000	2.033774
4804.000000	2.037257
4802.000000	2.041330
4800.000000	2.044438
4798.000000	2.046826
4796.000000	2.049443
4794.000000	2.051683
4792.000000	2.053942
4790.000000	2.056371
4788.000000	2.059164
4786.000000	2.062364
4784.000000	2.064727
4782.000000	2.065958
4780.000000	2.068026
4778.000000	2.071617
4776.000000	2.074750
4774.000000	2.077162
4772.000000	2.079670
4770.000000	2.082083
4768.000000	2.084477
4766.000000	2.087357
4764.000000	2.090098
4762.000000	2.092856
4760.000000	2.095390
4758.000000	2.097964
4756.000000	2.100622
4754.000000	2.103097
4752.000000	2.105025
4750.000000	2.107148
4748.000000	2.110172
4746.000000	2.113094
4744.000000	2.115654
4742.000000	2.117943
4740.000000	2.121087
4738.000000	2.124623
4736.000000	2.126928
4734.000000	2.128415
4732.000000	2.130860
4730.000000	2.133278
4728.000000	2.134735
4726.000000	2.137347
4724.000000	2.140943
4722.000000	2.143427
4720.000000	2.145200
4718.000000	2.147949
4716.000000	2.151025
4714.000000	2.154205
4712.000000	2.158078
4710.000000	2.162273
4708.000000	2.165675
4706.000000	2.168202
4704.000000	2.169986
4702.000000	2.171409
4700.000000	2.173984
4698.000000	2.177733
4696.000000	2.180686
4694.000000	2.182556
4692.000000	2.184834
4690.000000	2.187579
4688.000000	2.189639
4686.000000	2.191118
4684.000000	2.192985
4682.000000	2.196402
4680.000000	2.200946
4678.000000	2.204631
4676.000000	2.206398
4674.000000	2.207737
4672.000000	2.210259
4670.000000	2.213642
4668.000000	2.217285
4666.000000	2.220645
4664.000000	2.223508
4662.000000	2.225077
4660.000000	2.226382
4658.000000	2.228951
4656.000000	2.232438
4654.000000	2.236147
4652.000000	2.239776
4650.000000	2.242508
4648.000000	2.243973
4646.000000	2.246076
4644.000000	2.249516
4642.000000	2.252974
4640.000000	2.255664
4638.000000	2.257980
4636.000000	2.260562
4634.000000	2.263198
4632.000000	2.265749
4630.000000	2.268012
4628.000000	2.270247
4626.000000	2.272534
4624.000000	2.275075
4622.000000	2.278245
4620.000000	2.281827
4618.000000	2.284737
4616.000000	2.287135
4614.000000	2.289943
4612.000000	2.292969
4610.000000	2.295789
4608.000000	2.298348
4606.000000	2.301398
4604.000000	2.304501
4602.000000	2.306922
4600.000000	2.308766
4598.000000	2.311186
4596.000000	2.314310
4594.000000	2.317563
4592.000000	2.320888
4590.000000	2.324733
4588.000000	2.328508
4586.000000	2.330826
4584.000000	2.332409
4582.000000	2.334837
4580.000000	2.338199
4578.000000	2.341634
4576.000000	2.344013
4574.000000	2.345239
4572.000000	2.346463
4570.000000	2.348788
4568.000000	2.352362
4566.000000	2.356062
4564.000000	2.359245
4562.000000	2.362194
4560.000000	2.364784
4558.000000	2.366794
4556.000000	2.369446
4554.000000	2.372372
4552.000000	2.374978
4550.000000	2.377561
4548.000000	2.380720
4546.000000	2.384478
4544.000000	2.388238
4542.000000	2.391187
4540.000000	2.393769
4538.000000	2.396440
4536.000000	2.398896
4534.000000	2.401636
4532.000000	2.404194
4530.000000	2.406397
4528.000000	2.409555
4526.000000	2.413615
4524.000000	2.416980
4522.000000	2.418968
4520.000000	2.420606
4518.000000	2.423338
4516.000000	2.426817
4514.000000	2.428812
4512.000000	2.430475
4510.000000	2.433873
4508.000000	2.438119
4506.000000	2.442036
4504.000000	2.444520
4502.000000	2.445465
4500.000000	2.447485
4498.000000	2.451631
4496.000000	2.456024
4494.000000	2.459537
4492.000000	2.462101
4490.000000	2.464128
4488.000000	2.466452
4486.000000	2.468930
4484.000000	2.471902
4482.000000	2.476004
4480.000000	2.480135
4478.000000	2.482277
4476.000000	2.482743
4474.000000	2.484554
4472.000000	2.488088
4470.000000	2.491152
4468.000000	2.493100
4466.000000	2.494254
4464.000000	2.496232
4462.000000	2.499863
4460.000000	2.503496
4458.000000	2.506393
4456.000000	2.509666
4454.000000	2.512997
4452.000000	2.515772
4450.000000	2.517726
4448.000000	2.519782
4446.000000	2.522605
4444.000000	2.525677
4442.000000	2.528945
4440.000000	2.532136
4438.000000	2.534637
4436.000000	2.537092
4434.000000	2.540180
4432.000000	2.543351
4430.000000	2.545791
4428.000000	2.548298
4426.000000	2.550989
4424.000000	2.553374
4422.000000	2.556246
4420.000000	2.560258
4418.000000	2.563818
4416.000000	2.566727
4414.000000	2.569586
4412.000000	2.572618
4410.000000	2.575910
4408.000000	2.578703
4406.000000	2.580113
4404.000000	2.581939
4402.000000	2.585191
4400.000000	2.587901
4398.000000	2.589900
4396.000000	2.593231
4394.000000	2.597636
4392.000000	2.600208
4390.000000	2.600975
4388.000000	2.602638
4386.000000	2.605172
4384.000000	2.607941
4382.000000	2.610786
4380.000000	2.613484
4378.000000	2.617110
4376.000000	2.620681
4374.000000	2.622093
4372.000000	2.623916
4370.000000	2.627616
4368.000000	2.630675
4366.000000	2.632670
4364.000000	2.634881
4362.000000	2.638030
4360.000000	2.641944
4358.000000	2.644855
4356.000000	2.646910
4354.000000	2.649381
4352.000000	2.652297
4350.000000	2.654908
4348.000000	2.657568
4346.000000	2.660927
4344.000000	2.664073
4342.000000	2.666393
4340.000000	2.668481
4338.000000	2.669966
4336.000000	2.672281
4334.000000	2.676714
4332.000000	2.681098
4330.000000	2.684548
4328.000000	2.687426
4326.000000	2.689532
4324.000000	2.692088
4322.000000	2.695809
4320.000000	2.698856
4318.000000	2.701297
4316.000000	2.704278
4314.000000	2.707069
4312.000000	2.709993
4310.000000	2.713842
4308.000000	2.717397
4306.000000	2.720375
4304.000000	2.723255
4302.000000	2.725899
4300.000000	2.727615
4298.000000	2.729407
4296.000000	2.732296
4294.000000	2.735536
4292.000000	2.738583
4290.000000	2.742167
4288.000000	2.746269
4286.000000	2.749064
4284.000000	2.750317
4282.000000	2.752320
4280.000000	2.755384
4278.000000	2.758527
4276.000000	2.761657
4274.000000	2.764546
4272.000000	2.768016
4270.000000	2.771310
4268.000000	2.773503
4266.000000	2.775043
4264.000000	2.776373
4262.000000	2.779017
4260.000000	2.783103
4258.000000	2.786145
4256.000000	2.788483
4254.000000	2.791827
4252.000000	2.795347
4250.000000	2.797363
4248.000000	2.799004
4246.000000	2.802288
4244.000000	2.805461
4242.000000	2.807723
4240.000000	2.811072
4238.000000	2.815121
4236.000000	2.818787
4234.000000	2.822503
4232.000000	2.824956
4230.000000	2.826810
4228.000000	2.829561
4226.000000	2.832076
4224.000000	2.834557
4222.000000	2.838824
4220.000000	2.843048
4218.000000	2.845160
4216.000000	2.847249
4214.000000	2.850846
4212.000000	2.853801
4210.000000	2.855617
4208.000000	2.857828
4206.000000	2.860804
4204.000000	2.864413
4202.000000	2.868289
4200.000000	2.871251
4198.000000	2.873562
4196.000000	2.876278
4194.000000	2.879061
4192.000000	2.881767
4190.000000	2.885030
4188.000000	2.888056
4186.000000	2.890740
4184.000000	2.893715
4182.000000	2.896378
4180.000000	2.899143
4178.000000	2.902954
4176.000000	2.906684
4174.000000	2.909426
4172.000000	2.911752
4170.000000	2.914197
4168.000000	2.916839
4166.000000	2.919677
4164.000000	2.922707
4162.000000	2.925483
4160.000000	2.928274
4158.000000	2.931702
4156.000000	2.934294
4154.000000	2.936531
4152.000000	2.940598
4150.000000	2.945065
4148.000000	2.948296
4146.000000	2.950981
4144.000000	2.953578
4142.000000	2.956706
4140.000000	2.959865
4138.000000	2.962825
4136.000000	2.965968
4134.000000	2.968959
4132.000000	2.972334
4130.000000	2.975528
4128.000000	2.977623
4126.000000	2.980793
4124.000000	2.985188
4122.000000	2.988092
4120.000000	2.989572
4118.000000	2.991745
4116.000000	2.995386
4114.000000	2.999711
4112.000000	3.004011
4110.000000	3.007321
4108.000000	3.009652
4106.000000	3.012098
4104.000000	3.014619
4102.000000	3.017466
4100.000000	3.021548
4098.000000	3.025574
4096.000000	3.027826
4094.000000	3.029095
4092.000000	3.031111
4090.000000	3.034055
4088.000000	3.037573
4086.000000	3.040759
4084.000000	3.043582
4082.000000	3.047239
4080.000000	3.051293
4078.000000	3.054002
4076.000000	3.055893
4074.000000	3.058117
4072.000000	3.060753
4070.000000	3.064383
4068.000000	3.068377
4066.000000	3.071247
4064.000000	3.073994
4062.000000	3.077205
4060.000000	3.080011
4058.000000	3.082893
4056.000000	3.086233
4054.000000	3.089266
4052.000000	3.092371
4050.000000	3.095753
4048.000000	3.098885
4046.000000	3.101844
4044.000000	3.104432
4042.000000	3.107261
4040.000000	3.111025
4038.000000	3.114993
4036.000000	3.118840
4034.000000	3.122752
4032.000000	3.126716
4030.000000	3.129791
4028.000000	3.132107
4026.000000	3.134400
4024.000000	3.136675
4022.000000	3.139971
4020.000000	3.143739
4018.000000	3.147480
4016.000000	3.151335
4014.000000	3.153689
4012.000000	3.155987
4010.000000	3.159900
4008.000000	3.163762
4006.000000	3.166819
4004.000000	3.170086
4002.000000	3.173519
4000.000000	3.176265
3998.000000	3.178179
3996.000000	3.180188
3994.000000	3.183433
3992.000000	3.186904
3990.000000	3.189820
3988.000000	3.192874
3986.000000	3.196083
3984.000000	3.199171
3982.000000	3.202379
3980.000000	3.205943
3978.000000	3.209008
3976.000000	3.211436
3974.000000	3.213860
3972.000000	3.216543
3970.000000	3.219438
3968.000000	3.222065
3966.000000	3.224571
3964.000000	3.227533
3962.000000	3.230975
3960.000000	3.234212
3958.000000	3.236886
3956.000000	3.240219
3954.000000	3.243953
3952.000000	3.246062
3950.000000	3.246611
3948.000000	3.247186
3946.000000	3.250642
3944.000000	3.255649
3942.000000	3.257755
3940.000000	3.260120
3938.000000	3.265638
3936.000000	3.270235
3934.000000	3.270643
3932.000000	3.268578
3930.000000	3.270497
3928.000000	3.277526
3926.000000	3.282692
3924.000000	3.284453
3922.000000	3.287236
3920.000000	3.290393
3918.000000	3.290948
3916.000000	3.292248
3914.000000	3.298805
3912.000000	3.307093
3910.000000	3.311968
3908.000000	3.314297
3906.000000	3.311426
3904.000000	3.299302
3902.000000	3.288837
3900.000000	3.290633
3898.000000	3.302110
3896.000000	3.318484
3894.000000	3.329552
3892.000000	3.327380
3890.000000	3.322632
3888.000000	3.326105
3886.000000	3.325817
3884.000000	3.321602
3882.000000	3.328986
3880.000000	3.337415
3878.000000	3.342925
3876.000000	3.352161
3874.000000	3.353365
3872.000000	3.346267
3870.000000	3.335552
3868.000000	3.330873
3866.000000	3.343053
3864.000000	3.353934
3862.000000	3.358875
3860.000000	3.369578
3858.000000	3.377545
3856.000000	3.362876
3854.000000	3.315990
3852.000000	3.285249
3850.000000	3.320405
3848.000000	3.377819
3846.000000	3.403333
3844.000000	3.403782
3842.000000	3.397939
3840.000000	3.387949
3838.000000	3.369065
3836.000000	3.360513
3834.000000	3.379524
3832.000000	3.401552
3830.000000	3.411952
3828.000000	3.420523
3826.000000	3.426632
3824.000000	3.427512
3822.000000	3.418026
3820.000000	3.404931
3818.000000	3.406078
3816.000000	3.405328
3814.000000	3.406426
3812.000000	3.433771
3810.000000	3.457653
3808.000000	3.451795
3806.000000	3.436128
3804.000000	3.435458
3802.000000	3.432650
3800.000000	3.422509
3798.000000	3.438747
3796.000000	3.464226
3794.000000	3.475377
3792.000000	3.484621
3790.000000	3.491392
3788.000000	3.494401
3786.000000	3.496693
3784.000000	3.496930
3782.000000	3.498233
3780.000000	3.499101
3778.000000	3.498541
3776.000000	3.504386
3774.000000	3.512622
3772.000000	3.513351
3770.000000	3.506540
3768.000000	3.502846
3766.000000	3.508981
3764.000000	3.517438
3762.000000	3.524140
3760.000000	3.524124
3758.000000	3.520074
3756.000000	3.522852
3754.000000	3.518537
3752.000000	3.488538
3750.000000	3.459206
3748.000000	3.465551
3746.000000	3.480116
3744.000000	3.466883
3742.000000	3.474836
3740.000000	3.523511
3738.000000	3.544693
3736.000000	3.527812
3734.000000	3.516415
3732.000000	3.524865
3730.000000	3.544557
3728.000000	3.564666
3726.000000	3.571301
3724.000000	3.570734
3722.000000	3.574799
3720.000000	3.580349
3718.000000	3.587940
3716.000000	3.595569
3714.000000	3.593418
3712.000000	3.576185
3710.000000	3.565406
3708.000000	3.579881
3706.000000	3.602825
3704.000000	3.614517
3702.000000	3.613141
3700.000000	3.612530
3698.000000	3.621556
3696.000000	3.629115
3694.000000	3.629689
3692.000000	3.622860
3690.000000	3.602696
3688.000000	3.582371
3686.000000	3.593721
3684.000000	3.629312
3682.000000	3.649160
3680.000000	3.649433
3678.000000	3.637799
3676.000000	3.609458
3674.000000	3.590798
3672.000000	3.602913
3670.000000	3.610168
3668.000000	3.616568
3666.000000	3.645675
3664.000000	3.668830
3662.000000	3.675720
3660.000000	3.677316
3658.000000	3.672618
3656.000000	3.662219
3654.000000	3.661501
3652.000000	3.663717
3650.000000	3.642957
3648.000000	3.622993
3646.000000	3.637945
3644.000000	3.669758
3642.000000	3.689684
3640.000000	3.696167
3638.000000	3.697654
3636.000000	3.697680
3634.000000	3.696997
3632.000000	3.692565
3630.000000	3.672917
3628.000000	3.648720
3626.000000	3.660266
3624.000000	3.693351
3622.000000	3.704652
3620.000000	3.693105
3618.000000	3.681760
3616.000000	3.687407
3614.000000	3.695874
3612.000000	3.694888
3610.000000	3.691361
3608.000000	3.688625
3606.000000	3.695312
3604.000000	3.710091
3602.000000	3.717563
3600.000000	3.716882
3598.000000	3.715615
3596.000000	3.714800
3594.000000	3.712967
3592.000000	3.713451
3590.000000	3.712910
3588.000000	3.704035
3586.000000	3.698323
3584.000000	3.707769
3582.000000	3.719973
3580.000000	3.723968
3578.000000	3.724021
3576.000000	3.724093
3574.000000	3.724028
3572.000000	3.724181
3570.000000	3.721534
3568.000000	3.710919
3566.000000	3.701213
3564.000000	3.705755
3562.000000	3.715424
3560.000000	3.718908
3558.000000	3.720249
3556.000000	3.722090
3554.000000	3.721517
3552.000000	3.719064
3550.000000	3.718325
3548.000000	3.717094
3546.000000	3.712353
3544.000000	3.709805
3542.000000	3.711834
3540.000000	3.714745
3538.000000	3.715639
3536.000000	3.714078
3534.000000	3.711729
3532.000000	3.709753
3530.000000	3.707115
3528.000000	3.703809
3526.000000	3.700799
3524.000000	3.698107
3522.000000	3.695912
3520.000000	3.694378
3518.000000	3.693336
3516.000000	3.692246
3514.000000	3.688868
3512.000000	3.682983
3510.000000	3.677814
3508.000000	3.674831
3506.000000	3.673087
3504.000000	3.668879
3502.000000	3.662425
3500.000000	3.658459
3498.000000	3.657037
3496.000000	3.654497
3494.000000	3.650775
3492.000000	3.646086
3490.000000	3.639599
3488.000000	3.633244
3486.000000	3.629705
3484.000000	3.628110
3482.000000	3.624315
3480.000000	3.619951
3478.000000	3.618054
3476.000000	3.616387
3474.000000	3.613291
3472.000000	3.609751
3470.000000	3.605772
3468.000000	3.602749
3466.000000	3.601288
3464.000000	3.599699
3462.000000	3.597883
3460.000000	3.596333
3458.000000	3.594839
3456.000000	3.592789
3454.000000	3.590894
3452.000000	3.589122
3450.000000	3.585830
3448.000000	3.581021
3446.000000	3.576377
3444.000000	3.574150
3442.000000	3.573906
3440.000000	3.573540
3438.000000	3.572982
3436.000000	3.573446
3434.000000	3.574526
3432.000000	3.575273
3430.000000	3.576081
3428.000000	3.577895
3426.000000	3.581295
3424.000000	3.584975
3422.000000	3.586118
3420.000000	3.586788
3418.000000	3.588693
3416.000000	3.590459
3414.000000	3.591203
3412.000000	3.591191
3410.000000	3.591775
3408.000000	3.593395
3406.000000	3.593813
3404.000000	3.593057
3402.000000	3.592490
3400.000000	3.593243
3398.000000	3.594438
3396.000000	3.595980
3394.000000	3.598591
3392.000000	3.600156
3390.000000	3.601199
3388.000000	3.603595
3386.000000	3.604919
3384.000000	3.605049
3382.000000	3.605637
3380.000000	3.605867
3378.000000	3.605662
3376.000000	3.606667
3374.000000	3.609279
3372.000000	3.611278
3370.000000	3.612572
3368.000000	3.612585
3366.000000	3.612682
3364.000000	3.614021
3362.000000	3.615471
3360.000000	3.617127
3358.000000	3.617997
3356.000000	3.618149
3354.000000	3.619696
3352.000000	3.621761
3350.000000	3.622143
3348.000000	3.622599
3346.000000	3.623284
3344.000000	3.623950
3342.000000	3.625509
3340.000000	3.626998
3338.000000	3.628818
3336.000000	3.630946
3334.000000	3.631959
3332.000000	3.632908
3330.000000	3.633822
3328.000000	3.633442
3326.000000	3.633196
3324.000000	3.634783
3322.000000	3.637089
3320.000000	3.638715
3318.000000	3.639443
3316.000000	3.640345
3314.000000	3.641914
3312.000000	3.642614
3310.000000	3.642243
3308.000000	3.642938
3306.000000	3.644675
3304.000000	3.645683
3302.000000	3.646182
3300.000000	3.647356
3298.000000	3.649082
3296.000000	3.650140
3294.000000	3.650333
3292.000000	3.651085
3290.000000	3.652393
3288.000000	3.654040
3286.000000	3.655792
3284.000000	3.656526
3282.000000	3.656902
3280.000000	3.658281
3278.000000	3.659965
3276.000000	3.660837
3274.000000	3.661021
3272.000000	3.661567
3270.000000	3.662245
3268.000000	3.663365
3266.000000	3.665875
3264.000000	3.667995
3262.000000	3.668449
3260.000000	3.669717
3258.000000	3.671908
3256.000000	3.672583
3254.000000	3.672821
3252.000000	3.674430
3250.000000	3.676657
3248.000000	3.678105
3246.000000	3.678928
3244.000000	3.679893
3242.000000	3.681760
3240.000000	3.683783
3238.000000	3.684860
3236.000000	3.686552
3234.000000	3.688124
3232.000000	3.689593
3230.000000	3.691189
3228.000000	3.692603
3226.000000	3.693585
3224.000000	3.694841
3222.000000	3.696826
3220.000000	3.697749
3218.000000	3.699341
3216.000000	3.701203
3214.000000	3.701988
3212.000000	3.703982
3210.000000	3.705983
3208.000000	3.707336
3206.000000	3.710509
3204.000000	3.713500
3202.000000	3.715112
3200.000000	3.718104
3198.000000	3.721209
3196.000000	3.723714
3194.000000	3.727252
3192.000000	3.730427
3190.000000	3.732246
3188.000000	3.734060
3186.000000	3.736866
3184.000000	3.739989
3182.000000	3.742269
3180.000000	3.744581
3178.000000	3.748041
3176.000000	3.752260
3174.000000	3.755722
3172.000000	3.757786
3170.000000	3.760213
3168.000000	3.762675
3166.000000	3.765572
3164.000000	3.768952
3162.000000	3.772033
3160.000000	3.774888
3158.000000	3.776636
3156.000000	3.779538
3154.000000	3.783388
3152.000000	3.785596
3150.000000	3.786904
3148.000000	3.789982
3146.000000	3.794817
3144.000000	3.798920
3142.000000	3.801144
3140.000000	3.801965
3138.000000	3.802704
3136.000000	3.804394
3134.000000	3.807432
3132.000000	3.810226
3130.000000	3.813123
3128.000000	3.816361
3126.000000	3.818910
3124.000000	3.821178
3122.000000	3.822874
3120.000000	3.824114
3118.000000	3.825662
3116.000000	3.827618
3114.000000	3.829732
3112.000000	3.831873
3110.000000	3.833605
3108.000000	3.835611
3106.000000	3.838915
3104.000000	3.842475
3102.000000	3.845246
3100.000000	3.847792
3098.000000	3.849844
3096.000000	3.851848
3094.000000	3.855241
3092.000000	3.859322
3090.000000	3.862883
3088.000000	3.865709
3086.000000	3.866418
3084.000000	3.867419
3082.000000	3.870831
3080.000000	3.874138
3078.000000	3.876416
3076.000000	3.879576
3074.000000	3.883283
3072.000000	3.884951
3070.000000	3.885612
3068.000000	3.887265
3066.000000	3.887828
3064.000000	3.888099
3062.000000	3.890231
3060.000000	3.893012
3058.000000	3.895789
3056.000000	3.898383
3054.000000	3.901881
3052.000000	3.905779
3050.000000	3.908443
3048.000000	3.910920
3046.000000	3.913910
3044.000000	3.916627
3042.000000	3.917303
3040.000000	3.918268
3038.000000	3.919806
3036.000000	3.920684
3034.000000	3.921850
3032.000000	3.922730
3030.000000	3.922271
3028.000000	3.919814
3026.000000	3.916949
3024.000000	3.913228
3022.000000	3.907741
3020.000000	3.902753
3018.000000	3.901371
3016.000000	3.904566
3014.000000	3.911574
3012.000000	3.922302
3010.000000	3.934956
3008.000000	3.947626
3006.000000	3.958088
3004.000000	3.965164
3002.000000	3.969471
3000.000000	3.972143
2998.000000	3.974429
2996.000000	3.976652
2994.000000	3.978594
2992.000000	3.980575
2990.000000	3.980971
2988.000000	3.980197
2986.000000	3.979256
2984.000000	3.977942
2982.000000	3.974928
2980.000000	3.969707
2978.000000	3.962546
2976.000000	3.953768
2974.000000	3.941795
2972.000000	3.925340
2970.000000	3.904312
2968.000000	3.879451
2966.000000	3.853791
2964.000000	3.831490
2962.000000	3.817029
2960.000000	3.813480
2958.000000	3.819668
2956.000000	3.830512
2954.000000	3.841783
2952.000000	3.853471
2950.000000	3.863441
2948.000000	3.867156
2946.000000	3.864620
2944.000000	3.856420
2942.000000	3.842308
2940.000000	3.824117
2938.000000	3.802538
2936.000000	3.780773
2934.000000	3.761259
2932.000000	3.743426
2930.000000	3.727128
2928.000000	3.711994
2926.000000	3.699084
2924.000000	3.693844
2922.000000	3.701692
2920.000000	3.725516
2918.000000	3.759362
2916.000000	3.796133
2914.000000	3.832248
2912.000000	3.864175
2910.000000	3.891309
2908.000000	3.914051
2906.000000	3.931413
2904.000000	3.944645
2902.000000	3.957033
2900.000000	3.970187
2898.000000	3.982250
2896.000000	3.993006
2894.000000	4.002817
2892.000000	4.012425
2890.000000	4.021882
2888.000000	4.029551
2886.000000	4.035577
2884.000000	4.041509
2882.000000	4.045539
2880.000000	4.046938
2878.000000	4.046159
2876.000000	4.043181
2874.000000	4.038409
2872.000000	4.030816
2870.000000	4.018432
2868.000000	4.001378
2866.000000	3.979402
2864.000000	3.954652
2862.000000	3.933662
2860.000000	3.922434
2858.000000	3.922863
2856.000000	3.931738
2854.000000	3.945842
2852.000000	3.962623
2850.000000	3.981877
2848.000000	4.005911
2846.000000	4.034350
2844.000000	4.062509
2842.000000	4.083555
2840.000000	4.098473
2838.000000	4.111655
2836.000000	4.123419
2834.000000	4.132523
2832.000000	4.139403
2830.000000	4.145479
2828.000000	4.151364
2826.000000	4.156200
2824.000000	4.161094
2822.000000	4.165397
2820.000000	4.169475
2818.000000	4.173785
2816.000000	4.177566
2814.000000	4.180605
2812.000000	4.182799
2810.000000	4.184993
2808.000000	4.187831
2806.000000	4.190390
2804.000000	4.192486
2802.000000	4.195367
2800.000000	4.197841
2798.000000	4.199445
2796.000000	4.201266
2794.000000	4.203165
2792.000000	4.205517
2790.000000	4.208737
2788.000000	4.210854
2786.000000	4.214136
2784.000000	4.218776
2782.000000	4.222731
2780.000000	4.225844
2778.000000	4.227892
2776.000000	4.230759
2774.000000	4.234313
2772.000000	4.236965
2770.000000	4.239173
2768.000000	4.241877
2766.000000	4.243582
2764.000000	4.244664
2762.000000	4.246470
2760.000000	4.247605
2758.000000	4.249511
2756.000000	4.252204
2754.000000	4.254432
2752.000000	4.256617
2750.000000	4.257760
2748.000000	4.258763
2746.000000	4.260209
2744.000000	4.261909
2742.000000	4.263832
2740.000000	4.265817
2738.000000	4.267820
2736.000000	4.269112
2734.000000	4.269927
2732.000000	4.269820
2730.000000	4.270016
2728.000000	4.272556
2726.000000	4.274838
2724.000000	4.275734
2722.000000	4.275966
2720.000000	4.276941
2718.000000	4.278038
2716.000000	4.278339
2714.000000	4.278466
2712.000000	4.278492
2710.000000	4.278642
2708.000000	4.279445
2706.000000	4.280240
2704.000000	4.280296
2702.000000	4.280957
2700.000000	4.281796
2698.000000	4.282156
2696.000000	4.282752
2694.000000	4.284253
2692.000000	4.287210
2690.000000	4.288476
2688.000000	4.288425
2686.000000	4.289315
2684.000000	4.291051
2682.000000	4.292539
2680.000000	4.292646
2678.000000	4.292930
2676.000000	4.293219
2674.000000	4.293722
2672.000000	4.294438
2670.000000	4.294328
2668.000000	4.293886
2666.000000	4.294251
2664.000000	4.294429
2662.000000	4.294057
2660.000000	4.294904
2658.000000	4.296234
2656.000000	4.296945
2654.000000	4.296315
2652.000000	4.297354
2650.000000	4.299613
2648.000000	4.300324
2646.000000	4.301432
2644.000000	4.303098
2642.000000	4.303772
2640.000000	4.304669
2638.000000	4.305923
2636.000000	4.306731
2634.000000	4.307086
2632.000000	4.306526
2630.000000	4.307157
2628.000000	4.307922
2626.000000	4.308065
2624.000000	4.309865
2622.000000	4.312111
2620.000000	4.312885
2618.000000	4.313614
2616.000000	4.315168
2614.000000	4.315725
2612.000000	4.315999
2610.000000	4.316171
2608.000000	4.316849
2606.000000	4.317394
2604.000000	4.317913
2602.000000	4.319133
2600.000000	4.320037
2598.000000	4.320137
2596.000000	4.320258
2594.000000	4.320108
2592.000000	4.320255
2590.000000	4.320812
2588.000000	4.321612
2586.000000	4.323748
2584.000000	4.326532
2582.000000	4.328239
2580.000000	4.329922
2578.000000	4.331902
2576.000000	4.334141
2574.000000	4.336609
2572.000000	4.339039
2570.000000	4.340590
2568.000000	4.340875
2566.000000	4.341458
2564.000000	4.342951
2562.000000	4.344402
2560.000000	4.345786
2558.000000	4.346309
2556.000000	4.346549
2554.000000	4.347632
2552.000000	4.349687
2550.000000	4.351161
2548.000000	4.350963
2546.000000	4.351793
2544.000000	4.353910
2542.000000	4.354933
2540.000000	4.355838
2538.000000	4.357546
2536.000000	4.359494
2534.000000	4.360981
2532.000000	4.361471
2530.000000	4.361874
2528.000000	4.363561
2526.000000	4.364415
2524.000000	4.364889
2522.000000	4.366323
2520.000000	4.367212
2518.000000	4.368263
2516.000000	4.369149
2514.000000	4.369399
2512.000000	4.370088
2510.000000	4.370885
2508.000000	4.372656
2506.000000	4.374623
2504.000000	4.375383
2502.000000	4.375855
2500.000000	4.376601
2498.000000	4.377484
2496.000000	4.378592
2494.000000	4.379415
2492.000000	4.381504
2490.000000	4.383508
2488.000000	4.383792
2486.000000	4.383855
2484.000000	4.384910
2482.000000	4.385749
2480.000000	4.386208
2478.000000	4.387659
2476.000000	4.389426
2474.000000	4.390179
2472.000000	4.390519
2470.000000	4.391571
2468.000000	4.392951
2466.000000	4.393867
2464.000000	4.394583
2462.000000	4.394520
2460.000000	4.393690
2458.000000	4.393703
2456.000000	4.394219
2454.000000	4.394878
2452.000000	4.396375
2450.000000	4.397872
2448.000000	4.397822
2446.000000	4.396618
2444.000000	4.396894
2442.000000	4.398948
2440.000000	4.400370
2438.000000	4.400640
2436.000000	4.401175
2434.000000	4.402129
2432.000000	4.402497
2430.000000	4.402316
2428.000000	4.402967
2426.000000	4.403949
2424.000000	4.404645
2422.000000	4.404739
2420.000000	4.404614
2418.000000	4.404913
2416.000000	4.405631
2414.000000	4.405981
2412.000000	4.406541
2410.000000	4.407118
2408.000000	4.407821
2406.000000	4.409531
2404.000000	4.410588
2402.000000	4.409566
2400.000000	4.410277
2398.000000	4.411878
2396.000000	4.412700
2394.000000	4.413650
2392.000000	4.413825
2390.000000	4.414366
2388.000000	4.415720
2386.000000	4.417609
2384.000000	4.418599
2382.000000	4.416961
2380.000000	4.413482
2378.000000	4.408494
2376.000000	4.402831
2374.000000	4.396369
2372.000000	4.386797
2370.000000	4.374620
2368.000000	4.362842
2366.000000	4.352618
2364.000000	4.345557
2362.000000	4.341774
2360.000000	4.340594
2358.000000	4.343941
2356.000000	4.353680
2354.000000	4.368109
2352.000000	4.384296
2350.000000	4.399180
2348.000000	4.406356
2346.000000	4.399276
2344.000000	4.383291
2342.000000	4.366710
2340.000000	4.353891
2338.000000	4.347533
2336.000000	4.351392
2334.000000	4.357991
2332.000000	4.361222
2330.000000	4.365231
2328.000000	4.371846
2326.000000	4.378166
2324.000000	4.383439
2322.000000	4.389170
2320.000000	4.394690
2318.000000	4.400130
2316.000000	4.405216
2314.000000	4.408685
2312.000000	4.412061
2310.000000	4.415349
2308.000000	4.418557
2306.000000	4.421254
2304.000000	4.423145
2302.000000	4.424183
2300.000000	4.425267
2298.000000	4.425671
2296.000000	4.425746
2294.000000	4.426479
2292.000000	4.427623
2290.000000	4.427554
2288.000000	4.426857
2286.000000	4.427039
2284.000000	4.427826
2282.000000	4.428294
2280.000000	4.428503
2278.000000	4.427283
2276.000000	4.426509
2274.000000	4.426817
2272.000000	4.427068
2270.000000	4.426480
2268.000000	4.426284
2266.000000	4.426465
2264.000000	4.426355
2262.000000	4.426910
2260.000000	4.428206
2258.000000	4.428747
2256.000000	4.429404
2254.000000	4.429062
2252.000000	4.427767
2250.000000	4.428497
2248.000000	4.429612
2246.000000	4.428867
2244.000000	4.428514
2242.000000	4.431022
2240.000000	4.433880
2238.000000	4.434690
2236.000000	4.435039
2234.000000	4.434982
2232.000000	4.436076
2230.000000	4.438126
2228.000000	4.439838
2226.000000	4.442142
2224.000000	4.443337
2222.000000	4.441902
2220.000000	4.441363
2218.000000	4.442919
2216.000000	4.443078
2214.000000	4.443184
2212.000000	4.444272
2210.000000	4.445507
2208.000000	4.446289
2206.000000	4.446611
2204.000000	4.447633
2202.000000	4.450018
2200.000000	4.451001
2198.000000	4.450813
2196.000000	4.451207
2194.000000	4.451355
2192.000000	4.451790
2190.000000	4.452591
2188.000000	4.453458
2186.000000	4.454501
2184.000000	4.455301
2182.000000	4.454223
2180.000000	4.453466
2178.000000	4.454559
2176.000000	4.455171
2174.000000	4.454448
2172.000000	4.454157
2170.000000	4.454623
2168.000000	4.454685
2166.000000	4.455011
2164.000000	4.455216
2162.000000	4.455819
2160.000000	4.457187
2158.000000	4.457434
2156.000000	4.455936
2154.000000	4.456591
2152.000000	4.458465
2150.000000	4.458619
2148.000000	4.457942
2146.000000	4.458402
2144.000000	4.459766
2142.000000	4.460708
2140.000000	4.460789
2138.000000	4.460879
2136.000000	4.461827
2134.000000	4.462022
2132.000000	4.462301
2130.000000	4.463491
2128.000000	4.463041
2126.000000	4.462480
2124.000000	4.464012
2122.000000	4.464184
2120.000000	4.463674
2118.000000	4.464528
2116.000000	4.465197
2114.000000	4.465600
2112.000000	4.465873
2110.000000	4.467024
2108.000000	4.468331
2106.000000	4.468762
2104.000000	4.469445
2102.000000	4.470584
2100.000000	4.471423
2098.000000	4.471929
2096.000000	4.472010
2094.000000	4.471575
2092.000000	4.472189
2090.000000	4.473701
2088.000000	4.475273
2086.000000	4.475544
2084.000000	4.476683
2082.000000	4.478821
2080.000000	4.480173
2078.000000	4.481757
2076.000000	4.483193
2074.000000	4.483641
2072.000000	4.484103
2070.000000	4.484635
2068.000000	4.485334
2066.000000	4.486030
2064.000000	4.486339
2062.000000	4.488048
2060.000000	4.490019
2058.000000	4.491714
2056.000000	4.492857
2054.000000	4.493328
2052.000000	4.494980
2050.000000	4.496525
2048.000000	4.497018
2046.000000	4.498312
2044.000000	4.499063
2042.000000	4.500003
2040.000000	4.500694
2038.000000	4.501902
2036.000000	4.502853
2034.000000	4.503431
2032.000000	4.504380
2030.000000	4.502959
2028.000000	4.502050
2026.000000	4.504856
2024.000000	4.507725
2022.000000	4.508738
2020.000000	4.507571
2018.000000	4.505838
2016.000000	4.506971
2014.000000	4.509495
2012.000000	4.511171
2010.000000	4.511949
2008.000000	4.512151
2006.000000	4.512821
2004.000000	4.514275
2002.000000	4.515135
2000.000000	4.515178
1998.000000	4.515781
1996.000000	4.517056
1994.000000	4.516652
1992.000000	4.512440
1990.000000	4.511316
1988.000000	4.514488
1986.000000	4.515985
1984.000000	4.515925
1982.000000	4.515292
1980.000000	4.515442
1978.000000	4.515239
1976.000000	4.515351
1974.000000	4.514804
1972.000000	4.513396
1970.000000	4.510765
1968.000000	4.506850
1966.000000	4.505508
1964.000000	4.507272
1962.000000	4.506507
1960.000000	4.501653
1958.000000	4.496425
1956.000000	4.498748
1954.000000	4.501750
1952.000000	4.501813
1950.000000	4.501688
1948.000000	4.500486
1946.000000	4.497621
1944.000000	4.493148
1942.000000	4.488409
1940.000000	4.489691
1938.000000	4.492050
1936.000000	4.492142
1934.000000	4.492085
1932.000000	4.491540
1930.000000	4.490322
1928.000000	4.488279
1926.000000	4.484991
1924.000000	4.481068
1922.000000	4.478263
1920.000000	4.475463
1918.000000	4.465488
1916.000000	4.464572
1914.000000	4.471989
1912.000000	4.471566
1910.000000	4.466584
1908.000000	4.463305
1906.000000	4.461857
1904.000000	4.460306
1902.000000	4.458910
1900.000000	4.457015
1898.000000	4.454424
1896.000000	4.450306
1894.000000	4.447667
1892.000000	4.446746
1890.000000	4.442275
1888.000000	4.440084
1886.000000	4.442863
1884.000000	4.443227
1882.000000	4.443265
1880.000000	4.442397
1878.000000	4.441636
1876.000000	4.441324
1874.000000	4.440656
1872.000000	4.436017
1870.000000	4.422234
1868.000000	4.411102
1866.000000	4.419135
1864.000000	4.428778
1862.000000	4.430600
1860.000000	4.429432
1858.000000	4.429084
1856.000000	4.427921
1854.000000	4.425721
1852.000000	4.423400
1850.000000	4.420499
1848.000000	4.414845
1846.000000	4.400994
1844.000000	4.379027
1842.000000	4.386894
1840.000000	4.407228
1838.000000	4.408419
1836.000000	4.405593
1834.000000	4.403824
1832.000000	4.395745
1830.000000	4.378793
1828.000000	4.376076
1826.000000	4.378511
1824.000000	4.374852
1822.000000	4.379679
1820.000000	4.381538
1818.000000	4.378579
1816.000000	4.374468
1814.000000	4.371142
1812.000000	4.363115
1810.000000	4.355853
1808.000000	4.354684
1806.000000	4.354934
1804.000000	4.349288
1802.000000	4.337155
1800.000000	4.327223
1798.000000	4.328330
1796.000000	4.328000
1794.000000	4.309360
1792.000000	4.283499
1790.000000	4.290444
1788.000000	4.307095
1786.000000	4.302621
1784.000000	4.292518
1782.000000	4.289307
1780.000000	4.283459
1778.000000	4.282552
1776.000000	4.277333
1774.000000	4.248277
1772.000000	4.213477
1770.000000	4.222633
1768.000000	4.237991
1766.000000	4.246245
1764.000000	4.249661
1762.000000	4.230472
1760.000000	4.224473
1758.000000	4.227248
1756.000000	4.219517
1754.000000	4.216215
1752.000000	4.190262
1750.000000	4.165303
1748.000000	4.172693
1746.000000	4.180111
1744.000000	4.175639
1742.000000	4.163447
1740.000000	4.145089
1738.000000	4.140757
1736.000000	4.123063
1734.000000	4.064613
1732.000000	4.073866
1730.000000	4.123578
1728.000000	4.139938
1726.000000	4.143802
1724.000000	4.139175
1722.000000	4.133617
1720.000000	4.111783
1718.000000	4.054839
1716.000000	4.034899
1714.000000	4.073306
1712.000000	4.100996
1710.000000	4.106125
1708.000000	4.094151
1706.000000	4.074488
1704.000000	4.063023
1702.000000	4.034314
1700.000000	3.973786
1698.000000	3.981207
1696.000000	3.980513
1694.000000	4.001299
1692.000000	4.059583
1690.000000	4.067279
1688.000000	4.055552
1686.000000	4.004135
1684.000000	3.943146
1682.000000	3.982581
1680.000000	4.037603
1678.000000	4.042767
1676.000000	4.016808
1674.000000	4.000203
1672.000000	4.011488
1670.000000	3.994341
1668.000000	3.991044
1666.000000	4.013254
1664.000000	4.009138
1662.000000	3.992056
1660.000000	4.000995
1658.000000	4.005335
1656.000000	3.975001
1654.000000	3.873914
1652.000000	3.820321
1650.000000	3.903046
1648.000000	3.934083
1646.000000	3.904006
1644.000000	3.922914
1642.000000	3.952767
1640.000000	3.950237
1638.000000	3.924113
1636.000000	3.870462
1634.000000	3.863318
1632.000000	3.904923
1630.000000	3.911264
1628.000000	3.892761
1626.000000	3.876485
1624.000000	3.851582
1622.000000	3.831264
1620.000000	3.826157
1618.000000	3.783742
1616.000000	3.736816
1614.000000	3.750020
1612.000000	3.752976
1610.000000	3.723761
1608.000000	3.702809
1606.000000	3.699084
1604.000000	3.706389
1602.000000	3.714998
1600.000000	3.726627
1598.000000	3.736343
1596.000000	3.742198
1594.000000	3.746033
1592.000000	3.750165
1590.000000	3.750484
1588.000000	3.748725
1586.000000	3.746868
1584.000000	3.744953
1582.000000	3.741572
1580.000000	3.738451
1578.000000	3.711527
1576.000000	3.664913
1574.000000	3.683618
1572.000000	3.717581
1570.000000	3.697734
1568.000000	3.691897
1566.000000	3.701512
1564.000000	3.694654
1562.000000	3.659227
1560.000000	3.568342
1558.000000	3.524623
1556.000000	3.585052
1554.000000	3.631385
1552.000000	3.661221
1550.000000	3.681627
1548.000000	3.691924
1546.000000	3.689315
1544.000000	3.670504
1542.000000	3.640537
1540.000000	3.605034
1538.000000	3.635352
1536.000000	3.711056
1534.000000	3.724399
1532.000000	3.728393
1530.000000	3.749124
1528.000000	3.747278
1526.000000	3.731167
1524.000000	3.718665
1522.000000	3.685684
1520.000000	3.672959
1518.000000	3.697042
1516.000000	3.701682
1514.000000	3.705219
1512.000000	3.699460
1510.000000	3.682705
1508.000000	3.627181
1506.000000	3.568693
1504.000000	3.588867
1502.000000	3.598429
1500.000000	3.514822
1498.000000	3.374383
1496.000000	3.243630
1494.000000	3.203004
1492.000000	3.238156
1490.000000	3.300385
1488.000000	3.380943
1486.000000	3.458565
1484.000000	3.516060
1482.000000	3.546421
1480.000000	3.559710
1478.000000	3.559818
1476.000000	3.543349
1474.000000	3.515482
1472.000000	3.495889
1470.000000	3.513300
1468.000000	3.523838
1466.000000	3.499730
1464.000000	3.475309
1462.000000	3.470289
1460.000000	3.441279
1458.000000	3.361232
1456.000000	3.295977
1454.000000	3.295319
1452.000000	3.286562
1450.000000	3.277122
1448.000000	3.301789
1446.000000	3.348115
1444.000000	3.380384
1442.000000	3.389400
1440.000000	3.388481
1438.000000	3.367468
1436.000000	3.349433
1434.000000	3.374480
1432.000000	3.390853
1430.000000	3.386625
1428.000000	3.387715
1426.000000	3.390091
1424.000000	3.385846
1422.000000	3.379648
1420.000000	3.352056
1418.000000	3.336665
1416.000000	3.353709
1414.000000	3.357906
1412.000000	3.346403
1410.000000	3.326703
1408.000000	3.298047
1406.000000	3.259365
1404.000000	3.232431
1402.000000	3.230394
1400.000000	3.235307
1398.000000	3.249656
1396.000000	3.267844
1394.000000	3.279952
1392.000000	3.300365
1390.000000	3.307608
1388.000000	3.292489
1386.000000	3.279499
1384.000000	3.277308
1382.000000	3.280600
1380.000000	3.286685
1378.000000	3.286095
1376.000000	3.279146
1374.000000	3.270051
1372.000000	3.270052
1370.000000	3.270352
1368.000000	3.263992
1366.000000	3.257467
1364.000000	3.247194
1362.000000	3.235645
1360.000000	3.232930
1358.000000	3.231594
1356.000000	3.224671
1354.000000	3.215640
1352.000000	3.206572
1350.000000	3.198130
1348.000000	3.190032
1346.000000	3.180160
1344.000000	3.169788
1342.000000	3.158706
1340.000000	3.146708
1338.000000	3.139813
1336.000000	3.137716
1334.000000	3.134188
1332.000000	3.129023
1330.000000	3.122163
1328.000000	3.113973
1326.000000	3.104786
1324.000000	3.094611
1322.000000	3.082809
1320.000000	3.069523
1318.000000	3.055902
1316.000000	3.043852
1314.000000	3.031281
1312.000000	3.019250
1310.000000	3.007760
1308.000000	2.993776
1306.000000	2.978924
1304.000000	2.965586
1302.000000	2.951862
1300.000000	2.936869
1298.000000	2.921269
1296.000000	2.907920
1294.000000	2.894060
1292.000000	2.878649
1290.000000	2.861849
1288.000000	2.844191
1286.000000	2.827346
1284.000000	2.809410
1282.000000	2.790507
1280.000000	2.771912
1278.000000	2.750673
1276.000000	2.727285
1274.000000	2.701338
1272.000000	2.669721
1270.000000	2.629830
1268.000000	2.579561
1266.000000	2.516985
1264.000000	2.447605
1262.000000	2.385158
1260.000000	2.348970
1258.000000	2.344653
1256.000000	2.361749
1254.000000	2.382761
1252.000000	2.394537
1250.000000	2.392270
1248.000000	2.378471
1246.000000	2.358681
1244.000000	2.336939
1242.000000	2.314489
1240.000000	2.291967
1238.000000	2.269273
1236.000000	2.247828
1234.000000	2.225922
1232.000000	2.204151
1230.000000	2.183241
1228.000000	2.163733
1226.000000	2.143329
1224.000000	2.123026
1222.000000	2.102675
1220.000000	2.082532
1218.000000	2.060738
1216.000000	2.036856
1214.000000	2.013929
1212.000000	1.993016
1210.000000	1.972301
1208.000000	1.951581
1206.000000	1.932499
1204.000000	1.914539
1202.000000	1.897159
1200.000000	1.880128
1198.000000	1.861630
1196.000000	1.843786
1194.000000	1.826838
1192.000000	1.808150
1190.000000	1.788255
1188.000000	1.768760
1186.000000	1.748666
1184.000000	1.725388
1182.000000	1.694803
1180.000000	1.666018
1178.000000	1.651261
1176.000000	1.641443
1174.000000	1.625955
1172.000000	1.607097
1170.000000	1.587607
1168.000000	1.567725
1166.000000	1.547287
1164.000000	1.526522
1162.000000	1.505564
1160.000000	1.485655
1158.000000	1.467901
1156.000000	1.450340
1154.000000	1.431312
1152.000000	1.411173
1150.000000	1.391897
1148.000000	1.373523
1146.000000	1.355308
1144.000000	1.337018
1142.000000	1.320370
1140.000000	1.306566
1138.000000	1.292904
1136.000000	1.277921
1134.000000	1.261705
1132.000000	1.244473
1130.000000	1.226101
1128.000000	1.209155
1126.000000	1.191508
1124.000000	1.172535
1122.000000	1.153772
1120.000000	1.135509
1118.000000	1.116437
1116.000000	1.096026
1114.000000	1.075889
1112.000000	1.056634
1110.000000	1.037074
1108.000000	1.017094
1106.000000	0.997435
1104.000000	0.979991
1102.000000	0.963453
1100.000000	0.946454
1098.000000	0.930068
1096.000000	0.913694
1094.000000	0.896681
1092.000000	0.880469
1090.000000	0.865613
1088.000000	0.850889
1086.000000	0.837046
1084.000000	0.824689
1082.000000	0.811378
1080.000000	0.797809
1078.000000	0.786485
1076.000000	0.776333
1074.000000	0.767685
1072.000000	0.760433
1070.000000	0.753140
1068.000000	0.744027
1066.000000	0.734095
1064.000000	0.724693
1062.000000	0.715765
1060.000000	0.706814
1058.000000	0.696833
1056.000000	0.683327
1054.000000	0.663639
1052.000000	0.643452
1050.000000	0.630563
1048.000000	0.627573
1046.000000	0.629991
1044.000000	0.632142
1042.000000	0.630962
1040.000000	0.624317
1038.000000	0.615743
1036.000000	0.606908
1034.000000	0.597327
1032.000000	0.587645
1030.000000	0.577193
1028.000000	0.566224
1026.000000	0.554923
1024.000000	0.544757
1022.000000	0.535754
1020.000000	0.526004
1018.000000	0.516772
1016.000000	0.509621
1014.000000	0.502172
1012.000000	0.495366
1010.000000	0.490142
1008.000000	0.487732
1006.000000	0.484103
1004.000000	0.477598
1002.000000	0.470271
1000.000000	0.462383
