PE IR       SUBTECH     SPECTRUM    ASCII       PEDS        4.00        
   -1
TE108B2_018_108K.ASC
20/02/27
14:21:02.00
20/02/27
14:21:02.00
Administrator
Sample 018 By Administrator Date Thursday, February 27 2020
1500.000000
#HDR
-1
-1
#GR
cm-1
A
1.0
0.0
4000.000000
-1.000000
2501
8
0.848195
0.807461
#DATA
4000.000000	0.814129
3999.000000	0.814149
3998.000000	0.814147
3997.000000	0.814118
3996.000000	0.814076
3995.000000	0.814047
3994.000000	0.814053
3993.000000	0.814094
3992.000000	0.814146
3991.000000	0.814170
3990.000000	0.814148
3989.000000	0.814091
3988.000000	0.814034
3987.000000	0.814010
3986.000000	0.814021
3985.000000	0.814050
3984.000000	0.814073
3983.000000	0.814078
3982.000000	0.814062
3981.000000	0.814031
3980.000000	0.813991
3979.000000	0.813953
3978.000000	0.813929
3977.000000	0.813924
3976.000000	0.813925
3975.000000	0.813914
3974.000000	0.813877
3973.000000	0.813828
3972.000000	0.813793
3971.000000	0.813793
3970.000000	0.813820
3969.000000	0.813843
3968.000000	0.813835
3967.000000	0.813790
3966.000000	0.813731
3965.000000	0.813684
3964.000000	0.813663
3963.000000	0.813656
3962.000000	0.813642
3961.000000	0.813615
3960.000000	0.813582
3959.000000	0.813557
3958.000000	0.813542
3957.000000	0.813531
3956.000000	0.813517
3955.000000	0.813502
3954.000000	0.813486
3953.000000	0.813469
3952.000000	0.813441
3951.000000	0.813397
3950.000000	0.813343
3949.000000	0.813287
3948.000000	0.813239
3947.000000	0.813198
3946.000000	0.813155
3945.000000	0.813105
3944.000000	0.813049
3943.000000	0.812995
3942.000000	0.812955
3941.000000	0.812938
3940.000000	0.812944
3939.000000	0.812961
3938.000000	0.812967
3937.000000	0.812942
3936.000000	0.812882
3935.000000	0.812804
3934.000000	0.812734
3933.000000	0.812687
3932.000000	0.812656
3931.000000	0.812628
3930.000000	0.812588
3929.000000	0.812534
3928.000000	0.812477
3927.000000	0.812432
3926.000000	0.812413
3925.000000	0.812415
3924.000000	0.812421
3923.000000	0.812404
3922.000000	0.812345
3921.000000	0.812248
3920.000000	0.812141
3919.000000	0.812058
3918.000000	0.812018
3917.000000	0.812017
3916.000000	0.812026
3915.000000	0.812017
3914.000000	0.811979
3913.000000	0.811916
3912.000000	0.811850
3911.000000	0.811802
3910.000000	0.811781
3909.000000	0.811776
3908.000000	0.811760
3907.000000	0.811707
3906.000000	0.811611
3905.000000	0.811490
3904.000000	0.811381
3903.000000	0.811308
3902.000000	0.811273
3901.000000	0.811259
3900.000000	0.811245
3899.000000	0.811222
3898.000000	0.811199
3897.000000	0.811185
3896.000000	0.811188
3895.000000	0.811197
3894.000000	0.811199
3893.000000	0.811178
3892.000000	0.811131
3891.000000	0.811065
3890.000000	0.810996
3889.000000	0.810941
3888.000000	0.810906
3887.000000	0.810881
3886.000000	0.810847
3885.000000	0.810794
3884.000000	0.810726
3883.000000	0.810666
3882.000000	0.810633
3881.000000	0.810636
3880.000000	0.810663
3879.000000	0.810696
3878.000000	0.810716
3877.000000	0.810707
3876.000000	0.810665
3875.000000	0.810598
3874.000000	0.810522
3873.000000	0.810452
3872.000000	0.810391
3871.000000	0.810332
3870.000000	0.810266
3869.000000	0.810196
3868.000000	0.810134
3867.000000	0.810087
3866.000000	0.810058
3865.000000	0.810040
3864.000000	0.810025
3863.000000	0.810004
3862.000000	0.809969
3861.000000	0.809922
3860.000000	0.809875
3859.000000	0.809838
3858.000000	0.809808
3857.000000	0.809763
3856.000000	0.809674
3855.000000	0.809532
3854.000000	0.809362
3853.000000	0.809217
3852.000000	0.809154
3851.000000	0.809196
3850.000000	0.809321
3849.000000	0.809478
3848.000000	0.809612
3847.000000	0.809686
3846.000000	0.809693
3845.000000	0.809644
3844.000000	0.809563
3843.000000	0.809474
3842.000000	0.809392
3841.000000	0.809320
3840.000000	0.809246
3839.000000	0.809158
3838.000000	0.809058
3837.000000	0.808968
3836.000000	0.808918
3835.000000	0.808924
3834.000000	0.808974
3833.000000	0.809034
3832.000000	0.809069
3831.000000	0.809069
3830.000000	0.809047
3829.000000	0.809025
3828.000000	0.809017
3827.000000	0.809020
3826.000000	0.809019
3825.000000	0.808999
3824.000000	0.808947
3823.000000	0.808859
3822.000000	0.808743
3821.000000	0.808628
3820.000000	0.808550
3819.000000	0.808529
3818.000000	0.808548
3817.000000	0.808569
3816.000000	0.808564
3815.000000	0.808540
3814.000000	0.808529
3813.000000	0.808559
3812.000000	0.808624
3811.000000	0.808688
3810.000000	0.808710
3809.000000	0.808672
3808.000000	0.808579
3807.000000	0.808462
3806.000000	0.808364
3805.000000	0.808314
3804.000000	0.808312
3803.000000	0.808327
3802.000000	0.808323
3801.000000	0.808289
3800.000000	0.808250
3799.000000	0.808241
3798.000000	0.808276
3797.000000	0.808341
3796.000000	0.808405
3795.000000	0.808447
3794.000000	0.808463
3793.000000	0.808458
3792.000000	0.808445
3791.000000	0.808435
3790.000000	0.808437
3789.000000	0.808451
3788.000000	0.808466
3787.000000	0.808467
3786.000000	0.808443
3785.000000	0.808400
3784.000000	0.808352
3783.000000	0.808321
3782.000000	0.808314
3781.000000	0.808319
3780.000000	0.808318
3779.000000	0.808298
3778.000000	0.808264
3777.000000	0.808235
3776.000000	0.808228
3775.000000	0.808245
3774.000000	0.808269
3773.000000	0.808279
3772.000000	0.808255
3771.000000	0.808201
3770.000000	0.808137
3769.000000	0.808088
3768.000000	0.808069
3767.000000	0.808073
3766.000000	0.808086
3765.000000	0.808100
3764.000000	0.808113
3763.000000	0.808125
3762.000000	0.808122
3761.000000	0.808093
3760.000000	0.808036
3759.000000	0.807972
3758.000000	0.807928
3757.000000	0.807916
3756.000000	0.807923
3755.000000	0.807915
3754.000000	0.807866
3753.000000	0.807775
3752.000000	0.807674
3751.000000	0.807601
3750.000000	0.807579
3749.000000	0.807594
3748.000000	0.807613
3747.000000	0.807605
3746.000000	0.807558
3745.000000	0.807496
3744.000000	0.807461
3743.000000	0.807494
3742.000000	0.807595
3741.000000	0.807718
3740.000000	0.807800
3739.000000	0.807801
3738.000000	0.807739
3737.000000	0.807664
3736.000000	0.807622
3735.000000	0.807626
3734.000000	0.807657
3733.000000	0.807689
3732.000000	0.807710
3731.000000	0.807727
3730.000000	0.807756
3729.000000	0.807805
3728.000000	0.807866
3727.000000	0.807914
3726.000000	0.807930
3725.000000	0.807915
3724.000000	0.807892
3723.000000	0.807891
3722.000000	0.807927
3721.000000	0.807998
3720.000000	0.808083
3719.000000	0.808157
3718.000000	0.808201
3717.000000	0.808207
3716.000000	0.808191
3715.000000	0.808176
3714.000000	0.808184
3713.000000	0.808215
3712.000000	0.808257
3711.000000	0.808298
3710.000000	0.808342
3709.000000	0.808399
3708.000000	0.808476
3707.000000	0.808570
3706.000000	0.808674
3705.000000	0.808782
3704.000000	0.808892
3703.000000	0.809000
3702.000000	0.809108
3701.000000	0.809219
3700.000000	0.809342
3699.000000	0.809482
3698.000000	0.809633
3697.000000	0.809778
3696.000000	0.809899
3695.000000	0.809989
3694.000000	0.810050
3693.000000	0.810091
3692.000000	0.810118
3691.000000	0.810140
3690.000000	0.810161
3689.000000	0.810187
3688.000000	0.810223
3687.000000	0.810278
3686.000000	0.810364
3685.000000	0.810492
3684.000000	0.810653
3683.000000	0.810824
3682.000000	0.810974
3681.000000	0.811079
3680.000000	0.811138
3679.000000	0.811164
3678.000000	0.811177
3677.000000	0.811199
3676.000000	0.811244
3675.000000	0.811325
3674.000000	0.811447
3673.000000	0.811602
3672.000000	0.811768
3671.000000	0.811920
3670.000000	0.812056
3669.000000	0.812199
3668.000000	0.812380
3667.000000	0.812603
3666.000000	0.812839
3665.000000	0.813044
3664.000000	0.813200
3663.000000	0.813323
3662.000000	0.813445
3661.000000	0.813583
3660.000000	0.813729
3659.000000	0.813860
3658.000000	0.813962
3657.000000	0.814037
3656.000000	0.814101
3655.000000	0.814175
3654.000000	0.814274
3653.000000	0.814395
3652.000000	0.814514
3651.000000	0.814606
3650.000000	0.814666
3649.000000	0.814720
3648.000000	0.814808
3647.000000	0.814955
3646.000000	0.815151
3645.000000	0.815368
3644.000000	0.815573
3643.000000	0.815742
3642.000000	0.815862
3641.000000	0.815940
3640.000000	0.816001
3639.000000	0.816071
3638.000000	0.816166
3637.000000	0.816283
3636.000000	0.816405
3635.000000	0.816514
3634.000000	0.816598
3633.000000	0.816654
3632.000000	0.816689
3631.000000	0.816718
3630.000000	0.816759
3629.000000	0.816823
3628.000000	0.816916
3627.000000	0.817036
3626.000000	0.817171
3625.000000	0.817304
3624.000000	0.817426
3623.000000	0.817531
3622.000000	0.817622
3621.000000	0.817699
3620.000000	0.817764
3619.000000	0.817825
3618.000000	0.817892
3617.000000	0.817975
3616.000000	0.818079
3615.000000	0.818203
3614.000000	0.818337
3613.000000	0.818462
3612.000000	0.818557
3611.000000	0.818613
3610.000000	0.818647
3609.000000	0.818690
3608.000000	0.818771
3607.000000	0.818891
3606.000000	0.819029
3605.000000	0.819152
3604.000000	0.819242
3603.000000	0.819299
3602.000000	0.819346
3601.000000	0.819409
3600.000000	0.819499
3599.000000	0.819608
3598.000000	0.819714
3597.000000	0.819795
3596.000000	0.819852
3595.000000	0.819902
3594.000000	0.819967
3593.000000	0.820050
3592.000000	0.820139
3591.000000	0.820212
3590.000000	0.820259
3589.000000	0.820285
3588.000000	0.820308
3587.000000	0.820351
3586.000000	0.820432
3585.000000	0.820552
3584.000000	0.820688
3583.000000	0.820806
3582.000000	0.820884
3581.000000	0.820925
3580.000000	0.820948
3579.000000	0.820976
3578.000000	0.821022
3577.000000	0.821091
3576.000000	0.821178
3575.000000	0.821273
3574.000000	0.821354
3573.000000	0.821402
3572.000000	0.821412
3571.000000	0.821400
3570.000000	0.821396
3569.000000	0.821418
3568.000000	0.821463
3567.000000	0.821518
3566.000000	0.821576
3565.000000	0.821642
3564.000000	0.821724
3563.000000	0.821818
3562.000000	0.821910
3561.000000	0.821988
3560.000000	0.822044
3559.000000	0.822083
3558.000000	0.822115
3557.000000	0.822156
3556.000000	0.822216
3555.000000	0.822302
3554.000000	0.822407
3553.000000	0.822510
3552.000000	0.822588
3551.000000	0.822632
3550.000000	0.822653
3549.000000	0.822682
3548.000000	0.822744
3547.000000	0.822839
3546.000000	0.822948
3545.000000	0.823043
3544.000000	0.823108
3543.000000	0.823147
3542.000000	0.823180
3541.000000	0.823224
3540.000000	0.823285
3539.000000	0.823359
3538.000000	0.823434
3537.000000	0.823509
3536.000000	0.823582
3535.000000	0.823658
3534.000000	0.823736
3533.000000	0.823816
3532.000000	0.823900
3531.000000	0.823991
3530.000000	0.824090
3529.000000	0.824193
3528.000000	0.824291
3527.000000	0.824381
3526.000000	0.824462
3525.000000	0.824541
3524.000000	0.824628
3523.000000	0.824724
3522.000000	0.824825
3521.000000	0.824923
3520.000000	0.825015
3519.000000	0.825113
3518.000000	0.825233
3517.000000	0.825379
3516.000000	0.825535
3515.000000	0.825682
3514.000000	0.825807
3513.000000	0.825914
3512.000000	0.826014
3511.000000	0.826121
3510.000000	0.826245
3509.000000	0.826392
3508.000000	0.826551
3507.000000	0.826701
3506.000000	0.826819
3505.000000	0.826904
3504.000000	0.826982
3503.000000	0.827089
3502.000000	0.827247
3501.000000	0.827447
3500.000000	0.827655
3499.000000	0.827834
3498.000000	0.827967
3497.000000	0.828066
3496.000000	0.828157
3495.000000	0.828267
3494.000000	0.828410
3493.000000	0.828583
3492.000000	0.828770
3491.000000	0.828948
3490.000000	0.829099
3489.000000	0.829217
3488.000000	0.829320
3487.000000	0.829438
3486.000000	0.829590
3485.000000	0.829773
3484.000000	0.829959
3483.000000	0.830118
3482.000000	0.830238
3481.000000	0.830332
3480.000000	0.830429
3479.000000	0.830560
3478.000000	0.830733
3477.000000	0.830929
3476.000000	0.831117
3475.000000	0.831278
3474.000000	0.831416
3473.000000	0.831550
3472.000000	0.831694
3471.000000	0.831850
3470.000000	0.832012
3469.000000	0.832170
3468.000000	0.832318
3467.000000	0.832457
3466.000000	0.832592
3465.000000	0.832738
3464.000000	0.832905
3463.000000	0.833090
3462.000000	0.833276
3461.000000	0.833436
3460.000000	0.833560
3459.000000	0.833668
3458.000000	0.833791
3457.000000	0.833954
3456.000000	0.834148
3455.000000	0.834341
3454.000000	0.834504
3453.000000	0.834632
3452.000000	0.834734
3451.000000	0.834825
3450.000000	0.834919
3449.000000	0.835032
3448.000000	0.835175
3447.000000	0.835345
3446.000000	0.835519
3445.000000	0.835666
3444.000000	0.835775
3443.000000	0.835867
3442.000000	0.835975
3441.000000	0.836110
3440.000000	0.836255
3439.000000	0.836383
3438.000000	0.836479
3437.000000	0.836550
3436.000000	0.836616
3435.000000	0.836693
3434.000000	0.836793
3433.000000	0.836914
3432.000000	0.837043
3431.000000	0.837163
3430.000000	0.837261
3429.000000	0.837340
3428.000000	0.837417
3427.000000	0.837520
3426.000000	0.837663
3425.000000	0.837835
3424.000000	0.838004
3423.000000	0.838139
3422.000000	0.838231
3421.000000	0.838295
3420.000000	0.838356
3419.000000	0.838432
3418.000000	0.838529
3417.000000	0.838636
3416.000000	0.838732
3415.000000	0.838807
3414.000000	0.838866
3413.000000	0.838928
3412.000000	0.839003
3411.000000	0.839087
3410.000000	0.839169
3409.000000	0.839249
3408.000000	0.839327
3407.000000	0.839396
3406.000000	0.839446
3405.000000	0.839478
3404.000000	0.839505
3403.000000	0.839549
3402.000000	0.839618
3401.000000	0.839702
3400.000000	0.839780
3399.000000	0.839835
3398.000000	0.839863
3397.000000	0.839881
3396.000000	0.839918
3395.000000	0.839990
3394.000000	0.840084
3393.000000	0.840168
3392.000000	0.840220
3391.000000	0.840244
3390.000000	0.840264
3389.000000	0.840304
3388.000000	0.840368
3387.000000	0.840447
3386.000000	0.840516
3385.000000	0.840556
3384.000000	0.840565
3383.000000	0.840556
3382.000000	0.840558
3381.000000	0.840590
3380.000000	0.840652
3379.000000	0.840726
3378.000000	0.840786
3377.000000	0.840816
3376.000000	0.840820
3375.000000	0.840820
3374.000000	0.840839
3373.000000	0.840886
3372.000000	0.840952
3371.000000	0.841015
3370.000000	0.841055
3369.000000	0.841070
3368.000000	0.841072
3367.000000	0.841086
3366.000000	0.841130
3365.000000	0.841196
3364.000000	0.841259
3363.000000	0.841291
3362.000000	0.841287
3361.000000	0.841272
3360.000000	0.841272
3359.000000	0.841300
3358.000000	0.841344
3357.000000	0.841386
3356.000000	0.841413
3355.000000	0.841424
3354.000000	0.841421
3353.000000	0.841408
3352.000000	0.841395
3351.000000	0.841399
3350.000000	0.841433
3349.000000	0.841496
3348.000000	0.841571
3347.000000	0.841633
3346.000000	0.841666
3345.000000	0.841673
3344.000000	0.841677
3343.000000	0.841702
3342.000000	0.841757
3341.000000	0.841822
3340.000000	0.841868
3339.000000	0.841881
3338.000000	0.841868
3337.000000	0.841852
3336.000000	0.841853
3335.000000	0.841880
3334.000000	0.841927
3333.000000	0.841976
3332.000000	0.842011
3331.000000	0.842030
3330.000000	0.842044
3329.000000	0.842071
3328.000000	0.842119
3327.000000	0.842179
3326.000000	0.842234
3325.000000	0.842271
3324.000000	0.842283
3323.000000	0.842277
3322.000000	0.842272
3321.000000	0.842284
3320.000000	0.842318
3319.000000	0.842363
3318.000000	0.842410
3317.000000	0.842453
3316.000000	0.842492
3315.000000	0.842526
3314.000000	0.842551
3313.000000	0.842568
3312.000000	0.842585
3311.000000	0.842610
3310.000000	0.842644
3309.000000	0.842682
3308.000000	0.842713
3307.000000	0.842733
3306.000000	0.842746
3305.000000	0.842771
3304.000000	0.842821
3303.000000	0.842895
3302.000000	0.842971
3301.000000	0.843026
3300.000000	0.843054
3299.000000	0.843070
3298.000000	0.843090
3297.000000	0.843117
3296.000000	0.843141
3295.000000	0.843158
3294.000000	0.843167
3293.000000	0.843169
3292.000000	0.843166
3291.000000	0.843167
3290.000000	0.843184
3289.000000	0.843222
3288.000000	0.843274
3287.000000	0.843325
3286.000000	0.843367
3285.000000	0.843399
3284.000000	0.843428
3283.000000	0.843466
3282.000000	0.843519
3281.000000	0.843581
3280.000000	0.843634
3279.000000	0.843658
3278.000000	0.843651
3277.000000	0.843629
3276.000000	0.843617
3275.000000	0.843634
3274.000000	0.843681
3273.000000	0.843745
3272.000000	0.843803
3271.000000	0.843837
3270.000000	0.843844
3269.000000	0.843842
3268.000000	0.843854
3267.000000	0.843895
3266.000000	0.843956
3265.000000	0.844011
3264.000000	0.844045
3263.000000	0.844055
3262.000000	0.844054
3261.000000	0.844056
3260.000000	0.844073
3259.000000	0.844110
3258.000000	0.844159
3257.000000	0.844205
3256.000000	0.844233
3255.000000	0.844239
3254.000000	0.844238
3253.000000	0.844251
3252.000000	0.844291
3251.000000	0.844354
3250.000000	0.844421
3249.000000	0.844467
3248.000000	0.844477
3247.000000	0.844458
3246.000000	0.844432
3245.000000	0.844424
3244.000000	0.844445
3243.000000	0.844494
3242.000000	0.844554
3241.000000	0.844597
3240.000000	0.844606
3239.000000	0.844591
3238.000000	0.844580
3237.000000	0.844596
3236.000000	0.844636
3235.000000	0.844681
3234.000000	0.844715
3233.000000	0.844735
3232.000000	0.844745
3231.000000	0.844756
3230.000000	0.844779
3229.000000	0.844821
3228.000000	0.844874
3227.000000	0.844919
3226.000000	0.844941
3225.000000	0.844942
3224.000000	0.844940
3223.000000	0.844956
3222.000000	0.844996
3221.000000	0.845050
3220.000000	0.845096
3219.000000	0.845119
3218.000000	0.845120
3217.000000	0.845115
3216.000000	0.845118
3215.000000	0.845136
3214.000000	0.845172
3213.000000	0.845221
3212.000000	0.845273
3211.000000	0.845312
3210.000000	0.845327
3209.000000	0.845322
3208.000000	0.845314
3207.000000	0.845321
3206.000000	0.845351
3205.000000	0.845393
3204.000000	0.845428
3203.000000	0.845442
3202.000000	0.845438
3201.000000	0.845433
3200.000000	0.845446
3199.000000	0.845479
3198.000000	0.845521
3197.000000	0.845557
3196.000000	0.845577
3195.000000	0.845580
3194.000000	0.845578
3193.000000	0.845582
3192.000000	0.845599
3191.000000	0.845624
3190.000000	0.845651
3189.000000	0.845674
3188.000000	0.845689
3187.000000	0.845695
3186.000000	0.845693
3185.000000	0.845700
3184.000000	0.845732
3183.000000	0.845790
3182.000000	0.845857
3181.000000	0.845907
3180.000000	0.845927
3179.000000	0.845920
3178.000000	0.845905
3177.000000	0.845896
3176.000000	0.845904
3175.000000	0.845925
3174.000000	0.845946
3173.000000	0.845951
3172.000000	0.845941
3171.000000	0.845933
3170.000000	0.845948
3169.000000	0.845992
3168.000000	0.846052
3167.000000	0.846107
3166.000000	0.846140
3165.000000	0.846146
3164.000000	0.846133
3163.000000	0.846118
3162.000000	0.846124
3161.000000	0.846158
3160.000000	0.846209
3159.000000	0.846257
3158.000000	0.846283
3157.000000	0.846284
3156.000000	0.846271
3155.000000	0.846261
3154.000000	0.846272
3153.000000	0.846309
3152.000000	0.846362
3151.000000	0.846408
3150.000000	0.846426
3149.000000	0.846419
3148.000000	0.846407
3147.000000	0.846410
3146.000000	0.846434
3145.000000	0.846467
3144.000000	0.846492
3143.000000	0.846499
3142.000000	0.846491
3141.000000	0.846487
3140.000000	0.846508
3139.000000	0.846562
3138.000000	0.846632
3137.000000	0.846691
3136.000000	0.846722
3135.000000	0.846727
3134.000000	0.846716
3133.000000	0.846703
3132.000000	0.846700
3131.000000	0.846723
3130.000000	0.846777
3129.000000	0.846850
3128.000000	0.846916
3127.000000	0.846950
3126.000000	0.846953
3125.000000	0.846948
3124.000000	0.846963
3123.000000	0.847008
3122.000000	0.847061
3121.000000	0.847091
3120.000000	0.847084
3119.000000	0.847053
3118.000000	0.847024
3117.000000	0.847022
3116.000000	0.847058
3115.000000	0.847124
3114.000000	0.847198
3113.000000	0.847252
3112.000000	0.847276
3111.000000	0.847279
3110.000000	0.847274
3109.000000	0.847270
3108.000000	0.847275
3107.000000	0.847300
3106.000000	0.847341
3105.000000	0.847376
3104.000000	0.847379
3103.000000	0.847351
3102.000000	0.847320
3101.000000	0.847317
3100.000000	0.847353
3099.000000	0.847409
3098.000000	0.847453
3097.000000	0.847459
3096.000000	0.847433
3095.000000	0.847404
3094.000000	0.847406
3093.000000	0.847449
3092.000000	0.847513
3091.000000	0.847566
3090.000000	0.847590
3089.000000	0.847584
3088.000000	0.847562
3087.000000	0.847542
3086.000000	0.847541
3085.000000	0.847560
3084.000000	0.847587
3083.000000	0.847606
3082.000000	0.847604
3081.000000	0.847583
3080.000000	0.847556
3079.000000	0.847546
3078.000000	0.847564
3077.000000	0.847602
3076.000000	0.847636
3075.000000	0.847644
3074.000000	0.847623
3073.000000	0.847588
3072.000000	0.847557
3071.000000	0.847543
3070.000000	0.847545
3069.000000	0.847556
3068.000000	0.847567
3067.000000	0.847573
3066.000000	0.847568
3065.000000	0.847549
3064.000000	0.847527
3063.000000	0.847520
3062.000000	0.847542
3061.000000	0.847585
3060.000000	0.847623
3059.000000	0.847631
3058.000000	0.847604
3057.000000	0.847561
3056.000000	0.847526
3055.000000	0.847515
3054.000000	0.847524
3053.000000	0.847537
3052.000000	0.847541
3051.000000	0.847530
3050.000000	0.847505
3049.000000	0.847476
3048.000000	0.847454
3047.000000	0.847450
3046.000000	0.847460
3045.000000	0.847464
3044.000000	0.847443
3043.000000	0.847400
3042.000000	0.847356
3041.000000	0.847337
3040.000000	0.847353
3039.000000	0.847393
3038.000000	0.847426
3037.000000	0.847426
3036.000000	0.847385
3035.000000	0.847324
3034.000000	0.847281
3033.000000	0.847275
3032.000000	0.847304
3031.000000	0.847343
3030.000000	0.847362
3029.000000	0.847349
3028.000000	0.847310
3027.000000	0.847268
3026.000000	0.847242
3025.000000	0.847237
3024.000000	0.847251
3023.000000	0.847273
3022.000000	0.847289
3021.000000	0.847279
3020.000000	0.847240
3019.000000	0.847188
3018.000000	0.847145
3017.000000	0.847119
3016.000000	0.847099
3015.000000	0.847075
3014.000000	0.847043
3013.000000	0.847001
3012.000000	0.846952
3011.000000	0.846912
3010.000000	0.846897
3009.000000	0.846904
3008.000000	0.846915
3007.000000	0.846905
3006.000000	0.846868
3005.000000	0.846810
3004.000000	0.846747
3003.000000	0.846697
3002.000000	0.846671
3001.000000	0.846666
3000.000000	0.846659
2999.000000	0.846631
2998.000000	0.846584
2997.000000	0.846537
2996.000000	0.846501
2995.000000	0.846479
2994.000000	0.846470
2993.000000	0.846470
2992.000000	0.846470
2991.000000	0.846449
2990.000000	0.846397
2989.000000	0.846325
2988.000000	0.846265
2987.000000	0.846242
2986.000000	0.846254
2985.000000	0.846269
2984.000000	0.846253
2983.000000	0.846203
2982.000000	0.846146
2981.000000	0.846113
2980.000000	0.846114
2979.000000	0.846138
2978.000000	0.846165
2977.000000	0.846177
2976.000000	0.846163
2975.000000	0.846128
2974.000000	0.846087
2973.000000	0.846061
2972.000000	0.846062
2971.000000	0.846083
2970.000000	0.846108
2969.000000	0.846118
2968.000000	0.846102
2967.000000	0.846069
2966.000000	0.846033
2965.000000	0.846004
2964.000000	0.845982
2963.000000	0.845957
2962.000000	0.845928
2961.000000	0.845890
2960.000000	0.845842
2959.000000	0.845786
2958.000000	0.845737
2957.000000	0.845708
2956.000000	0.845700
2955.000000	0.845696
2954.000000	0.845673
2953.000000	0.845618
2952.000000	0.845539
2951.000000	0.845461
2950.000000	0.845413
2949.000000	0.845406
2948.000000	0.845425
2947.000000	0.845440
2946.000000	0.845433
2945.000000	0.845403
2944.000000	0.845362
2943.000000	0.845327
2942.000000	0.845316
2941.000000	0.845327
2940.000000	0.845342
2939.000000	0.845334
2938.000000	0.845296
2937.000000	0.845238
2936.000000	0.845179
2935.000000	0.845131
2934.000000	0.845101
2933.000000	0.845090
2932.000000	0.845094
2931.000000	0.845093
2930.000000	0.845065
2929.000000	0.845007
2928.000000	0.844936
2927.000000	0.844881
2926.000000	0.844853
2925.000000	0.844844
2924.000000	0.844830
2923.000000	0.844790
2922.000000	0.844718
2921.000000	0.844625
2920.000000	0.844537
2919.000000	0.844474
2918.000000	0.844438
2917.000000	0.844413
2916.000000	0.844376
2915.000000	0.844322
2914.000000	0.844264
2913.000000	0.844222
2912.000000	0.844204
2911.000000	0.844202
2910.000000	0.844195
2909.000000	0.844165
2908.000000	0.844106
2907.000000	0.844029
2906.000000	0.843948
2905.000000	0.843878
2904.000000	0.843828
2903.000000	0.843800
2902.000000	0.843786
2901.000000	0.843770
2900.000000	0.843738
2899.000000	0.843691
2898.000000	0.843642
2897.000000	0.843604
2896.000000	0.843579
2895.000000	0.843564
2894.000000	0.843553
2893.000000	0.843536
2892.000000	0.843501
2891.000000	0.843444
2890.000000	0.843373
2889.000000	0.843308
2888.000000	0.843262
2887.000000	0.843230
2886.000000	0.843199
2885.000000	0.843155
2884.000000	0.843094
2883.000000	0.843025
2882.000000	0.842967
2881.000000	0.842932
2880.000000	0.842919
2879.000000	0.842909
2878.000000	0.842877
2877.000000	0.842815
2876.000000	0.842741
2875.000000	0.842683
2874.000000	0.842656
2873.000000	0.842649
2872.000000	0.842635
2871.000000	0.842600
2870.000000	0.842547
2869.000000	0.842490
2868.000000	0.842442
2867.000000	0.842404
2866.000000	0.842378
2865.000000	0.842356
2864.000000	0.842329
2863.000000	0.842284
2862.000000	0.842216
2861.000000	0.842131
2860.000000	0.842050
2859.000000	0.841993
2858.000000	0.841970
2857.000000	0.841969
2856.000000	0.841968
2855.000000	0.841942
2854.000000	0.841885
2853.000000	0.841809
2852.000000	0.841742
2851.000000	0.841704
2850.000000	0.841697
2849.000000	0.841701
2848.000000	0.841691
2847.000000	0.841655
2846.000000	0.841598
2845.000000	0.841538
2844.000000	0.841493
2843.000000	0.841476
2842.000000	0.841484
2841.000000	0.841498
2840.000000	0.841497
2839.000000	0.841473
2838.000000	0.841433
2837.000000	0.841396
2836.000000	0.841375
2835.000000	0.841373
2834.000000	0.841382
2833.000000	0.841387
2832.000000	0.841370
2831.000000	0.841324
2830.000000	0.841263
2829.000000	0.841206
2828.000000	0.841171
2827.000000	0.841156
2826.000000	0.841149
2825.000000	0.841133
2824.000000	0.841101
2823.000000	0.841054
2822.000000	0.841002
2821.000000	0.840954
2820.000000	0.840921
2819.000000	0.840904
2818.000000	0.840893
2817.000000	0.840870
2816.000000	0.840825
2815.000000	0.840769
2814.000000	0.840728
2813.000000	0.840721
2812.000000	0.840742
2811.000000	0.840764
2810.000000	0.840761
2809.000000	0.840724
2808.000000	0.840667
2807.000000	0.840615
2806.000000	0.840584
2805.000000	0.840568
2804.000000	0.840551
2803.000000	0.840518
2802.000000	0.840471
2801.000000	0.840417
2800.000000	0.840365
2799.000000	0.840324
2798.000000	0.840303
2797.000000	0.840303
2796.000000	0.840312
2795.000000	0.840310
2794.000000	0.840281
2793.000000	0.840226
2792.000000	0.840168
2791.000000	0.840134
2790.000000	0.840136
2789.000000	0.840161
2788.000000	0.840183
2787.000000	0.840181
2786.000000	0.840157
2785.000000	0.840121
2784.000000	0.840087
2783.000000	0.840067
2782.000000	0.840065
2781.000000	0.840078
2780.000000	0.840086
2779.000000	0.840068
2778.000000	0.840015
2777.000000	0.839946
2776.000000	0.839896
2775.000000	0.839890
2774.000000	0.839922
2773.000000	0.839954
2772.000000	0.839954
2771.000000	0.839915
2770.000000	0.839860
2769.000000	0.839812
2768.000000	0.839789
2767.000000	0.839796
2766.000000	0.839821
2765.000000	0.839842
2764.000000	0.839835
2763.000000	0.839795
2762.000000	0.839749
2761.000000	0.839724
2760.000000	0.839729
2759.000000	0.839744
2758.000000	0.839747
2757.000000	0.839726
2756.000000	0.839687
2755.000000	0.839646
2754.000000	0.839618
2753.000000	0.839608
2752.000000	0.839609
2751.000000	0.839612
2750.000000	0.839609
2749.000000	0.839600
2748.000000	0.839586
2747.000000	0.839573
2746.000000	0.839572
2745.000000	0.839588
2744.000000	0.839619
2743.000000	0.839653
2742.000000	0.839675
2741.000000	0.839674
2740.000000	0.839644
2739.000000	0.839596
2738.000000	0.839553
2737.000000	0.839537
2736.000000	0.839546
2735.000000	0.839557
2734.000000	0.839550
2733.000000	0.839524
2732.000000	0.839495
2731.000000	0.839480
2730.000000	0.839483
2729.000000	0.839493
2728.000000	0.839502
2727.000000	0.839501
2726.000000	0.839486
2725.000000	0.839452
2724.000000	0.839408
2723.000000	0.839379
2722.000000	0.839383
2721.000000	0.839415
2720.000000	0.839449
2719.000000	0.839461
2718.000000	0.839447
2717.000000	0.839423
2716.000000	0.839410
2715.000000	0.839422
2714.000000	0.839457
2713.000000	0.839496
2712.000000	0.839517
2711.000000	0.839508
2710.000000	0.839476
2709.000000	0.839440
2708.000000	0.839414
2707.000000	0.839412
2706.000000	0.839437
2705.000000	0.839476
2704.000000	0.839501
2703.000000	0.839498
2702.000000	0.839472
2701.000000	0.839448
2700.000000	0.839439
2699.000000	0.839444
2698.000000	0.839454
2697.000000	0.839457
2696.000000	0.839448
2695.000000	0.839428
2694.000000	0.839414
2693.000000	0.839423
2692.000000	0.839460
2691.000000	0.839508
2690.000000	0.839542
2689.000000	0.839546
2688.000000	0.839525
2687.000000	0.839498
2686.000000	0.839485
2685.000000	0.839495
2684.000000	0.839522
2683.000000	0.839559
2682.000000	0.839594
2681.000000	0.839615
2680.000000	0.839614
2679.000000	0.839593
2678.000000	0.839570
2677.000000	0.839564
2676.000000	0.839581
2675.000000	0.839613
2674.000000	0.839643
2673.000000	0.839660
2672.000000	0.839658
2671.000000	0.839643
2670.000000	0.839632
2669.000000	0.839643
2668.000000	0.839679
2667.000000	0.839719
2666.000000	0.839733
2665.000000	0.839711
2664.000000	0.839668
2663.000000	0.839633
2662.000000	0.839629
2661.000000	0.839662
2660.000000	0.839721
2659.000000	0.839782
2658.000000	0.839824
2657.000000	0.839835
2656.000000	0.839825
2655.000000	0.839818
2654.000000	0.839833
2653.000000	0.839871
2652.000000	0.839918
2651.000000	0.839951
2650.000000	0.839965
2649.000000	0.839968
2648.000000	0.839974
2647.000000	0.839993
2646.000000	0.840023
2645.000000	0.840054
2644.000000	0.840073
2643.000000	0.840079
2642.000000	0.840081
2641.000000	0.840092
2640.000000	0.840115
2639.000000	0.840147
2638.000000	0.840177
2637.000000	0.840199
2636.000000	0.840213
2635.000000	0.840221
2634.000000	0.840229
2633.000000	0.840241
2632.000000	0.840261
2631.000000	0.840287
2630.000000	0.840317
2629.000000	0.840344
2628.000000	0.840362
2627.000000	0.840371
2626.000000	0.840374
2625.000000	0.840383
2624.000000	0.840404
2623.000000	0.840436
2622.000000	0.840472
2621.000000	0.840498
2620.000000	0.840512
2619.000000	0.840517
2618.000000	0.840521
2617.000000	0.840531
2616.000000	0.840553
2615.000000	0.840590
2614.000000	0.840635
2613.000000	0.840672
2612.000000	0.840691
2611.000000	0.840700
2610.000000	0.840715
2609.000000	0.840743
2608.000000	0.840777
2607.000000	0.840807
2606.000000	0.840827
2605.000000	0.840835
2604.000000	0.840832
2603.000000	0.840828
2602.000000	0.840841
2601.000000	0.840879
2600.000000	0.840934
2599.000000	0.840985
2598.000000	0.841015
2597.000000	0.841019
2596.000000	0.841004
2595.000000	0.840987
2594.000000	0.840988
2593.000000	0.841017
2592.000000	0.841068
2591.000000	0.841119
2590.000000	0.841152
2589.000000	0.841160
2588.000000	0.841153
2587.000000	0.841154
2586.000000	0.841182
2585.000000	0.841234
2584.000000	0.841292
2583.000000	0.841337
2582.000000	0.841360
2581.000000	0.841365
2580.000000	0.841360
2579.000000	0.841361
2578.000000	0.841378
2577.000000	0.841415
2576.000000	0.841459
2575.000000	0.841490
2574.000000	0.841501
2573.000000	0.841499
2572.000000	0.841502
2571.000000	0.841522
2570.000000	0.841558
2569.000000	0.841599
2568.000000	0.841630
2567.000000	0.841646
2566.000000	0.841655
2565.000000	0.841672
2564.000000	0.841704
2563.000000	0.841746
2562.000000	0.841791
2561.000000	0.841831
2560.000000	0.841858
2559.000000	0.841870
2558.000000	0.841872
2557.000000	0.841878
2556.000000	0.841900
2555.000000	0.841943
2554.000000	0.841996
2553.000000	0.842044
2552.000000	0.842071
2551.000000	0.842076
2550.000000	0.842075
2549.000000	0.842091
2548.000000	0.842138
2547.000000	0.842207
2546.000000	0.842272
2545.000000	0.842310
2544.000000	0.842313
2543.000000	0.842296
2542.000000	0.842287
2541.000000	0.842306
2540.000000	0.842357
2539.000000	0.842418
2538.000000	0.842466
2537.000000	0.842486
2536.000000	0.842482
2535.000000	0.842475
2534.000000	0.842485
2533.000000	0.842518
2532.000000	0.842564
2531.000000	0.842604
2530.000000	0.842627
2529.000000	0.842631
2528.000000	0.842628
2527.000000	0.842633
2526.000000	0.842657
2525.000000	0.842700
2524.000000	0.842760
2523.000000	0.842823
2522.000000	0.842875
2521.000000	0.842906
2520.000000	0.842918
2519.000000	0.842929
2518.000000	0.842954
2517.000000	0.842995
2516.000000	0.843033
2515.000000	0.843050
2514.000000	0.843047
2513.000000	0.843037
2512.000000	0.843039
2511.000000	0.843063
2510.000000	0.843110
2509.000000	0.843168
2508.000000	0.843222
2507.000000	0.843254
2506.000000	0.843257
2505.000000	0.843243
2504.000000	0.843237
2503.000000	0.843258
2502.000000	0.843304
2501.000000	0.843360
2500.000000	0.843406
2499.000000	0.843436
2498.000000	0.843449
2497.000000	0.843454
2496.000000	0.843466
2495.000000	0.843501
2494.000000	0.843561
2493.000000	0.843626
2492.000000	0.843669
2491.000000	0.843678
2490.000000	0.843667
2489.000000	0.843662
2488.000000	0.843678
2487.000000	0.843713
2486.000000	0.843755
2485.000000	0.843789
2484.000000	0.843810
2483.000000	0.843824
2482.000000	0.843839
2481.000000	0.843864
2480.000000	0.843902
2479.000000	0.843951
2478.000000	0.844002
2477.000000	0.844042
2476.000000	0.844064
2475.000000	0.844071
2474.000000	0.844075
2473.000000	0.844089
2472.000000	0.844122
2471.000000	0.844173
2470.000000	0.844225
2469.000000	0.844262
2468.000000	0.844278
2467.000000	0.844288
2466.000000	0.844313
2465.000000	0.844359
2464.000000	0.844415
2463.000000	0.844463
2462.000000	0.844493
2461.000000	0.844505
2460.000000	0.844506
2459.000000	0.844507
2458.000000	0.844523
2457.000000	0.844556
2456.000000	0.844596
2455.000000	0.844621
2454.000000	0.844622
2453.000000	0.844606
2452.000000	0.844590
2451.000000	0.844591
2450.000000	0.844620
2449.000000	0.844671
2448.000000	0.844723
2447.000000	0.844753
2446.000000	0.844749
2445.000000	0.844722
2444.000000	0.844699
2443.000000	0.844702
2442.000000	0.844731
2441.000000	0.844765
2440.000000	0.844779
2439.000000	0.844765
2438.000000	0.844730
2437.000000	0.844694
2436.000000	0.844671
2435.000000	0.844672
2434.000000	0.844695
2433.000000	0.844728
2432.000000	0.844749
2431.000000	0.844748
2430.000000	0.844723
2429.000000	0.844682
2428.000000	0.844643
2427.000000	0.844623
2426.000000	0.844628
2425.000000	0.844647
2424.000000	0.844657
2423.000000	0.844647
2422.000000	0.844626
2421.000000	0.844609
2420.000000	0.844603
2419.000000	0.844607
2418.000000	0.844616
2417.000000	0.844618
2416.000000	0.844600
2415.000000	0.844556
2414.000000	0.844505
2413.000000	0.844472
2412.000000	0.844468
2411.000000	0.844481
2410.000000	0.844487
2409.000000	0.844470
2408.000000	0.844426
2407.000000	0.844366
2406.000000	0.844306
2405.000000	0.844269
2404.000000	0.844268
2403.000000	0.844295
2402.000000	0.844323
2401.000000	0.844323
2400.000000	0.844290
2399.000000	0.844244
2398.000000	0.844216
2397.000000	0.844220
2396.000000	0.844246
2395.000000	0.844274
2394.000000	0.844289
2393.000000	0.844284
2392.000000	0.844261
2391.000000	0.844232
2390.000000	0.844214
2389.000000	0.844224
2388.000000	0.844257
2387.000000	0.844289
2386.000000	0.844298
2385.000000	0.844280
2384.000000	0.844253
2383.000000	0.844237
2382.000000	0.844240
2381.000000	0.844260
2380.000000	0.844280
2379.000000	0.844282
2378.000000	0.844260
2377.000000	0.844220
2376.000000	0.844184
2375.000000	0.844164
2374.000000	0.844157
2373.000000	0.844149
2372.000000	0.844128
2371.000000	0.844094
2370.000000	0.844056
2369.000000	0.844030
2368.000000	0.844028
2367.000000	0.844049
2366.000000	0.844077
2365.000000	0.844095
2364.000000	0.844095
2363.000000	0.844077
2362.000000	0.844046
2361.000000	0.844011
2360.000000	0.843991
2359.000000	0.844001
2358.000000	0.844038
2357.000000	0.844077
2356.000000	0.844098
2355.000000	0.844096
2354.000000	0.844083
2353.000000	0.844079
2352.000000	0.844110
2351.000000	0.844196
2350.000000	0.844342
2349.000000	0.844527
2348.000000	0.844729
2347.000000	0.844951
2346.000000	0.845229
2345.000000	0.845606
2344.000000	0.846106
2343.000000	0.846706
2342.000000	0.847331
2341.000000	0.847859
2340.000000	0.848170
2339.000000	0.848195
2338.000000	0.847957
2337.000000	0.847548
2336.000000	0.847086
2335.000000	0.846658
2334.000000	0.846301
2333.000000	0.846014
2332.000000	0.845787
2331.000000	0.845617
2330.000000	0.845509
2329.000000	0.845460
2328.000000	0.845450
2327.000000	0.845448
2326.000000	0.845430
2325.000000	0.845389
2324.000000	0.845339
2323.000000	0.845303
2322.000000	0.845299
2321.000000	0.845327
2320.000000	0.845372
2319.000000	0.845413
2318.000000	0.845425
2317.000000	0.845400
2316.000000	0.845351
2315.000000	0.845317
2314.000000	0.845327
2313.000000	0.845380
2312.000000	0.845445
2311.000000	0.845486
2310.000000	0.845488
2309.000000	0.845459
2308.000000	0.845422
2307.000000	0.845407
2306.000000	0.845428
2305.000000	0.845478
2304.000000	0.845529
2303.000000	0.845554
2302.000000	0.845549
2301.000000	0.845527
2300.000000	0.845515
2299.000000	0.845535
2298.000000	0.845591
2297.000000	0.845659
2296.000000	0.845704
2295.000000	0.845707
2294.000000	0.845679
2293.000000	0.845652
2292.000000	0.845647
2291.000000	0.845668
2290.000000	0.845704
2289.000000	0.845735
2288.000000	0.845746
2287.000000	0.845739
2286.000000	0.845737
2285.000000	0.845761
2284.000000	0.845814
2283.000000	0.845880
2282.000000	0.845936
2281.000000	0.845970
2280.000000	0.845981
2279.000000	0.845980
2278.000000	0.845981
2277.000000	0.845999
2276.000000	0.846040
2275.000000	0.846096
2274.000000	0.846154
2273.000000	0.846195
2272.000000	0.846206
2271.000000	0.846185
2270.000000	0.846145
2269.000000	0.846110
2268.000000	0.846108
2267.000000	0.846147
2266.000000	0.846206
2265.000000	0.846247
2264.000000	0.846249
2263.000000	0.846224
2262.000000	0.846207
2261.000000	0.846219
2260.000000	0.846256
2259.000000	0.846301
2258.000000	0.846336
2257.000000	0.846354
2256.000000	0.846354
2255.000000	0.846351
2254.000000	0.846360
2253.000000	0.846390
2252.000000	0.846431
2251.000000	0.846466
2250.000000	0.846480
2249.000000	0.846468
2248.000000	0.846439
2247.000000	0.846411
2246.000000	0.846410
2245.000000	0.846441
2244.000000	0.846485
2243.000000	0.846513
2242.000000	0.846512
2241.000000	0.846489
2240.000000	0.846468
2239.000000	0.846466
2238.000000	0.846488
2237.000000	0.846525
2236.000000	0.846554
2235.000000	0.846564
2234.000000	0.846558
2233.000000	0.846549
2232.000000	0.846547
2231.000000	0.846556
2230.000000	0.846583
2229.000000	0.846625
2228.000000	0.846664
2227.000000	0.846672
2226.000000	0.846639
2225.000000	0.846586
2224.000000	0.846548
2223.000000	0.846547
2222.000000	0.846579
2221.000000	0.846621
2220.000000	0.846646
2219.000000	0.846645
2218.000000	0.846625
2217.000000	0.846607
2216.000000	0.846608
2215.000000	0.846634
2214.000000	0.846673
2213.000000	0.846704
2212.000000	0.846707
2211.000000	0.846674
2210.000000	0.846620
2209.000000	0.846576
2208.000000	0.846570
2207.000000	0.846600
2206.000000	0.846639
2205.000000	0.846654
2204.000000	0.846639
2203.000000	0.846609
2202.000000	0.846582
2201.000000	0.846565
2200.000000	0.846558
2199.000000	0.846560
2198.000000	0.846566
2197.000000	0.846561
2196.000000	0.846531
2195.000000	0.846484
2194.000000	0.846449
2193.000000	0.846449
2192.000000	0.846479
2191.000000	0.846512
2190.000000	0.846521
2189.000000	0.846493
2188.000000	0.846441
2187.000000	0.846394
2186.000000	0.846376
2185.000000	0.846396
2184.000000	0.846434
2183.000000	0.846457
2182.000000	0.846443
2181.000000	0.846392
2180.000000	0.846325
2179.000000	0.846270
2178.000000	0.846245
2177.000000	0.846251
2176.000000	0.846271
2175.000000	0.846282
2174.000000	0.846267
2173.000000	0.846221
2172.000000	0.846158
2171.000000	0.846108
2170.000000	0.846091
2169.000000	0.846106
2168.000000	0.846130
2167.000000	0.846133
2166.000000	0.846102
2165.000000	0.846043
2164.000000	0.845978
2163.000000	0.845929
2162.000000	0.845910
2161.000000	0.845911
2160.000000	0.845909
2159.000000	0.845889
2158.000000	0.845853
2157.000000	0.845820
2156.000000	0.845802
2155.000000	0.845802
2154.000000	0.845806
2153.000000	0.845801
2152.000000	0.845771
2151.000000	0.845714
2150.000000	0.845644
2149.000000	0.845588
2148.000000	0.845563
2147.000000	0.845569
2146.000000	0.845581
2145.000000	0.845575
2144.000000	0.845539
2143.000000	0.845481
2142.000000	0.845415
2141.000000	0.845356
2140.000000	0.845314
2139.000000	0.845295
2138.000000	0.845293
2137.000000	0.845287
2136.000000	0.845257
2135.000000	0.845198
2134.000000	0.845129
2133.000000	0.845075
2132.000000	0.845049
2131.000000	0.845045
2130.000000	0.845043
2129.000000	0.845020
2128.000000	0.844971
2127.000000	0.844915
2126.000000	0.844875
2125.000000	0.844862
2124.000000	0.844862
2123.000000	0.844857
2122.000000	0.844836
2121.000000	0.844794
2120.000000	0.844733
2119.000000	0.844663
2118.000000	0.844604
2117.000000	0.844571
2116.000000	0.844560
2115.000000	0.844551
2114.000000	0.844527
2113.000000	0.844481
2112.000000	0.844419
2111.000000	0.844357
2110.000000	0.844311
2109.000000	0.844289
2108.000000	0.844279
2107.000000	0.844263
2106.000000	0.844227
2105.000000	0.844176
2104.000000	0.844123
2103.000000	0.844085
2102.000000	0.844075
2101.000000	0.844088
2100.000000	0.844100
2099.000000	0.844082
2098.000000	0.844023
2097.000000	0.843938
2096.000000	0.843860
2095.000000	0.843811
2094.000000	0.843793
2093.000000	0.843790
2092.000000	0.843784
2091.000000	0.843761
2090.000000	0.843717
2089.000000	0.843658
2088.000000	0.843598
2087.000000	0.843555
2086.000000	0.843540
2085.000000	0.843541
2084.000000	0.843528
2083.000000	0.843478
2082.000000	0.843394
2081.000000	0.843305
2080.000000	0.843242
2079.000000	0.843216
2078.000000	0.843214
2077.000000	0.843208
2076.000000	0.843176
2075.000000	0.843113
2074.000000	0.843030
2073.000000	0.842948
2072.000000	0.842891
2071.000000	0.842871
2070.000000	0.842875
2069.000000	0.842874
2068.000000	0.842848
2067.000000	0.842796
2066.000000	0.842740
2065.000000	0.842696
2064.000000	0.842662
2063.000000	0.842631
2062.000000	0.842596
2061.000000	0.842553
2060.000000	0.842501
2059.000000	0.842446
2058.000000	0.842400
2057.000000	0.842372
2056.000000	0.842363
2055.000000	0.842364
2054.000000	0.842359
2053.000000	0.842332
2052.000000	0.842275
2051.000000	0.842199
2050.000000	0.842135
2049.000000	0.842109
2048.000000	0.842117
2047.000000	0.842129
2046.000000	0.842107
2045.000000	0.842034
2044.000000	0.841924
2043.000000	0.841814
2042.000000	0.841744
2041.000000	0.841725
2040.000000	0.841736
2039.000000	0.841747
2038.000000	0.841736
2037.000000	0.841697
2036.000000	0.841639
2035.000000	0.841576
2034.000000	0.841528
2033.000000	0.841505
2032.000000	0.841501
2031.000000	0.841494
2030.000000	0.841462
2029.000000	0.841400
2028.000000	0.841322
2027.000000	0.841257
2026.000000	0.841228
2025.000000	0.841225
2024.000000	0.841217
2023.000000	0.841176
2022.000000	0.841106
2021.000000	0.841035
2020.000000	0.840985
2019.000000	0.840961
2018.000000	0.840956
2017.000000	0.840954
2016.000000	0.840939
2015.000000	0.840899
2014.000000	0.840840
2013.000000	0.840776
2012.000000	0.840723
2011.000000	0.840691
2010.000000	0.840681
2009.000000	0.840686
2008.000000	0.840686
2007.000000	0.840665
2006.000000	0.840622
2005.000000	0.840573
2004.000000	0.840542
2003.000000	0.840539
2002.000000	0.840556
2001.000000	0.840567
2000.000000	0.840544
1999.000000	0.840479
1998.000000	0.840394
1997.000000	0.840327
1996.000000	0.840299
1995.000000	0.840300
1994.000000	0.840302
1993.000000	0.840284
1992.000000	0.840238
1991.000000	0.840172
1990.000000	0.840108
1989.000000	0.840068
1988.000000	0.840061
1987.000000	0.840077
1986.000000	0.840091
1985.000000	0.840080
1984.000000	0.840038
1983.000000	0.839980
1982.000000	0.839935
1981.000000	0.839921
1980.000000	0.839937
1979.000000	0.839958
1978.000000	0.839955
1977.000000	0.839917
1976.000000	0.839854
1975.000000	0.839796
1974.000000	0.839767
1973.000000	0.839771
1972.000000	0.839788
1971.000000	0.839792
1970.000000	0.839767
1969.000000	0.839720
1968.000000	0.839670
1967.000000	0.839640
1966.000000	0.839644
1965.000000	0.839674
1964.000000	0.839705
1963.000000	0.839709
1962.000000	0.839678
1961.000000	0.839623
1960.000000	0.839567
1959.000000	0.839526
1958.000000	0.839515
1957.000000	0.839529
1956.000000	0.839551
1955.000000	0.839555
1954.000000	0.839531
1953.000000	0.839488
1952.000000	0.839449
1951.000000	0.839431
1950.000000	0.839435
1949.000000	0.839449
1948.000000	0.839454
1947.000000	0.839439
1946.000000	0.839409
1945.000000	0.839376
1944.000000	0.839352
1943.000000	0.839349
1942.000000	0.839372
1941.000000	0.839410
1940.000000	0.839442
1939.000000	0.839446
1938.000000	0.839420
1937.000000	0.839384
1936.000000	0.839358
1935.000000	0.839358
1934.000000	0.839382
1933.000000	0.839409
1932.000000	0.839411
1931.000000	0.839373
1930.000000	0.839317
1929.000000	0.839278
1928.000000	0.839271
1927.000000	0.839288
1926.000000	0.839308
1925.000000	0.839319
1924.000000	0.839312
1923.000000	0.839286
1922.000000	0.839252
1921.000000	0.839230
1920.000000	0.839240
1919.000000	0.839278
1918.000000	0.839328
1917.000000	0.839362
1916.000000	0.839365
1915.000000	0.839344
1914.000000	0.839327
1913.000000	0.839337
1912.000000	0.839373
1911.000000	0.839408
1910.000000	0.839419
1909.000000	0.839408
1908.000000	0.839388
1907.000000	0.839368
1906.000000	0.839357
1905.000000	0.839365
1904.000000	0.839401
1903.000000	0.839450
1902.000000	0.839479
1901.000000	0.839470
1900.000000	0.839436
1899.000000	0.839403
1898.000000	0.839395
1897.000000	0.839416
1896.000000	0.839453
1895.000000	0.839488
1894.000000	0.839502
1893.000000	0.839491
1892.000000	0.839462
1891.000000	0.839435
1890.000000	0.839428
1889.000000	0.839447
1888.000000	0.839483
1887.000000	0.839517
1886.000000	0.839529
1885.000000	0.839520
1884.000000	0.839501
1883.000000	0.839493
1882.000000	0.839505
1881.000000	0.839531
1880.000000	0.839555
1879.000000	0.839564
1878.000000	0.839558
1877.000000	0.839543
1876.000000	0.839535
1875.000000	0.839544
1874.000000	0.839571
1873.000000	0.839602
1872.000000	0.839613
1871.000000	0.839588
1870.000000	0.839539
1869.000000	0.839503
1868.000000	0.839510
1867.000000	0.839562
1866.000000	0.839638
1865.000000	0.839707
1864.000000	0.839744
1863.000000	0.839743
1862.000000	0.839716
1861.000000	0.839692
1860.000000	0.839698
1859.000000	0.839735
1858.000000	0.839782
1857.000000	0.839812
1856.000000	0.839814
1855.000000	0.839796
1854.000000	0.839774
1853.000000	0.839764
1852.000000	0.839778
1851.000000	0.839818
1850.000000	0.839866
1849.000000	0.839895
1848.000000	0.839882
1847.000000	0.839827
1846.000000	0.839754
1845.000000	0.839703
1844.000000	0.839713
1843.000000	0.839791
1842.000000	0.839899
1841.000000	0.839977
1840.000000	0.839993
1839.000000	0.839970
1838.000000	0.839953
1837.000000	0.839968
1836.000000	0.840006
1835.000000	0.840048
1834.000000	0.840076
1833.000000	0.840080
1832.000000	0.840056
1831.000000	0.840025
1830.000000	0.840023
1829.000000	0.840075
1828.000000	0.840163
1827.000000	0.840242
1826.000000	0.840279
1825.000000	0.840280
1824.000000	0.840277
1823.000000	0.840300
1822.000000	0.840355
1821.000000	0.840425
1820.000000	0.840484
1819.000000	0.840521
1818.000000	0.840539
1817.000000	0.840552
1816.000000	0.840569
1815.000000	0.840593
1814.000000	0.840628
1813.000000	0.840672
1812.000000	0.840719
1811.000000	0.840752
1810.000000	0.840764
1809.000000	0.840758
1808.000000	0.840751
1807.000000	0.840763
1806.000000	0.840805
1805.000000	0.840866
1804.000000	0.840912
1803.000000	0.840918
1802.000000	0.840887
1801.000000	0.840851
1800.000000	0.840848
1799.000000	0.840888
1798.000000	0.840960
1797.000000	0.841030
1796.000000	0.841065
1795.000000	0.841048
1794.000000	0.840995
1793.000000	0.840952
1792.000000	0.840963
1791.000000	0.841038
1790.000000	0.841148
1789.000000	0.841250
1788.000000	0.841310
1787.000000	0.841320
1786.000000	0.841301
1785.000000	0.841292
1784.000000	0.841324
1783.000000	0.841400
1782.000000	0.841488
1781.000000	0.841549
1780.000000	0.841567
1779.000000	0.841559
1778.000000	0.841556
1777.000000	0.841581
1776.000000	0.841632
1775.000000	0.841685
1774.000000	0.841712
1773.000000	0.841707
1772.000000	0.841688
1771.000000	0.841685
1770.000000	0.841718
1769.000000	0.841794
1768.000000	0.841905
1767.000000	0.842035
1766.000000	0.842156
1765.000000	0.842234
1764.000000	0.842253
1763.000000	0.842236
1762.000000	0.842235
1761.000000	0.842285
1760.000000	0.842377
1759.000000	0.842463
1758.000000	0.842512
1757.000000	0.842530
1756.000000	0.842546
1755.000000	0.842578
1754.000000	0.842620
1753.000000	0.842658
1752.000000	0.842689
1751.000000	0.842722
1750.000000	0.842760
1749.000000	0.842802
1748.000000	0.842853
1747.000000	0.842922
1746.000000	0.843017
1745.000000	0.843125
1744.000000	0.843219
1743.000000	0.843274
1742.000000	0.843286
1741.000000	0.843270
1740.000000	0.843263
1739.000000	0.843298
1738.000000	0.843367
1737.000000	0.843413
1736.000000	0.843382
1735.000000	0.843293
1734.000000	0.843234
1733.000000	0.843285
1732.000000	0.843445
1731.000000	0.843650
1730.000000	0.843844
1729.000000	0.844001
1728.000000	0.844114
1727.000000	0.844175
1726.000000	0.844193
1725.000000	0.844193
1724.000000	0.844207
1723.000000	0.844252
1722.000000	0.844311
1721.000000	0.844345
1720.000000	0.844314
1719.000000	0.844216
1718.000000	0.844114
1717.000000	0.844092
1716.000000	0.844187
1715.000000	0.844364
1714.000000	0.844552
1713.000000	0.844704
1712.000000	0.844804
1711.000000	0.844862
1710.000000	0.844896
1709.000000	0.844921
1708.000000	0.844944
1707.000000	0.844967
1706.000000	0.844994
1705.000000	0.845026
1704.000000	0.845034
1703.000000	0.844975
1702.000000	0.844844
1701.000000	0.844710
1700.000000	0.844669
1699.000000	0.844737
1698.000000	0.844837
1697.000000	0.844892
1696.000000	0.844910
1695.000000	0.844968
1694.000000	0.845114
1693.000000	0.845311
1692.000000	0.845486
1691.000000	0.845596
1690.000000	0.845643
1689.000000	0.845642
1688.000000	0.845586
1687.000000	0.845465
1686.000000	0.845314
1685.000000	0.845214
1684.000000	0.845240
1683.000000	0.845388
1682.000000	0.845576
1681.000000	0.845719
1680.000000	0.845791
1679.000000	0.845822
1678.000000	0.845844
1677.000000	0.845863
1676.000000	0.845877
1675.000000	0.845893
1674.000000	0.845918
1673.000000	0.845937
1672.000000	0.845931
1671.000000	0.845908
1670.000000	0.845914
1669.000000	0.845985
1668.000000	0.846104
1667.000000	0.846212
1666.000000	0.846259
1665.000000	0.846239
1664.000000	0.846195
1663.000000	0.846182
1662.000000	0.846227
1661.000000	0.846311
1660.000000	0.846386
1659.000000	0.846416
1658.000000	0.846390
1657.000000	0.846305
1656.000000	0.846149
1655.000000	0.845931
1654.000000	0.845724
1653.000000	0.845644
1652.000000	0.845759
1651.000000	0.846002
1650.000000	0.846228
1649.000000	0.846332
1648.000000	0.846327
1647.000000	0.846307
1646.000000	0.846352
1645.000000	0.846467
1644.000000	0.846596
1643.000000	0.846683
1642.000000	0.846718
1641.000000	0.846723
1640.000000	0.846723
1639.000000	0.846709
1638.000000	0.846651
1637.000000	0.846546
1636.000000	0.846443
1635.000000	0.846407
1634.000000	0.846462
1633.000000	0.846574
1632.000000	0.846685
1631.000000	0.846759
1630.000000	0.846787
1629.000000	0.846778
1628.000000	0.846743
1627.000000	0.846697
1626.000000	0.846656
1625.000000	0.846631
1624.000000	0.846628
1623.000000	0.846651
1622.000000	0.846688
1621.000000	0.846710
1620.000000	0.846684
1619.000000	0.846605
1618.000000	0.846515
1617.000000	0.846487
1616.000000	0.846570
1615.000000	0.846740
1614.000000	0.846917
1613.000000	0.847022
1612.000000	0.847042
1611.000000	0.847028
1610.000000	0.847034
1609.000000	0.847073
1608.000000	0.847118
1607.000000	0.847144
1606.000000	0.847141
1605.000000	0.847115
1604.000000	0.847079
1603.000000	0.847059
1602.000000	0.847078
1601.000000	0.847133
1600.000000	0.847193
1599.000000	0.847221
1598.000000	0.847207
1597.000000	0.847164
1596.000000	0.847125
1595.000000	0.847119
1594.000000	0.847158
1593.000000	0.847221
1592.000000	0.847271
1591.000000	0.847283
1590.000000	0.847265
1589.000000	0.847244
1588.000000	0.847246
1587.000000	0.847279
1586.000000	0.847337
1585.000000	0.847395
1584.000000	0.847421
1583.000000	0.847400
1582.000000	0.847352
1581.000000	0.847314
1580.000000	0.847299
1579.000000	0.847285
1578.000000	0.847240
1577.000000	0.847168
1576.000000	0.847111
1575.000000	0.847111
1574.000000	0.847165
1573.000000	0.847230
1572.000000	0.847270
1571.000000	0.847286
1570.000000	0.847305
1569.000000	0.847342
1568.000000	0.847382
1567.000000	0.847404
1566.000000	0.847408
1565.000000	0.847413
1564.000000	0.847427
1563.000000	0.847415
1562.000000	0.847314
1561.000000	0.847099
1560.000000	0.846845
1559.000000	0.846698
1558.000000	0.846758
1557.000000	0.846986
1556.000000	0.847247
1555.000000	0.847431
1554.000000	0.847520
1553.000000	0.847548
1552.000000	0.847543
1551.000000	0.847519
1550.000000	0.847496
1549.000000	0.847500
1548.000000	0.847530
1547.000000	0.847554
1546.000000	0.847539
1545.000000	0.847482
1544.000000	0.847401
1543.000000	0.847301
1542.000000	0.847183
1541.000000	0.847066
1540.000000	0.847009
1539.000000	0.847064
1538.000000	0.847215
1537.000000	0.847374
1536.000000	0.847452
1535.000000	0.847451
1534.000000	0.847449
1533.000000	0.847516
1532.000000	0.847637
1531.000000	0.847735
1530.000000	0.847750
1529.000000	0.847684
1528.000000	0.847591
1527.000000	0.847527
1526.000000	0.847519
1525.000000	0.847540
1524.000000	0.847532
1523.000000	0.847458
1522.000000	0.847348
1521.000000	0.847277
1520.000000	0.847295
1519.000000	0.847387
1518.000000	0.847500
1517.000000	0.847598
1516.000000	0.847671
1515.000000	0.847711
1514.000000	0.847712
1513.000000	0.847682
1512.000000	0.847648
1511.000000	0.847627
1510.000000	0.847601
1509.000000	0.847527
1508.000000	0.847396
1507.000000	0.847266
1506.000000	0.847226
1505.000000	0.847324
1504.000000	0.847525
1503.000000	0.847746
1502.000000	0.847919
1501.000000	0.848015
1500.000000	0.848030
