PE IR       SUBTECH     SPECTRUM    ASCII       PEDS        4.00        
   -1
TE108B2_013_90K.ASC
20/02/27
14:05:50.00
20/02/27
14:05:51.00
Administrator
Sample 013 By Administrator Date Thursday, February 27 2020
1500.000000
#HDR
-1
-1
#GR
cm-1
A
1.0
0.0
4000.000000
-1.000000
2501
8
0.846581
0.811183
#DATA
4000.000000	0.818858
3999.000000	0.818845
3998.000000	0.818832
3997.000000	0.818826
3996.000000	0.818831
3995.000000	0.818839
3994.000000	0.818838
3993.000000	0.818820
3992.000000	0.818789
3991.000000	0.818756
3990.000000	0.818735
3989.000000	0.818732
3988.000000	0.818740
3987.000000	0.818746
3986.000000	0.818735
3985.000000	0.818705
3984.000000	0.818659
3983.000000	0.818612
3982.000000	0.818582
3981.000000	0.818580
3980.000000	0.818601
3979.000000	0.818625
3978.000000	0.818630
3977.000000	0.818603
3976.000000	0.818556
3975.000000	0.818510
3974.000000	0.818488
3973.000000	0.818488
3972.000000	0.818496
3971.000000	0.818492
3970.000000	0.818464
3969.000000	0.818417
3968.000000	0.818363
3967.000000	0.818320
3966.000000	0.818293
3965.000000	0.818283
3964.000000	0.818276
3963.000000	0.818262
3962.000000	0.818238
3961.000000	0.818205
3960.000000	0.818171
3959.000000	0.818138
3958.000000	0.818104
3957.000000	0.818065
3956.000000	0.818024
3955.000000	0.817982
3954.000000	0.817945
3953.000000	0.817915
3952.000000	0.817893
3951.000000	0.817879
3950.000000	0.817870
3949.000000	0.817855
3948.000000	0.817822
3947.000000	0.817767
3946.000000	0.817702
3945.000000	0.817647
3944.000000	0.817608
3943.000000	0.817579
3942.000000	0.817545
3941.000000	0.817500
3940.000000	0.817451
3939.000000	0.817411
3938.000000	0.817386
3937.000000	0.817372
3936.000000	0.817360
3935.000000	0.817337
3934.000000	0.817300
3933.000000	0.817246
3932.000000	0.817180
3931.000000	0.817108
3930.000000	0.817038
3929.000000	0.816975
3928.000000	0.816919
3927.000000	0.816867
3926.000000	0.816818
3925.000000	0.816775
3924.000000	0.816741
3923.000000	0.816715
3922.000000	0.816694
3921.000000	0.816669
3920.000000	0.816633
3919.000000	0.816584
3918.000000	0.816530
3917.000000	0.816478
3916.000000	0.816433
3915.000000	0.816393
3914.000000	0.816354
3913.000000	0.816312
3912.000000	0.816266
3911.000000	0.816215
3910.000000	0.816159
3909.000000	0.816097
3908.000000	0.816032
3907.000000	0.815969
3906.000000	0.815910
3905.000000	0.815851
3904.000000	0.815786
3903.000000	0.815718
3902.000000	0.815655
3901.000000	0.815605
3900.000000	0.815572
3899.000000	0.815554
3898.000000	0.815547
3897.000000	0.815545
3896.000000	0.815537
3895.000000	0.815514
3894.000000	0.815473
3893.000000	0.815419
3892.000000	0.815366
3891.000000	0.815327
3890.000000	0.815313
3889.000000	0.815314
3888.000000	0.815308
3887.000000	0.815269
3886.000000	0.815194
3885.000000	0.815109
3884.000000	0.815045
3883.000000	0.815014
3882.000000	0.814999
3881.000000	0.814977
3880.000000	0.814942
3879.000000	0.814909
3878.000000	0.814891
3877.000000	0.814886
3876.000000	0.814880
3875.000000	0.814859
3874.000000	0.814818
3873.000000	0.814754
3872.000000	0.814668
3871.000000	0.814562
3870.000000	0.814457
3869.000000	0.814378
3868.000000	0.814346
3867.000000	0.814359
3866.000000	0.814386
3865.000000	0.814394
3864.000000	0.814367
3863.000000	0.814320
3862.000000	0.814276
3861.000000	0.814252
3860.000000	0.814243
3859.000000	0.814232
3858.000000	0.814203
3857.000000	0.814135
3856.000000	0.814010
3855.000000	0.813821
3854.000000	0.813598
3853.000000	0.813406
3852.000000	0.813312
3851.000000	0.813340
3850.000000	0.813457
3849.000000	0.813592
3848.000000	0.813688
3847.000000	0.813726
3846.000000	0.813719
3845.000000	0.813691
3844.000000	0.813654
3843.000000	0.813609
3842.000000	0.813555
3841.000000	0.813490
3840.000000	0.813411
3839.000000	0.813317
3838.000000	0.813221
3837.000000	0.813145
3836.000000	0.813114
3835.000000	0.813133
3834.000000	0.813182
3833.000000	0.813231
3832.000000	0.813256
3831.000000	0.813252
3830.000000	0.813227
3829.000000	0.813193
3828.000000	0.813155
3827.000000	0.813113
3826.000000	0.813067
3825.000000	0.813019
3824.000000	0.812967
3823.000000	0.812904
3822.000000	0.812826
3821.000000	0.812739
3820.000000	0.812662
3819.000000	0.812613
3818.000000	0.812592
3817.000000	0.812580
3816.000000	0.812560
3815.000000	0.812534
3814.000000	0.812526
3813.000000	0.812551
3812.000000	0.812606
3811.000000	0.812660
3810.000000	0.812684
3809.000000	0.812660
3808.000000	0.812594
3807.000000	0.812508
3806.000000	0.812431
3805.000000	0.812376
3804.000000	0.812334
3803.000000	0.812285
3802.000000	0.812223
3801.000000	0.812166
3800.000000	0.812150
3799.000000	0.812187
3798.000000	0.812261
3797.000000	0.812334
3796.000000	0.812379
3795.000000	0.812394
3794.000000	0.812395
3793.000000	0.812395
3792.000000	0.812394
3791.000000	0.812390
3790.000000	0.812380
3789.000000	0.812366
3788.000000	0.812350
3787.000000	0.812332
3786.000000	0.812312
3785.000000	0.812293
3784.000000	0.812282
3783.000000	0.812274
3782.000000	0.812262
3781.000000	0.812236
3780.000000	0.812198
3779.000000	0.812164
3778.000000	0.812154
3777.000000	0.812171
3776.000000	0.812197
3775.000000	0.812208
3774.000000	0.812190
3773.000000	0.812152
3772.000000	0.812115
3771.000000	0.812088
3770.000000	0.812065
3769.000000	0.812038
3768.000000	0.812003
3767.000000	0.811968
3766.000000	0.811938
3765.000000	0.811913
3764.000000	0.811891
3763.000000	0.811877
3762.000000	0.811877
3761.000000	0.811887
3760.000000	0.811894
3759.000000	0.811889
3758.000000	0.811874
3757.000000	0.811859
3756.000000	0.811843
3755.000000	0.811813
3754.000000	0.811747
3753.000000	0.811636
3752.000000	0.811496
3751.000000	0.811367
3750.000000	0.811290
3749.000000	0.811280
3748.000000	0.811316
3747.000000	0.811347
3746.000000	0.811330
3745.000000	0.811264
3744.000000	0.811195
3743.000000	0.811183
3742.000000	0.811253
3741.000000	0.811379
3740.000000	0.811504
3739.000000	0.811577
3738.000000	0.811581
3737.000000	0.811529
3736.000000	0.811458
3735.000000	0.811398
3734.000000	0.811368
3733.000000	0.811369
3732.000000	0.811393
3731.000000	0.811433
3730.000000	0.811483
3729.000000	0.811530
3728.000000	0.811559
3727.000000	0.811562
3726.000000	0.811552
3725.000000	0.811549
3724.000000	0.811566
3723.000000	0.811600
3722.000000	0.811637
3721.000000	0.811670
3720.000000	0.811699
3719.000000	0.811732
3718.000000	0.811771
3717.000000	0.811809
3716.000000	0.811838
3715.000000	0.811847
3714.000000	0.811839
3713.000000	0.811836
3712.000000	0.811882
3711.000000	0.812012
3710.000000	0.812224
3709.000000	0.812465
3708.000000	0.812665
3707.000000	0.812779
3706.000000	0.812812
3705.000000	0.812808
3704.000000	0.812807
3703.000000	0.812827
3702.000000	0.812867
3701.000000	0.812922
3700.000000	0.813002
3699.000000	0.813115
3698.000000	0.813257
3697.000000	0.813408
3696.000000	0.813544
3695.000000	0.813646
3694.000000	0.813711
3693.000000	0.813745
3692.000000	0.813753
3691.000000	0.813737
3690.000000	0.813701
3689.000000	0.813662
3688.000000	0.813647
3687.000000	0.813685
3686.000000	0.813785
3685.000000	0.813932
3684.000000	0.814092
3683.000000	0.814235
3682.000000	0.814351
3681.000000	0.814446
3680.000000	0.814536
3679.000000	0.814622
3678.000000	0.814697
3677.000000	0.814758
3676.000000	0.814814
3675.000000	0.814893
3674.000000	0.815014
3673.000000	0.815172
3672.000000	0.815338
3671.000000	0.815483
3670.000000	0.815607
3669.000000	0.815737
3668.000000	0.815906
3667.000000	0.816117
3666.000000	0.816343
3665.000000	0.816552
3664.000000	0.816726
3663.000000	0.816866
3662.000000	0.816985
3661.000000	0.817099
3660.000000	0.817214
3659.000000	0.817332
3658.000000	0.817442
3657.000000	0.817535
3656.000000	0.817611
3655.000000	0.817682
3654.000000	0.817764
3653.000000	0.817856
3652.000000	0.817947
3651.000000	0.818021
3650.000000	0.818086
3649.000000	0.818164
3648.000000	0.818277
3647.000000	0.818427
3646.000000	0.818598
3645.000000	0.818772
3644.000000	0.818934
3643.000000	0.819082
3642.000000	0.819214
3641.000000	0.819331
3640.000000	0.819435
3639.000000	0.819528
3638.000000	0.819613
3637.000000	0.819698
3636.000000	0.819786
3635.000000	0.819878
3634.000000	0.819967
3633.000000	0.820044
3632.000000	0.820102
3631.000000	0.820134
3630.000000	0.820142
3629.000000	0.820142
3628.000000	0.820167
3627.000000	0.820250
3626.000000	0.820392
3625.000000	0.820564
3624.000000	0.820718
3623.000000	0.820826
3622.000000	0.820889
3621.000000	0.820929
3620.000000	0.820967
3619.000000	0.821012
3618.000000	0.821068
3617.000000	0.821141
3616.000000	0.821234
3615.000000	0.821339
3614.000000	0.821442
3613.000000	0.821529
3612.000000	0.821596
3611.000000	0.821654
3610.000000	0.821715
3609.000000	0.821782
3608.000000	0.821858
3607.000000	0.821942
3606.000000	0.822039
3605.000000	0.822152
3604.000000	0.822285
3603.000000	0.822439
3602.000000	0.822606
3601.000000	0.822767
3600.000000	0.822894
3599.000000	0.822972
3598.000000	0.823007
3597.000000	0.823020
3596.000000	0.823028
3595.000000	0.823039
3594.000000	0.823056
3593.000000	0.823087
3592.000000	0.823140
3591.000000	0.823211
3590.000000	0.823280
3589.000000	0.823329
3588.000000	0.823356
3587.000000	0.823382
3586.000000	0.823433
3585.000000	0.823517
3584.000000	0.823619
3583.000000	0.823712
3582.000000	0.823781
3581.000000	0.823828
3580.000000	0.823865
3579.000000	0.823903
3578.000000	0.823945
3577.000000	0.823988
3576.000000	0.824032
3575.000000	0.824083
3574.000000	0.824143
3573.000000	0.824210
3572.000000	0.824275
3571.000000	0.824320
3570.000000	0.824340
3569.000000	0.824344
3568.000000	0.824354
3567.000000	0.824388
3566.000000	0.824447
3565.000000	0.824519
3564.000000	0.824592
3563.000000	0.824662
3562.000000	0.824733
3561.000000	0.824803
3560.000000	0.824866
3559.000000	0.824916
3558.000000	0.824959
3557.000000	0.825007
3556.000000	0.825064
3555.000000	0.825124
3554.000000	0.825175
3553.000000	0.825216
3552.000000	0.825255
3551.000000	0.825304
3550.000000	0.825367
3549.000000	0.825440
3548.000000	0.825507
3547.000000	0.825558
3546.000000	0.825595
3545.000000	0.825630
3544.000000	0.825679
3543.000000	0.825746
3542.000000	0.825824
3541.000000	0.825901
3540.000000	0.825970
3539.000000	0.826029
3538.000000	0.826078
3537.000000	0.826124
3536.000000	0.826176
3535.000000	0.826241
3534.000000	0.826320
3533.000000	0.826407
3532.000000	0.826494
3531.000000	0.826577
3530.000000	0.826654
3529.000000	0.826727
3528.000000	0.826802
3527.000000	0.826881
3526.000000	0.826967
3525.000000	0.827057
3524.000000	0.827145
3523.000000	0.827228
3522.000000	0.827307
3521.000000	0.827390
3520.000000	0.827487
3519.000000	0.827600
3518.000000	0.827723
3517.000000	0.827846
3516.000000	0.827962
3515.000000	0.828072
3514.000000	0.828180
3513.000000	0.828291
3512.000000	0.828404
3511.000000	0.828518
3510.000000	0.828634
3509.000000	0.828748
3508.000000	0.828863
3507.000000	0.828979
3506.000000	0.829096
3505.000000	0.829206
3504.000000	0.829306
3503.000000	0.829395
3502.000000	0.829484
3501.000000	0.829585
3500.000000	0.829703
3499.000000	0.829832
3498.000000	0.829962
3497.000000	0.830092
3496.000000	0.830221
3495.000000	0.830349
3494.000000	0.830475
3493.000000	0.830604
3492.000000	0.830742
3491.000000	0.830888
3490.000000	0.831031
3489.000000	0.831159
3488.000000	0.831269
3487.000000	0.831375
3486.000000	0.831493
3485.000000	0.831630
3484.000000	0.831774
3483.000000	0.831908
3482.000000	0.832025
3481.000000	0.832133
3480.000000	0.832246
3479.000000	0.832374
3478.000000	0.832515
3477.000000	0.832661
3476.000000	0.832806
3475.000000	0.832948
3474.000000	0.833089
3473.000000	0.833232
3472.000000	0.833376
3471.000000	0.833517
3470.000000	0.833653
3469.000000	0.833782
3468.000000	0.833909
3467.000000	0.834041
3466.000000	0.834180
3465.000000	0.834325
3464.000000	0.834473
3463.000000	0.834622
3462.000000	0.834766
3461.000000	0.834905
3460.000000	0.835037
3459.000000	0.835161
3458.000000	0.835279
3457.000000	0.835395
3456.000000	0.835516
3455.000000	0.835648
3454.000000	0.835787
3453.000000	0.835926
3452.000000	0.836054
3451.000000	0.836171
3450.000000	0.836283
3449.000000	0.836399
3448.000000	0.836525
3447.000000	0.836655
3446.000000	0.836776
3445.000000	0.836880
3444.000000	0.836974
3443.000000	0.837071
3442.000000	0.837181
3441.000000	0.837302
3440.000000	0.837426
3439.000000	0.837541
3438.000000	0.837639
3437.000000	0.837720
3436.000000	0.837795
3435.000000	0.837877
3434.000000	0.837971
3433.000000	0.838074
3432.000000	0.838178
3431.000000	0.838282
3430.000000	0.838387
3429.000000	0.838493
3428.000000	0.838596
3427.000000	0.838690
3426.000000	0.838777
3425.000000	0.838860
3424.000000	0.838945
3423.000000	0.839033
3422.000000	0.839124
3421.000000	0.839219
3420.000000	0.839316
3419.000000	0.839416
3418.000000	0.839516
3417.000000	0.839614
3416.000000	0.839712
3415.000000	0.839809
3414.000000	0.839896
3413.000000	0.839965
3412.000000	0.840015
3411.000000	0.840053
3410.000000	0.840090
3409.000000	0.840130
3408.000000	0.840172
3407.000000	0.840216
3406.000000	0.840263
3405.000000	0.840314
3404.000000	0.840366
3403.000000	0.840416
3402.000000	0.840463
3401.000000	0.840512
3400.000000	0.840566
3399.000000	0.840630
3398.000000	0.840699
3397.000000	0.840766
3396.000000	0.840820
3395.000000	0.840855
3394.000000	0.840869
3393.000000	0.840872
3392.000000	0.840885
3391.000000	0.840928
3390.000000	0.841004
3389.000000	0.841091
3388.000000	0.841160
3387.000000	0.841197
3386.000000	0.841215
3385.000000	0.841238
3384.000000	0.841278
3383.000000	0.841328
3382.000000	0.841376
3381.000000	0.841412
3380.000000	0.841439
3379.000000	0.841461
3378.000000	0.841482
3377.000000	0.841505
3376.000000	0.841530
3375.000000	0.841553
3374.000000	0.841572
3373.000000	0.841586
3372.000000	0.841596
3371.000000	0.841609
3370.000000	0.841629
3369.000000	0.841659
3368.000000	0.841699
3367.000000	0.841740
3366.000000	0.841773
3365.000000	0.841793
3364.000000	0.841807
3363.000000	0.841824
3362.000000	0.841850
3361.000000	0.841881
3360.000000	0.841909
3359.000000	0.841926
3358.000000	0.841929
3357.000000	0.841926
3356.000000	0.841931
3355.000000	0.841952
3354.000000	0.841985
3353.000000	0.842014
3352.000000	0.842028
3351.000000	0.842031
3350.000000	0.842032
3349.000000	0.842039
3348.000000	0.842055
3347.000000	0.842088
3346.000000	0.842140
3345.000000	0.842198
3344.000000	0.842238
3343.000000	0.842254
3342.000000	0.842255
3341.000000	0.842259
3340.000000	0.842271
3339.000000	0.842286
3338.000000	0.842298
3337.000000	0.842307
3336.000000	0.842317
3335.000000	0.842328
3334.000000	0.842339
3333.000000	0.842352
3332.000000	0.842370
3331.000000	0.842395
3330.000000	0.842426
3329.000000	0.842461
3328.000000	0.842498
3327.000000	0.842533
3326.000000	0.842565
3325.000000	0.842593
3324.000000	0.842615
3323.000000	0.842631
3322.000000	0.842644
3321.000000	0.842660
3320.000000	0.842681
3319.000000	0.842702
3318.000000	0.842719
3317.000000	0.842732
3316.000000	0.842750
3315.000000	0.842778
3314.000000	0.842817
3313.000000	0.842859
3312.000000	0.842897
3311.000000	0.842928
3310.000000	0.842954
3309.000000	0.842977
3308.000000	0.842998
3307.000000	0.843018
3306.000000	0.843039
3305.000000	0.843066
3304.000000	0.843102
3303.000000	0.843145
3302.000000	0.843190
3301.000000	0.843228
3300.000000	0.843259
3299.000000	0.843285
3298.000000	0.843309
3297.000000	0.843327
3296.000000	0.843335
3295.000000	0.843337
3294.000000	0.843340
3293.000000	0.843352
3292.000000	0.843371
3291.000000	0.843390
3290.000000	0.843405
3289.000000	0.843420
3288.000000	0.843440
3287.000000	0.843473
3286.000000	0.843518
3285.000000	0.843572
3284.000000	0.843623
3283.000000	0.843658
3282.000000	0.843674
3281.000000	0.843675
3280.000000	0.843672
3279.000000	0.843673
3278.000000	0.843680
3277.000000	0.843690
3276.000000	0.843706
3275.000000	0.843730
3274.000000	0.843760
3273.000000	0.843790
3272.000000	0.843817
3271.000000	0.843840
3270.000000	0.843859
3269.000000	0.843873
3268.000000	0.843885
3267.000000	0.843903
3266.000000	0.843932
3265.000000	0.843966
3264.000000	0.843995
3263.000000	0.844012
3262.000000	0.844022
3261.000000	0.844037
3260.000000	0.844062
3259.000000	0.844093
3258.000000	0.844125
3257.000000	0.844151
3256.000000	0.844170
3255.000000	0.844185
3254.000000	0.844201
3253.000000	0.844223
3252.000000	0.844247
3251.000000	0.844262
3250.000000	0.844263
3249.000000	0.844252
3248.000000	0.844241
3247.000000	0.844237
3246.000000	0.844241
3245.000000	0.844247
3244.000000	0.844253
3243.000000	0.844263
3242.000000	0.844283
3241.000000	0.844312
3240.000000	0.844344
3239.000000	0.844376
3238.000000	0.844408
3237.000000	0.844435
3236.000000	0.844449
3235.000000	0.844446
3234.000000	0.844434
3233.000000	0.844433
3232.000000	0.844450
3231.000000	0.844480
3230.000000	0.844505
3229.000000	0.844521
3228.000000	0.844536
3227.000000	0.844561
3226.000000	0.844600
3225.000000	0.844645
3224.000000	0.844683
3223.000000	0.844701
3222.000000	0.844697
3221.000000	0.844684
3220.000000	0.844680
3219.000000	0.844699
3218.000000	0.844741
3217.000000	0.844792
3216.000000	0.844838
3215.000000	0.844869
3214.000000	0.844884
3213.000000	0.844887
3212.000000	0.844891
3211.000000	0.844908
3210.000000	0.844938
3209.000000	0.844970
3208.000000	0.844990
3207.000000	0.844996
3206.000000	0.844999
3205.000000	0.845011
3204.000000	0.845032
3203.000000	0.845053
3202.000000	0.845065
3201.000000	0.845071
3200.000000	0.845080
3199.000000	0.845098
3198.000000	0.845121
3197.000000	0.845140
3196.000000	0.845154
3195.000000	0.845168
3194.000000	0.845186
3193.000000	0.845206
3192.000000	0.845222
3191.000000	0.845230
3190.000000	0.845231
3189.000000	0.845227
3188.000000	0.845225
3187.000000	0.845232
3186.000000	0.845251
3185.000000	0.845272
3184.000000	0.845285
3183.000000	0.845289
3182.000000	0.845297
3181.000000	0.845318
3180.000000	0.845352
3179.000000	0.845388
3178.000000	0.845410
3177.000000	0.845415
3176.000000	0.845410
3175.000000	0.845409
3174.000000	0.845428
3173.000000	0.845465
3172.000000	0.845502
3171.000000	0.845522
3170.000000	0.845519
3169.000000	0.845509
3168.000000	0.845505
3167.000000	0.845512
3166.000000	0.845521
3165.000000	0.845527
3164.000000	0.845531
3163.000000	0.845538
3162.000000	0.845549
3161.000000	0.845564
3160.000000	0.845580
3159.000000	0.845596
3158.000000	0.845609
3157.000000	0.845624
3156.000000	0.845645
3155.000000	0.845674
3154.000000	0.845707
3153.000000	0.845732
3152.000000	0.845743
3151.000000	0.845746
3150.000000	0.845754
3149.000000	0.845770
3148.000000	0.845788
3147.000000	0.845799
3146.000000	0.845803
3145.000000	0.845809
3144.000000	0.845819
3143.000000	0.845832
3142.000000	0.845841
3141.000000	0.845848
3140.000000	0.845860
3139.000000	0.845883
3138.000000	0.845910
3137.000000	0.845933
3136.000000	0.845948
3135.000000	0.845964
3134.000000	0.845988
3133.000000	0.846017
3132.000000	0.846040
3131.000000	0.846056
3130.000000	0.846071
3129.000000	0.846095
3128.000000	0.846124
3127.000000	0.846148
3126.000000	0.846162
3125.000000	0.846176
3124.000000	0.846200
3123.000000	0.846230
3122.000000	0.846255
3121.000000	0.846270
3120.000000	0.846280
3119.000000	0.846292
3118.000000	0.846308
3117.000000	0.846327
3116.000000	0.846350
3115.000000	0.846377
3114.000000	0.846402
3113.000000	0.846417
3112.000000	0.846416
3111.000000	0.846408
3110.000000	0.846404
3109.000000	0.846415
3108.000000	0.846436
3107.000000	0.846460
3106.000000	0.846476
3105.000000	0.846483
3104.000000	0.846485
3103.000000	0.846489
3102.000000	0.846498
3101.000000	0.846506
3100.000000	0.846510
3099.000000	0.846512
3098.000000	0.846517
3097.000000	0.846523
3096.000000	0.846525
3095.000000	0.846519
3094.000000	0.846513
3093.000000	0.846518
3092.000000	0.846538
3091.000000	0.846563
3090.000000	0.846579
3089.000000	0.846581
3088.000000	0.846574
3087.000000	0.846564
3086.000000	0.846553
3085.000000	0.846543
3084.000000	0.846535
3083.000000	0.846530
3082.000000	0.846527
3081.000000	0.846520
3080.000000	0.846513
3079.000000	0.846514
3078.000000	0.846526
3077.000000	0.846544
3076.000000	0.846555
3075.000000	0.846552
3074.000000	0.846538
3073.000000	0.846520
3072.000000	0.846506
3071.000000	0.846500
3070.000000	0.846500
3069.000000	0.846501
3068.000000	0.846497
3067.000000	0.846487
3066.000000	0.846473
3065.000000	0.846460
3064.000000	0.846450
3063.000000	0.846439
3062.000000	0.846422
3061.000000	0.846398
3060.000000	0.846373
3059.000000	0.846356
3058.000000	0.846351
3057.000000	0.846353
3056.000000	0.846349
3055.000000	0.846333
3054.000000	0.846307
3053.000000	0.846279
3052.000000	0.846256
3051.000000	0.846241
3050.000000	0.846236
3049.000000	0.846238
3048.000000	0.846239
3047.000000	0.846223
3046.000000	0.846181
3045.000000	0.846124
3044.000000	0.846081
3043.000000	0.846067
3042.000000	0.846074
3041.000000	0.846081
3040.000000	0.846075
3039.000000	0.846055
3038.000000	0.846026
3037.000000	0.845993
3036.000000	0.845965
3035.000000	0.845947
3034.000000	0.845940
3033.000000	0.845932
3032.000000	0.845915
3031.000000	0.845893
3030.000000	0.845876
3029.000000	0.845866
3028.000000	0.845856
3027.000000	0.845840
3026.000000	0.845818
3025.000000	0.845798
3024.000000	0.845787
3023.000000	0.845785
3022.000000	0.845782
3021.000000	0.845770
3020.000000	0.845744
3019.000000	0.845714
3018.000000	0.845689
3017.000000	0.845664
3016.000000	0.845626
3015.000000	0.845570
3014.000000	0.845505
3013.000000	0.845446
3012.000000	0.845405
3011.000000	0.845383
3010.000000	0.845374
3009.000000	0.845366
3008.000000	0.845349
3007.000000	0.845316
3006.000000	0.845270
3005.000000	0.845224
3004.000000	0.845191
3003.000000	0.845172
3002.000000	0.845157
3001.000000	0.845132
3000.000000	0.845087
2999.000000	0.845027
2998.000000	0.844963
2997.000000	0.844902
2996.000000	0.844850
2995.000000	0.844803
2994.000000	0.844762
2993.000000	0.844723
2992.000000	0.844684
2991.000000	0.844645
2990.000000	0.844609
2989.000000	0.844583
2988.000000	0.844569
2987.000000	0.844567
2986.000000	0.844568
2985.000000	0.844564
2984.000000	0.844546
2983.000000	0.844510
2982.000000	0.844466
2981.000000	0.844426
2980.000000	0.844403
2979.000000	0.844400
2978.000000	0.844408
2977.000000	0.844416
2976.000000	0.844415
2975.000000	0.844399
2974.000000	0.844372
2973.000000	0.844337
2972.000000	0.844305
2971.000000	0.844283
2970.000000	0.844274
2969.000000	0.844273
2968.000000	0.844272
2967.000000	0.844261
2966.000000	0.844239
2965.000000	0.844204
2964.000000	0.844158
2963.000000	0.844104
2962.000000	0.844051
2961.000000	0.844002
2960.000000	0.843956
2959.000000	0.843912
2958.000000	0.843868
2957.000000	0.843824
2956.000000	0.843774
2955.000000	0.843714
2954.000000	0.843642
2953.000000	0.843565
2952.000000	0.843493
2951.000000	0.843434
2950.000000	0.843391
2949.000000	0.843362
2948.000000	0.843340
2947.000000	0.843316
2946.000000	0.843286
2945.000000	0.843252
2944.000000	0.843219
2943.000000	0.843192
2942.000000	0.843174
2941.000000	0.843161
2940.000000	0.843142
2939.000000	0.843114
2938.000000	0.843083
2937.000000	0.843056
2936.000000	0.843036
2935.000000	0.843013
2934.000000	0.842981
2933.000000	0.842942
2932.000000	0.842902
2931.000000	0.842863
2930.000000	0.842820
2929.000000	0.842768
2928.000000	0.842711
2927.000000	0.842658
2926.000000	0.842613
2925.000000	0.842569
2924.000000	0.842513
2923.000000	0.842440
2922.000000	0.842357
2921.000000	0.842281
2920.000000	0.842217
2919.000000	0.842159
2918.000000	0.842102
2917.000000	0.842047
2916.000000	0.841998
2915.000000	0.841949
2914.000000	0.841891
2913.000000	0.841827
2912.000000	0.841768
2911.000000	0.841723
2910.000000	0.841683
2909.000000	0.841637
2908.000000	0.841581
2907.000000	0.841530
2906.000000	0.841495
2905.000000	0.841476
2904.000000	0.841457
2903.000000	0.841424
2902.000000	0.841376
2901.000000	0.841319
2900.000000	0.841262
2899.000000	0.841206
2898.000000	0.841153
2897.000000	0.841106
2896.000000	0.841061
2895.000000	0.841013
2894.000000	0.840960
2893.000000	0.840907
2892.000000	0.840862
2891.000000	0.840823
2890.000000	0.840780
2889.000000	0.840726
2888.000000	0.840665
2887.000000	0.840607
2886.000000	0.840558
2885.000000	0.840517
2884.000000	0.840478
2883.000000	0.840437
2882.000000	0.840398
2881.000000	0.840366
2880.000000	0.840345
2879.000000	0.840332
2878.000000	0.840314
2877.000000	0.840281
2876.000000	0.840234
2875.000000	0.840181
2874.000000	0.840135
2873.000000	0.840102
2872.000000	0.840081
2871.000000	0.840062
2870.000000	0.840037
2869.000000	0.840004
2868.000000	0.839967
2867.000000	0.839929
2866.000000	0.839889
2865.000000	0.839840
2864.000000	0.839781
2863.000000	0.839718
2862.000000	0.839659
2861.000000	0.839609
2860.000000	0.839561
2859.000000	0.839510
2858.000000	0.839453
2857.000000	0.839393
2856.000000	0.839332
2855.000000	0.839273
2854.000000	0.839221
2853.000000	0.839178
2852.000000	0.839141
2851.000000	0.839109
2850.000000	0.839085
2849.000000	0.839068
2848.000000	0.839051
2847.000000	0.839025
2846.000000	0.838990
2845.000000	0.838958
2844.000000	0.838934
2843.000000	0.838916
2842.000000	0.838896
2841.000000	0.838872
2840.000000	0.838846
2839.000000	0.838817
2838.000000	0.838784
2837.000000	0.838753
2836.000000	0.838729
2835.000000	0.838711
2834.000000	0.838692
2833.000000	0.838669
2832.000000	0.838646
2831.000000	0.838623
2830.000000	0.838601
2829.000000	0.838576
2828.000000	0.838548
2827.000000	0.838516
2826.000000	0.838477
2825.000000	0.838435
2824.000000	0.838391
2823.000000	0.838349
2822.000000	0.838313
2821.000000	0.838290
2820.000000	0.838281
2819.000000	0.838280
2818.000000	0.838271
2817.000000	0.838243
2816.000000	0.838201
2815.000000	0.838155
2814.000000	0.838110
2813.000000	0.838065
2812.000000	0.838022
2811.000000	0.837983
2810.000000	0.837956
2809.000000	0.837942
2808.000000	0.837939
2807.000000	0.837939
2806.000000	0.837932
2805.000000	0.837914
2804.000000	0.837886
2803.000000	0.837853
2802.000000	0.837815
2801.000000	0.837771
2800.000000	0.837727
2799.000000	0.837693
2798.000000	0.837677
2797.000000	0.837673
2796.000000	0.837669
2795.000000	0.837655
2794.000000	0.837628
2793.000000	0.837595
2792.000000	0.837564
2791.000000	0.837537
2790.000000	0.837515
2789.000000	0.837496
2788.000000	0.837474
2787.000000	0.837447
2786.000000	0.837420
2785.000000	0.837397
2784.000000	0.837378
2783.000000	0.837359
2782.000000	0.837339
2781.000000	0.837322
2780.000000	0.837315
2779.000000	0.837313
2778.000000	0.837305
2777.000000	0.837287
2776.000000	0.837265
2775.000000	0.837248
2774.000000	0.837238
2773.000000	0.837233
2772.000000	0.837228
2771.000000	0.837217
2770.000000	0.837200
2769.000000	0.837180
2768.000000	0.837162
2767.000000	0.837146
2766.000000	0.837129
2765.000000	0.837106
2764.000000	0.837081
2763.000000	0.837061
2762.000000	0.837047
2761.000000	0.837036
2760.000000	0.837017
2759.000000	0.836985
2758.000000	0.836949
2757.000000	0.836922
2756.000000	0.836914
2755.000000	0.836923
2754.000000	0.836935
2753.000000	0.836938
2752.000000	0.836927
2751.000000	0.836910
2750.000000	0.836896
2749.000000	0.836890
2748.000000	0.836889
2747.000000	0.836887
2746.000000	0.836882
2745.000000	0.836878
2744.000000	0.836882
2743.000000	0.836890
2742.000000	0.836894
2741.000000	0.836891
2740.000000	0.836881
2739.000000	0.836867
2738.000000	0.836854
2737.000000	0.836845
2736.000000	0.836842
2735.000000	0.836838
2734.000000	0.836824
2733.000000	0.836800
2732.000000	0.836769
2731.000000	0.836738
2730.000000	0.836707
2729.000000	0.836682
2728.000000	0.836674
2727.000000	0.836690
2726.000000	0.836720
2725.000000	0.836744
2724.000000	0.836751
2723.000000	0.836740
2722.000000	0.836719
2721.000000	0.836691
2720.000000	0.836666
2719.000000	0.836650
2718.000000	0.836646
2717.000000	0.836652
2716.000000	0.836663
2715.000000	0.836676
2714.000000	0.836685
2713.000000	0.836684
2712.000000	0.836674
2711.000000	0.836663
2710.000000	0.836659
2709.000000	0.836662
2708.000000	0.836664
2707.000000	0.836660
2706.000000	0.836649
2705.000000	0.836636
2704.000000	0.836627
2703.000000	0.836626
2702.000000	0.836629
2701.000000	0.836628
2700.000000	0.836619
2699.000000	0.836606
2698.000000	0.836596
2697.000000	0.836594
2696.000000	0.836598
2695.000000	0.836601
2694.000000	0.836602
2693.000000	0.836601
2692.000000	0.836602
2691.000000	0.836608
2690.000000	0.836615
2689.000000	0.836620
2688.000000	0.836623
2687.000000	0.836625
2686.000000	0.836629
2685.000000	0.836632
2684.000000	0.836630
2683.000000	0.836624
2682.000000	0.836617
2681.000000	0.836614
2680.000000	0.836619
2679.000000	0.836630
2678.000000	0.836642
2677.000000	0.836653
2676.000000	0.836659
2675.000000	0.836666
2674.000000	0.836677
2673.000000	0.836690
2672.000000	0.836700
2671.000000	0.836703
2670.000000	0.836702
2669.000000	0.836703
2668.000000	0.836712
2667.000000	0.836725
2666.000000	0.836736
2665.000000	0.836739
2664.000000	0.836737
2663.000000	0.836735
2662.000000	0.836738
2661.000000	0.836748
2660.000000	0.836767
2659.000000	0.836794
2658.000000	0.836825
2657.000000	0.836855
2656.000000	0.836874
2655.000000	0.836878
2654.000000	0.836870
2653.000000	0.836862
2652.000000	0.836864
2651.000000	0.836883
2650.000000	0.836911
2649.000000	0.836937
2648.000000	0.836955
2647.000000	0.836968
2646.000000	0.836984
2645.000000	0.837006
2644.000000	0.837033
2643.000000	0.837057
2642.000000	0.837077
2641.000000	0.837091
2640.000000	0.837100
2639.000000	0.837108
2638.000000	0.837116
2637.000000	0.837126
2636.000000	0.837136
2635.000000	0.837145
2634.000000	0.837150
2633.000000	0.837157
2632.000000	0.837167
2631.000000	0.837183
2630.000000	0.837201
2629.000000	0.837217
2628.000000	0.837227
2627.000000	0.837230
2626.000000	0.837232
2625.000000	0.837240
2624.000000	0.837258
2623.000000	0.837284
2622.000000	0.837309
2621.000000	0.837326
2620.000000	0.837334
2619.000000	0.837339
2618.000000	0.837346
2617.000000	0.837361
2616.000000	0.837386
2615.000000	0.837417
2614.000000	0.837443
2613.000000	0.837459
2612.000000	0.837467
2611.000000	0.837475
2610.000000	0.837487
2609.000000	0.837504
2608.000000	0.837525
2607.000000	0.837546
2606.000000	0.837568
2605.000000	0.837592
2604.000000	0.837618
2603.000000	0.837643
2602.000000	0.837661
2601.000000	0.837666
2600.000000	0.837662
2599.000000	0.837655
2598.000000	0.837653
2597.000000	0.837661
2596.000000	0.837685
2595.000000	0.837724
2594.000000	0.837771
2593.000000	0.837812
2592.000000	0.837837
2591.000000	0.837846
2590.000000	0.837850
2589.000000	0.837858
2588.000000	0.837876
2587.000000	0.837896
2586.000000	0.837911
2585.000000	0.837913
2584.000000	0.837910
2583.000000	0.837913
2582.000000	0.837933
2581.000000	0.837966
2580.000000	0.838004
2579.000000	0.838033
2578.000000	0.838046
2577.000000	0.838047
2576.000000	0.838048
2575.000000	0.838060
2574.000000	0.838085
2573.000000	0.838114
2572.000000	0.838139
2571.000000	0.838161
2570.000000	0.838182
2569.000000	0.838198
2568.000000	0.838208
2567.000000	0.838215
2566.000000	0.838231
2565.000000	0.838257
2564.000000	0.838288
2563.000000	0.838319
2562.000000	0.838352
2561.000000	0.838390
2560.000000	0.838424
2559.000000	0.838447
2558.000000	0.838457
2557.000000	0.838466
2556.000000	0.838488
2555.000000	0.838526
2554.000000	0.838567
2553.000000	0.838598
2552.000000	0.838612
2551.000000	0.838619
2550.000000	0.838630
2549.000000	0.838652
2548.000000	0.838678
2547.000000	0.838701
2546.000000	0.838721
2545.000000	0.838744
2544.000000	0.838768
2543.000000	0.838789
2542.000000	0.838803
2541.000000	0.838814
2540.000000	0.838835
2539.000000	0.838867
2538.000000	0.838902
2537.000000	0.838923
2536.000000	0.838929
2535.000000	0.838930
2534.000000	0.838939
2533.000000	0.838964
2532.000000	0.838999
2531.000000	0.839036
2530.000000	0.839069
2529.000000	0.839100
2528.000000	0.839129
2527.000000	0.839159
2526.000000	0.839188
2525.000000	0.839216
2524.000000	0.839240
2523.000000	0.839255
2522.000000	0.839255
2521.000000	0.839244
2520.000000	0.839233
2519.000000	0.839236
2518.000000	0.839261
2517.000000	0.839302
2516.000000	0.839343
2515.000000	0.839373
2514.000000	0.839390
2513.000000	0.839403
2512.000000	0.839420
2511.000000	0.839442
2510.000000	0.839465
2509.000000	0.839486
2508.000000	0.839508
2507.000000	0.839534
2506.000000	0.839563
2505.000000	0.839591
2504.000000	0.839615
2503.000000	0.839636
2502.000000	0.839654
2501.000000	0.839666
2500.000000	0.839675
2499.000000	0.839684
2498.000000	0.839695
2497.000000	0.839713
2496.000000	0.839734
2495.000000	0.839757
2494.000000	0.839781
2493.000000	0.839807
2492.000000	0.839831
2491.000000	0.839847
2490.000000	0.839858
2489.000000	0.839873
2488.000000	0.839895
2487.000000	0.839923
2486.000000	0.839947
2485.000000	0.839965
2484.000000	0.839985
2483.000000	0.840008
2482.000000	0.840030
2481.000000	0.840044
2480.000000	0.840057
2479.000000	0.840078
2478.000000	0.840107
2477.000000	0.840137
2476.000000	0.840163
2475.000000	0.840192
2474.000000	0.840228
2473.000000	0.840270
2472.000000	0.840311
2471.000000	0.840341
2470.000000	0.840359
2469.000000	0.840369
2468.000000	0.840382
2467.000000	0.840407
2466.000000	0.840445
2465.000000	0.840482
2464.000000	0.840507
2463.000000	0.840517
2462.000000	0.840521
2461.000000	0.840528
2460.000000	0.840547
2459.000000	0.840579
2458.000000	0.840620
2457.000000	0.840659
2456.000000	0.840685
2455.000000	0.840699
2454.000000	0.840706
2453.000000	0.840715
2452.000000	0.840724
2451.000000	0.840729
2450.000000	0.840727
2449.000000	0.840720
2448.000000	0.840716
2447.000000	0.840722
2446.000000	0.840731
2445.000000	0.840733
2444.000000	0.840723
2443.000000	0.840709
2442.000000	0.840702
2441.000000	0.840703
2440.000000	0.840704
2439.000000	0.840697
2438.000000	0.840684
2437.000000	0.840674
2436.000000	0.840669
2435.000000	0.840669
2434.000000	0.840669
2433.000000	0.840669
2432.000000	0.840673
2431.000000	0.840682
2430.000000	0.840686
2429.000000	0.840677
2428.000000	0.840652
2427.000000	0.840624
2426.000000	0.840605
2425.000000	0.840595
2424.000000	0.840583
2423.000000	0.840563
2422.000000	0.840542
2421.000000	0.840527
2420.000000	0.840516
2419.000000	0.840495
2418.000000	0.840461
2417.000000	0.840420
2416.000000	0.840384
2415.000000	0.840357
2414.000000	0.840337
2413.000000	0.840320
2412.000000	0.840304
2411.000000	0.840282
2410.000000	0.840250
2409.000000	0.840209
2408.000000	0.840166
2407.000000	0.840129
2406.000000	0.840100
2405.000000	0.840075
2404.000000	0.840053
2403.000000	0.840032
2402.000000	0.840010
2401.000000	0.839982
2400.000000	0.839946
2399.000000	0.839901
2398.000000	0.839855
2397.000000	0.839820
2396.000000	0.839801
2395.000000	0.839791
2394.000000	0.839774
2393.000000	0.839737
2392.000000	0.839678
2391.000000	0.839610
2390.000000	0.839542
2389.000000	0.839477
2388.000000	0.839418
2387.000000	0.839372
2386.000000	0.839345
2385.000000	0.839339
2384.000000	0.839354
2383.000000	0.839396
2382.000000	0.839482
2381.000000	0.839625
2380.000000	0.839823
2379.000000	0.840054
2378.000000	0.840285
2377.000000	0.840489
2376.000000	0.840653
2375.000000	0.840781
2374.000000	0.840875
2373.000000	0.840937
2372.000000	0.840970
2371.000000	0.840984
2370.000000	0.840992
2369.000000	0.841002
2368.000000	0.841010
2367.000000	0.841008
2366.000000	0.840996
2365.000000	0.840985
2364.000000	0.840994
2363.000000	0.841034
2362.000000	0.841100
2361.000000	0.841175
2360.000000	0.841251
2359.000000	0.841337
2358.000000	0.841443
2357.000000	0.841563
2356.000000	0.841681
2355.000000	0.841786
2354.000000	0.841879
2353.000000	0.841966
2352.000000	0.842048
2351.000000	0.842124
2350.000000	0.842202
2349.000000	0.842287
2348.000000	0.842382
2347.000000	0.842496
2346.000000	0.842653
2345.000000	0.842884
2344.000000	0.843207
2343.000000	0.843607
2342.000000	0.844041
2341.000000	0.844438
2340.000000	0.844720
2339.000000	0.844820
2338.000000	0.844712
2337.000000	0.844431
2336.000000	0.844053
2335.000000	0.843659
2334.000000	0.843309
2333.000000	0.843027
2332.000000	0.842810
2331.000000	0.842645
2330.000000	0.842512
2329.000000	0.842397
2328.000000	0.842295
2327.000000	0.842209
2326.000000	0.842143
2325.000000	0.842094
2324.000000	0.842055
2323.000000	0.842022
2322.000000	0.842000
2321.000000	0.841989
2320.000000	0.841984
2319.000000	0.841974
2318.000000	0.841960
2317.000000	0.841949
2316.000000	0.841945
2315.000000	0.841947
2314.000000	0.841953
2313.000000	0.841961
2312.000000	0.841967
2311.000000	0.841967
2310.000000	0.841962
2309.000000	0.841960
2308.000000	0.841968
2307.000000	0.841981
2306.000000	0.841988
2305.000000	0.841987
2304.000000	0.841980
2303.000000	0.841979
2302.000000	0.841990
2301.000000	0.842012
2300.000000	0.842037
2299.000000	0.842052
2298.000000	0.842052
2297.000000	0.842040
2296.000000	0.842027
2295.000000	0.842020
2294.000000	0.842022
2293.000000	0.842031
2292.000000	0.842045
2291.000000	0.842060
2290.000000	0.842072
2289.000000	0.842079
2288.000000	0.842082
2287.000000	0.842090
2286.000000	0.842116
2285.000000	0.842172
2284.000000	0.842249
2283.000000	0.842320
2282.000000	0.842356
2281.000000	0.842353
2280.000000	0.842334
2279.000000	0.842330
2278.000000	0.842347
2277.000000	0.842373
2276.000000	0.842388
2275.000000	0.842387
2274.000000	0.842375
2273.000000	0.842360
2272.000000	0.842350
2271.000000	0.842346
2270.000000	0.842350
2269.000000	0.842358
2268.000000	0.842365
2267.000000	0.842368
2266.000000	0.842364
2265.000000	0.842355
2264.000000	0.842346
2263.000000	0.842345
2262.000000	0.842356
2261.000000	0.842373
2260.000000	0.842385
2259.000000	0.842387
2258.000000	0.842384
2257.000000	0.842384
2256.000000	0.842390
2255.000000	0.842400
2254.000000	0.842417
2253.000000	0.842441
2252.000000	0.842464
2251.000000	0.842472
2250.000000	0.842467
2249.000000	0.842461
2248.000000	0.842466
2247.000000	0.842482
2246.000000	0.842503
2245.000000	0.842522
2244.000000	0.842533
2243.000000	0.842536
2242.000000	0.842532
2241.000000	0.842529
2240.000000	0.842533
2239.000000	0.842547
2238.000000	0.842565
2237.000000	0.842576
2236.000000	0.842579
2235.000000	0.842577
2234.000000	0.842574
2233.000000	0.842569
2232.000000	0.842561
2231.000000	0.842550
2230.000000	0.842540
2229.000000	0.842535
2228.000000	0.842535
2227.000000	0.842536
2226.000000	0.842537
2225.000000	0.842538
2224.000000	0.842538
2223.000000	0.842534
2222.000000	0.842527
2221.000000	0.842522
2220.000000	0.842525
2219.000000	0.842531
2218.000000	0.842535
2217.000000	0.842532
2216.000000	0.842524
2215.000000	0.842515
2214.000000	0.842509
2213.000000	0.842507
2212.000000	0.842505
2211.000000	0.842500
2210.000000	0.842489
2209.000000	0.842479
2208.000000	0.842474
2207.000000	0.842471
2206.000000	0.842463
2205.000000	0.842445
2204.000000	0.842419
2203.000000	0.842394
2202.000000	0.842376
2201.000000	0.842363
2200.000000	0.842350
2199.000000	0.842333
2198.000000	0.842315
2197.000000	0.842302
2196.000000	0.842296
2195.000000	0.842293
2194.000000	0.842289
2193.000000	0.842279
2192.000000	0.842263
2191.000000	0.842247
2190.000000	0.842236
2189.000000	0.842232
2188.000000	0.842234
2187.000000	0.842233
2186.000000	0.842223
2185.000000	0.842201
2184.000000	0.842166
2183.000000	0.842123
2182.000000	0.842080
2181.000000	0.842047
2180.000000	0.842031
2179.000000	0.842021
2178.000000	0.842008
2177.000000	0.841990
2176.000000	0.841976
2175.000000	0.841973
2174.000000	0.841975
2173.000000	0.841972
2172.000000	0.841957
2171.000000	0.841927
2170.000000	0.841888
2169.000000	0.841847
2168.000000	0.841810
2167.000000	0.841782
2166.000000	0.841764
2165.000000	0.841752
2164.000000	0.841746
2163.000000	0.841742
2162.000000	0.841731
2161.000000	0.841705
2160.000000	0.841663
2159.000000	0.841615
2158.000000	0.841572
2157.000000	0.841539
2156.000000	0.841515
2155.000000	0.841492
2154.000000	0.841468
2153.000000	0.841442
2152.000000	0.841413
2151.000000	0.841379
2150.000000	0.841337
2149.000000	0.841293
2148.000000	0.841254
2147.000000	0.841222
2146.000000	0.841190
2145.000000	0.841156
2144.000000	0.841126
2143.000000	0.841109
2142.000000	0.841102
2141.000000	0.841088
2140.000000	0.841054
2139.000000	0.841006
2138.000000	0.840959
2137.000000	0.840923
2136.000000	0.840895
2135.000000	0.840871
2134.000000	0.840847
2133.000000	0.840822
2132.000000	0.840790
2131.000000	0.840755
2130.000000	0.840719
2129.000000	0.840686
2128.000000	0.840656
2127.000000	0.840625
2126.000000	0.840594
2125.000000	0.840564
2124.000000	0.840529
2123.000000	0.840489
2122.000000	0.840447
2121.000000	0.840408
2120.000000	0.840372
2119.000000	0.840332
2118.000000	0.840285
2117.000000	0.840235
2116.000000	0.840188
2115.000000	0.840145
2114.000000	0.840110
2113.000000	0.840086
2112.000000	0.840071
2111.000000	0.840056
2110.000000	0.840031
2109.000000	0.839996
2108.000000	0.839958
2107.000000	0.839919
2106.000000	0.839882
2105.000000	0.839842
2104.000000	0.839793
2103.000000	0.839733
2102.000000	0.839667
2101.000000	0.839609
2100.000000	0.839569
2099.000000	0.839543
2098.000000	0.839522
2097.000000	0.839500
2096.000000	0.839478
2095.000000	0.839449
2094.000000	0.839407
2093.000000	0.839352
2092.000000	0.839298
2091.000000	0.839256
2090.000000	0.839231
2089.000000	0.839219
2088.000000	0.839211
2087.000000	0.839196
2086.000000	0.839164
2085.000000	0.839113
2084.000000	0.839050
2083.000000	0.838986
2082.000000	0.838928
2081.000000	0.838877
2080.000000	0.838833
2079.000000	0.838794
2078.000000	0.838757
2077.000000	0.838719
2076.000000	0.838683
2075.000000	0.838654
2074.000000	0.838630
2073.000000	0.838604
2072.000000	0.838569
2071.000000	0.838524
2070.000000	0.838474
2069.000000	0.838423
2068.000000	0.838372
2067.000000	0.838323
2066.000000	0.838277
2065.000000	0.838236
2064.000000	0.838200
2063.000000	0.838167
2062.000000	0.838135
2061.000000	0.838098
2060.000000	0.838055
2059.000000	0.838005
2058.000000	0.837950
2057.000000	0.837896
2056.000000	0.837847
2055.000000	0.837809
2054.000000	0.837778
2053.000000	0.837747
2052.000000	0.837713
2051.000000	0.837680
2050.000000	0.837654
2049.000000	0.837629
2048.000000	0.837598
2047.000000	0.837562
2046.000000	0.837525
2045.000000	0.837490
2044.000000	0.837447
2043.000000	0.837392
2042.000000	0.837327
2041.000000	0.837268
2040.000000	0.837224
2039.000000	0.837191
2038.000000	0.837159
2037.000000	0.837121
2036.000000	0.837082
2035.000000	0.837051
2034.000000	0.837031
2033.000000	0.837013
2032.000000	0.836982
2031.000000	0.836934
2030.000000	0.836875
2029.000000	0.836820
2028.000000	0.836775
2027.000000	0.836736
2026.000000	0.836698
2025.000000	0.836662
2024.000000	0.836630
2023.000000	0.836602
2022.000000	0.836574
2021.000000	0.836543
2020.000000	0.836508
2019.000000	0.836470
2018.000000	0.836427
2017.000000	0.836381
2016.000000	0.836333
2015.000000	0.836288
2014.000000	0.836253
2013.000000	0.836229
2012.000000	0.836210
2011.000000	0.836187
2010.000000	0.836154
2009.000000	0.836112
2008.000000	0.836069
2007.000000	0.836030
2006.000000	0.835993
2005.000000	0.835952
2004.000000	0.835908
2003.000000	0.835864
2002.000000	0.835829
2001.000000	0.835805
2000.000000	0.835786
1999.000000	0.835766
1998.000000	0.835744
1997.000000	0.835723
1996.000000	0.835697
1995.000000	0.835665
1994.000000	0.835626
1993.000000	0.835591
1992.000000	0.835566
1991.000000	0.835547
1990.000000	0.835525
1989.000000	0.835496
1988.000000	0.835463
1987.000000	0.835430
1986.000000	0.835394
1985.000000	0.835353
1984.000000	0.835310
1983.000000	0.835272
1982.000000	0.835244
1981.000000	0.835227
1980.000000	0.835217
1979.000000	0.835212
1978.000000	0.835209
1977.000000	0.835206
1976.000000	0.835198
1975.000000	0.835183
1974.000000	0.835163
1973.000000	0.835143
1972.000000	0.835126
1971.000000	0.835104
1970.000000	0.835074
1969.000000	0.835038
1968.000000	0.835002
1967.000000	0.834969
1966.000000	0.834942
1965.000000	0.834923
1964.000000	0.834911
1963.000000	0.834903
1962.000000	0.834893
1961.000000	0.834881
1960.000000	0.834866
1959.000000	0.834846
1958.000000	0.834825
1957.000000	0.834808
1956.000000	0.834801
1955.000000	0.834797
1954.000000	0.834786
1953.000000	0.834766
1952.000000	0.834746
1951.000000	0.834736
1950.000000	0.834738
1949.000000	0.834743
1948.000000	0.834739
1947.000000	0.834726
1946.000000	0.834708
1945.000000	0.834688
1944.000000	0.834663
1943.000000	0.834634
1942.000000	0.834608
1941.000000	0.834595
1940.000000	0.834597
1939.000000	0.834602
1938.000000	0.834599
1937.000000	0.834586
1936.000000	0.834564
1935.000000	0.834541
1934.000000	0.834521
1933.000000	0.834513
1932.000000	0.834522
1931.000000	0.834541
1930.000000	0.834554
1929.000000	0.834553
1928.000000	0.834540
1927.000000	0.834525
1926.000000	0.834513
1925.000000	0.834503
1924.000000	0.834496
1923.000000	0.834495
1922.000000	0.834498
1921.000000	0.834496
1920.000000	0.834479
1919.000000	0.834449
1918.000000	0.834424
1917.000000	0.834425
1916.000000	0.834459
1915.000000	0.834509
1914.000000	0.834555
1913.000000	0.834581
1912.000000	0.834589
1911.000000	0.834587
1910.000000	0.834585
1909.000000	0.834583
1908.000000	0.834576
1907.000000	0.834562
1906.000000	0.834548
1905.000000	0.834544
1904.000000	0.834554
1903.000000	0.834570
1902.000000	0.834582
1901.000000	0.834590
1900.000000	0.834597
1899.000000	0.834602
1898.000000	0.834598
1897.000000	0.834582
1896.000000	0.834563
1895.000000	0.834552
1894.000000	0.834553
1893.000000	0.834562
1892.000000	0.834569
1891.000000	0.834568
1890.000000	0.834561
1889.000000	0.834555
1888.000000	0.834554
1887.000000	0.834558
1886.000000	0.834560
1885.000000	0.834557
1884.000000	0.834554
1883.000000	0.834557
1882.000000	0.834566
1881.000000	0.834578
1880.000000	0.834589
1879.000000	0.834601
1878.000000	0.834619
1877.000000	0.834640
1876.000000	0.834652
1875.000000	0.834644
1874.000000	0.834617
1873.000000	0.834580
1872.000000	0.834543
1871.000000	0.834515
1870.000000	0.834502
1869.000000	0.834506
1868.000000	0.834528
1867.000000	0.834562
1866.000000	0.834599
1865.000000	0.834631
1864.000000	0.834656
1863.000000	0.834673
1862.000000	0.834684
1861.000000	0.834690
1860.000000	0.834693
1859.000000	0.834695
1858.000000	0.834702
1857.000000	0.834716
1856.000000	0.834736
1855.000000	0.834756
1854.000000	0.834768
1853.000000	0.834767
1852.000000	0.834756
1851.000000	0.834741
1850.000000	0.834733
1849.000000	0.834736
1848.000000	0.834743
1847.000000	0.834736
1846.000000	0.834704
1845.000000	0.834661
1844.000000	0.834637
1843.000000	0.834653
1842.000000	0.834705
1841.000000	0.834767
1840.000000	0.834815
1839.000000	0.834844
1838.000000	0.834868
1837.000000	0.834898
1836.000000	0.834933
1835.000000	0.834961
1834.000000	0.834974
1833.000000	0.834970
1832.000000	0.834951
1831.000000	0.834926
1830.000000	0.834916
1829.000000	0.834937
1828.000000	0.834988
1827.000000	0.835045
1826.000000	0.835083
1825.000000	0.835100
1824.000000	0.835116
1823.000000	0.835150
1822.000000	0.835203
1821.000000	0.835260
1820.000000	0.835305
1819.000000	0.835333
1818.000000	0.835346
1817.000000	0.835355
1816.000000	0.835367
1815.000000	0.835386
1814.000000	0.835409
1813.000000	0.835427
1812.000000	0.835437
1811.000000	0.835444
1810.000000	0.835462
1809.000000	0.835499
1808.000000	0.835546
1807.000000	0.835582
1806.000000	0.835596
1805.000000	0.835594
1804.000000	0.835590
1803.000000	0.835587
1802.000000	0.835583
1801.000000	0.835586
1800.000000	0.835604
1799.000000	0.835640
1798.000000	0.835686
1797.000000	0.835727
1796.000000	0.835747
1795.000000	0.835730
1794.000000	0.835683
1793.000000	0.835636
1792.000000	0.835632
1791.000000	0.835686
1790.000000	0.835780
1789.000000	0.835880
1788.000000	0.835954
1787.000000	0.835991
1786.000000	0.835999
1785.000000	0.836001
1784.000000	0.836016
1783.000000	0.836049
1782.000000	0.836088
1781.000000	0.836127
1780.000000	0.836166
1779.000000	0.836207
1778.000000	0.836245
1777.000000	0.836267
1776.000000	0.836266
1775.000000	0.836245
1774.000000	0.836216
1773.000000	0.836201
1772.000000	0.836225
1771.000000	0.836288
1770.000000	0.836370
1769.000000	0.836446
1768.000000	0.836518
1767.000000	0.836597
1766.000000	0.836685
1765.000000	0.836757
1764.000000	0.836790
1763.000000	0.836787
1762.000000	0.836783
1761.000000	0.836807
1760.000000	0.836862
1759.000000	0.836924
1758.000000	0.836976
1757.000000	0.837021
1756.000000	0.837074
1755.000000	0.837135
1754.000000	0.837177
1753.000000	0.837181
1752.000000	0.837161
1751.000000	0.837157
1750.000000	0.837200
1749.000000	0.837285
1748.000000	0.837386
1747.000000	0.837478
1746.000000	0.837551
1745.000000	0.837607
1744.000000	0.837651
1743.000000	0.837686
1742.000000	0.837710
1741.000000	0.837728
1740.000000	0.837755
1739.000000	0.837800
1738.000000	0.837849
1737.000000	0.837861
1736.000000	0.837806
1735.000000	0.837719
1734.000000	0.837684
1733.000000	0.837764
1732.000000	0.837942
1731.000000	0.838143
1730.000000	0.838304
1729.000000	0.838412
1728.000000	0.838487
1727.000000	0.838547
1726.000000	0.838599
1725.000000	0.838649
1724.000000	0.838700
1723.000000	0.838750
1722.000000	0.838787
1721.000000	0.838789
1720.000000	0.838734
1719.000000	0.838633
1718.000000	0.838539
1717.000000	0.838523
1716.000000	0.838610
1715.000000	0.838766
1714.000000	0.838935
1713.000000	0.839085
1712.000000	0.839205
1711.000000	0.839284
1710.000000	0.839318
1709.000000	0.839320
1708.000000	0.839310
1707.000000	0.839296
1706.000000	0.839284
1705.000000	0.839283
1704.000000	0.839290
1703.000000	0.839265
1702.000000	0.839180
1701.000000	0.839070
1700.000000	0.839020
1699.000000	0.839068
1698.000000	0.839162
1697.000000	0.839236
1696.000000	0.839296
1695.000000	0.839397
1694.000000	0.839557
1693.000000	0.839728
1692.000000	0.839845
1691.000000	0.839897
1690.000000	0.839920
1689.000000	0.839941
1688.000000	0.839936
1687.000000	0.839857
1686.000000	0.839700
1685.000000	0.839541
1684.000000	0.839487
1683.000000	0.839588
1682.000000	0.839789
1681.000000	0.839996
1680.000000	0.840145
1679.000000	0.840221
1678.000000	0.840226
1677.000000	0.840172
1676.000000	0.840097
1675.000000	0.840063
1674.000000	0.840102
1673.000000	0.840181
1672.000000	0.840241
1671.000000	0.840257
1670.000000	0.840258
1669.000000	0.840291
1668.000000	0.840370
1667.000000	0.840466
1666.000000	0.840534
1665.000000	0.840551
1664.000000	0.840530
1663.000000	0.840510
1662.000000	0.840524
1661.000000	0.840570
1660.000000	0.840623
1659.000000	0.840663
1658.000000	0.840682
1657.000000	0.840657
1656.000000	0.840543
1655.000000	0.840319
1654.000000	0.840056
1653.000000	0.839905
1652.000000	0.839972
1651.000000	0.840210
1650.000000	0.840462
1649.000000	0.840598
1648.000000	0.840607
1647.000000	0.840566
1646.000000	0.840560
1645.000000	0.840622
1644.000000	0.840728
1643.000000	0.840832
1642.000000	0.840898
1641.000000	0.840921
1640.000000	0.840914
1639.000000	0.840874
1638.000000	0.840790
1637.000000	0.840671
1636.000000	0.840572
1635.000000	0.840555
1634.000000	0.840635
1633.000000	0.840764
1632.000000	0.840877
1631.000000	0.840933
1630.000000	0.840934
1629.000000	0.840910
1628.000000	0.840895
1627.000000	0.840897
1626.000000	0.840893
1625.000000	0.840857
1624.000000	0.840801
1623.000000	0.840761
1622.000000	0.840764
1621.000000	0.840793
1620.000000	0.840798
1619.000000	0.840747
1618.000000	0.840660
1617.000000	0.840603
1616.000000	0.840637
1615.000000	0.840764
1614.000000	0.840921
1613.000000	0.841038
1612.000000	0.841097
1611.000000	0.841120
1610.000000	0.841134
1609.000000	0.841137
1608.000000	0.841123
1607.000000	0.841099
1606.000000	0.841076
1605.000000	0.841061
1604.000000	0.841054
1603.000000	0.841058
1602.000000	0.841073
1601.000000	0.841093
1600.000000	0.841110
1599.000000	0.841122
1598.000000	0.841129
1597.000000	0.841134
1596.000000	0.841140
1595.000000	0.841152
1594.000000	0.841172
1593.000000	0.841196
1592.000000	0.841218
1591.000000	0.841234
1590.000000	0.841246
1589.000000	0.841252
1588.000000	0.841252
1587.000000	0.841250
1586.000000	0.841252
1585.000000	0.841259
1584.000000	0.841264
1583.000000	0.841267
1582.000000	0.841274
1581.000000	0.841286
1580.000000	0.841278
1579.000000	0.841212
1578.000000	0.841080
1577.000000	0.840933
1576.000000	0.840859
1575.000000	0.840906
1574.000000	0.841031
1573.000000	0.841143
1572.000000	0.841181
1571.000000	0.841160
1570.000000	0.841139
1569.000000	0.841156
1568.000000	0.841203
1567.000000	0.841253
1566.000000	0.841287
1565.000000	0.841305
1564.000000	0.841303
1563.000000	0.841253
1562.000000	0.841116
1561.000000	0.840893
1560.000000	0.840659
1559.000000	0.840533
1558.000000	0.840576
1557.000000	0.840744
1556.000000	0.840934
1555.000000	0.841080
1554.000000	0.841181
1553.000000	0.841257
1552.000000	0.841312
1551.000000	0.841342
1550.000000	0.841360
1549.000000	0.841383
1548.000000	0.841407
1547.000000	0.841407
1546.000000	0.841367
1545.000000	0.841291
1544.000000	0.841192
1543.000000	0.841067
1542.000000	0.840911
1541.000000	0.840750
1540.000000	0.840650
1539.000000	0.840679
1538.000000	0.840836
1537.000000	0.841039
1536.000000	0.841186
1535.000000	0.841239
1534.000000	0.841238
1533.000000	0.841252
1532.000000	0.841306
1531.000000	0.841373
1530.000000	0.841413
1529.000000	0.841411
1528.000000	0.841374
1527.000000	0.841324
1526.000000	0.841277
1525.000000	0.841234
1524.000000	0.841175
1523.000000	0.841088
1522.000000	0.841002
1521.000000	0.840966
1520.000000	0.841002
1519.000000	0.841082
1518.000000	0.841158
1517.000000	0.841213
1516.000000	0.841259
1515.000000	0.841301
1514.000000	0.841326
1513.000000	0.841327
1512.000000	0.841313
1511.000000	0.841287
1510.000000	0.841228
1509.000000	0.841113
1508.000000	0.840958
1507.000000	0.840834
1506.000000	0.840823
1505.000000	0.840954
1504.000000	0.841174
1503.000000	0.841390
1502.000000	0.841536
1501.000000	0.841606
1500.000000	0.841623
