PE IR       SUBTECH     SPECTRUM    ASCII       PEDS        4.00        
   -1
TE110A_079_140K_SB.ASC
20/05/14
15:31:01.00
20/05/14
15:31:01.00
Administrator
TE110A.Thursday, May 14 2020, 010.
1000.000000
#HDR
-1
-1
#GR
cm-1
EGY
1.0
0.0
6000.000000
-2.000000
2501
8
6.407773
0.661979
#DATA
6000.000000	1.061738
5998.000000	1.064175
5996.000000	1.066917
5994.000000	1.069210
5992.000000	1.071877
5990.000000	1.074325
5988.000000	1.077596
5986.000000	1.079274
5984.000000	1.080358
5982.000000	1.082410
5980.000000	1.084676
5978.000000	1.087155
5976.000000	1.088963
5974.000000	1.089996
5972.000000	1.090532
5970.000000	1.092364
5968.000000	1.095699
5966.000000	1.099383
5964.000000	1.102471
5962.000000	1.104349
5960.000000	1.105117
5958.000000	1.106496
5956.000000	1.108119
5954.000000	1.110914
5952.000000	1.113884
5950.000000	1.115810
5948.000000	1.118436
5946.000000	1.120962
5944.000000	1.122357
5942.000000	1.123849
5940.000000	1.125899
5938.000000	1.129594
5936.000000	1.132636
5934.000000	1.134759
5932.000000	1.135999
5930.000000	1.137894
5928.000000	1.140354
5926.000000	1.143000
5924.000000	1.145655
5922.000000	1.147309
5920.000000	1.148926
5918.000000	1.151230
5916.000000	1.154330
5914.000000	1.157443
5912.000000	1.160155
5910.000000	1.162464
5908.000000	1.164470
5906.000000	1.166357
5904.000000	1.168344
5902.000000	1.170444
5900.000000	1.172662
5898.000000	1.174538
5896.000000	1.176440
5894.000000	1.178689
5892.000000	1.181193
5890.000000	1.184379
5888.000000	1.186851
5886.000000	1.188344
5884.000000	1.190232
5882.000000	1.193067
5880.000000	1.196739
5878.000000	1.199369
5876.000000	1.201518
5874.000000	1.203876
5872.000000	1.206158
5870.000000	1.208032
5868.000000	1.208988
5866.000000	1.210454
5864.000000	1.212837
5862.000000	1.215755
5860.000000	1.218938
5858.000000	1.221898
5856.000000	1.224586
5854.000000	1.226870
5852.000000	1.229321
5850.000000	1.232236
5848.000000	1.235189
5846.000000	1.237309
5844.000000	1.239567
5842.000000	1.241974
5840.000000	1.244501
5838.000000	1.247580
5836.000000	1.250339
5834.000000	1.253686
5832.000000	1.255828
5830.000000	1.257569
5828.000000	1.259962
5826.000000	1.262749
5824.000000	1.265261
5822.000000	1.267177
5820.000000	1.269094
5818.000000	1.271045
5816.000000	1.273756
5814.000000	1.276450
5812.000000	1.279736
5810.000000	1.283123
5808.000000	1.285488
5806.000000	1.288179
5804.000000	1.290095
5802.000000	1.291988
5800.000000	1.294770
5798.000000	1.298555
5796.000000	1.302354
5794.000000	1.304561
5792.000000	1.306445
5790.000000	1.308863
5788.000000	1.311565
5786.000000	1.314354
5784.000000	1.316639
5782.000000	1.319097
5780.000000	1.321744
5778.000000	1.324888
5776.000000	1.328450
5774.000000	1.331289
5772.000000	1.333750
5770.000000	1.336228
5768.000000	1.339109
5766.000000	1.342256
5764.000000	1.344476
5762.000000	1.345626
5760.000000	1.346760
5758.000000	1.349663
5756.000000	1.354488
5754.000000	1.358690
5752.000000	1.361454
5750.000000	1.364728
5748.000000	1.367792
5746.000000	1.370203
5744.000000	1.371316
5742.000000	1.373041
5740.000000	1.375846
5738.000000	1.377770
5736.000000	1.379288
5734.000000	1.381654
5732.000000	1.385389
5730.000000	1.389246
5728.000000	1.392249
5726.000000	1.394496
5724.000000	1.395777
5722.000000	1.397465
5720.000000	1.400243
5718.000000	1.403440
5716.000000	1.407005
5714.000000	1.409893
5712.000000	1.413149
5710.000000	1.415810
5708.000000	1.417161
5706.000000	1.419547
5704.000000	1.423040
5702.000000	1.427004
5700.000000	1.430011
5698.000000	1.431745
5696.000000	1.433897
5694.000000	1.437169
5692.000000	1.440979
5690.000000	1.443990
5688.000000	1.446299
5686.000000	1.449006
5684.000000	1.451814
5682.000000	1.454925
5680.000000	1.458098
5678.000000	1.461442
5676.000000	1.464804
5674.000000	1.467293
5672.000000	1.469486
5670.000000	1.471418
5668.000000	1.473558
5666.000000	1.475820
5664.000000	1.478850
5662.000000	1.482220
5660.000000	1.486006
5658.000000	1.489643
5656.000000	1.493234
5654.000000	1.497262
5652.000000	1.500532
5650.000000	1.502072
5648.000000	1.502613
5646.000000	1.504232
5644.000000	1.508175
5642.000000	1.512732
5640.000000	1.515685
5638.000000	1.517472
5636.000000	1.519888
5634.000000	1.523404
5632.000000	1.527332
5630.000000	1.530568
5628.000000	1.532840
5626.000000	1.535260
5624.000000	1.537952
5622.000000	1.540810
5620.000000	1.542787
5618.000000	1.545396
5616.000000	1.548815
5614.000000	1.551884
5612.000000	1.553995
5610.000000	1.556783
5608.000000	1.560203
5606.000000	1.563938
5604.000000	1.567088
5602.000000	1.569844
5600.000000	1.572393
5598.000000	1.575245
5596.000000	1.578136
5594.000000	1.580819
5592.000000	1.583187
5590.000000	1.586007
5588.000000	1.589112
5586.000000	1.592264
5584.000000	1.595922
5582.000000	1.600083
5580.000000	1.602815
5578.000000	1.605388
5576.000000	1.608796
5574.000000	1.613010
5572.000000	1.615858
5570.000000	1.618067
5568.000000	1.620379
5566.000000	1.623576
5564.000000	1.627014
5562.000000	1.630669
5560.000000	1.634144
5558.000000	1.636862
5556.000000	1.639971
5554.000000	1.643136
5552.000000	1.646201
5550.000000	1.649230
5548.000000	1.651614
5546.000000	1.653484
5544.000000	1.655936
5542.000000	1.659422
5540.000000	1.662999
5538.000000	1.666039
5536.000000	1.668960
5534.000000	1.672350
5532.000000	1.675737
5530.000000	1.678218
5528.000000	1.680687
5526.000000	1.683816
5524.000000	1.687611
5522.000000	1.690882
5520.000000	1.692774
5518.000000	1.694616
5516.000000	1.697184
5514.000000	1.700425
5512.000000	1.703811
5510.000000	1.706781
5508.000000	1.710275
5506.000000	1.713219
5504.000000	1.716380
5502.000000	1.720377
5500.000000	1.724968
5498.000000	1.729166
5496.000000	1.730897
5494.000000	1.731534
5492.000000	1.732768
5490.000000	1.735682
5488.000000	1.739484
5486.000000	1.742641
5484.000000	1.747052
5482.000000	1.751901
5480.000000	1.756428
5478.000000	1.759815
5476.000000	1.762937
5474.000000	1.764843
5472.000000	1.765953
5470.000000	1.768496
5468.000000	1.772284
5466.000000	1.775372
5464.000000	1.777648
5462.000000	1.780581
5460.000000	1.784574
5458.000000	1.789430
5456.000000	1.794098
5454.000000	1.796914
5452.000000	1.798486
5450.000000	1.801410
5448.000000	1.805317
5446.000000	1.808241
5444.000000	1.809792
5442.000000	1.811981
5440.000000	1.814588
5438.000000	1.817385
5436.000000	1.820912
5434.000000	1.824466
5432.000000	1.827251
5430.000000	1.828916
5428.000000	1.832050
5426.000000	1.836447
5424.000000	1.840629
5422.000000	1.843752
5420.000000	1.846674
5418.000000	1.850014
5416.000000	1.852937
5414.000000	1.855301
5412.000000	1.857540
5410.000000	1.860677
5408.000000	1.864637
5406.000000	1.868725
5404.000000	1.871637
5402.000000	1.874154
5400.000000	1.877350
5398.000000	1.880875
5396.000000	1.883807
5394.000000	1.885851
5392.000000	1.888923
5390.000000	1.892833
5388.000000	1.896686
5386.000000	1.899332
5384.000000	1.902312
5382.000000	1.906744
5380.000000	1.910358
5378.000000	1.912669
5376.000000	1.915135
5374.000000	1.919366
5372.000000	1.924413
5370.000000	1.929094
5368.000000	1.933186
5366.000000	1.936135
5364.000000	1.938282
5362.000000	1.940994
5360.000000	1.944667
5358.000000	1.948676
5356.000000	1.951477
5354.000000	1.952876
5352.000000	1.954163
5350.000000	1.956784
5348.000000	1.960426
5346.000000	1.962962
5344.000000	1.964374
5342.000000	1.966763
5340.000000	1.970748
5338.000000	1.974713
5336.000000	1.979025
5334.000000	1.984404
5332.000000	1.989512
5330.000000	1.991812
5328.000000	1.992921
5326.000000	1.995799
5324.000000	2.000572
5322.000000	2.004686
5320.000000	2.006773
5318.000000	2.009095
5316.000000	2.013114
5314.000000	2.017461
5312.000000	2.021011
5310.000000	2.024795
5308.000000	2.028274
5306.000000	2.030739
5304.000000	2.033454
5302.000000	2.037268
5300.000000	2.041382
5298.000000	2.045113
5296.000000	2.048872
5294.000000	2.052139
5292.000000	2.054715
5290.000000	2.057062
5288.000000	2.059570
5286.000000	2.062027
5284.000000	2.065276
5282.000000	2.068603
5280.000000	2.072401
5278.000000	2.076324
5276.000000	2.080018
5274.000000	2.083480
5272.000000	2.087038
5270.000000	2.090610
5268.000000	2.093187
5266.000000	2.095238
5264.000000	2.097081
5262.000000	2.099779
5260.000000	2.103810
5258.000000	2.108071
5256.000000	2.111313
5254.000000	2.113421
5252.000000	2.115775
5250.000000	2.118938
5248.000000	2.122444
5246.000000	2.125379
5244.000000	2.127401
5242.000000	2.130642
5240.000000	2.135825
5238.000000	2.140876
5236.000000	2.144313
5234.000000	2.146736
5232.000000	2.149815
5230.000000	2.153271
5228.000000	2.156290
5226.000000	2.158324
5224.000000	2.160258
5222.000000	2.163434
5220.000000	2.168070
5218.000000	2.172960
5216.000000	2.177043
5214.000000	2.179700
5212.000000	2.182165
5210.000000	2.185804
5208.000000	2.189596
5206.000000	2.192454
5204.000000	2.195713
5202.000000	2.200621
5200.000000	2.205317
5198.000000	2.208255
5196.000000	2.210668
5194.000000	2.213833
5192.000000	2.217744
5190.000000	2.221523
5188.000000	2.224318
5186.000000	2.226192
5184.000000	2.228484
5182.000000	2.232424
5180.000000	2.236847
5178.000000	2.240739
5176.000000	2.244156
5174.000000	2.247776
5172.000000	2.251572
5170.000000	2.255663
5168.000000	2.259334
5166.000000	2.262272
5164.000000	2.265047
5162.000000	2.268745
5160.000000	2.273358
5158.000000	2.277717
5156.000000	2.280675
5154.000000	2.282438
5152.000000	2.285134
5150.000000	2.288828
5148.000000	2.292779
5146.000000	2.296707
5144.000000	2.300970
5142.000000	2.304852
5140.000000	2.308042
5138.000000	2.311243
5136.000000	2.314232
5134.000000	2.317605
5132.000000	2.321470
5130.000000	2.325133
5128.000000	2.327639
5126.000000	2.330287
5124.000000	2.333551
5122.000000	2.336516
5120.000000	2.339692
5118.000000	2.343376
5116.000000	2.346904
5114.000000	2.349577
5112.000000	2.352704
5110.000000	2.355573
5108.000000	2.358033
5106.000000	2.361232
5104.000000	2.366436
5102.000000	2.372685
5100.000000	2.377420
5098.000000	2.379586
5096.000000	2.381814
5094.000000	2.385089
5092.000000	2.388272
5090.000000	2.391568
5088.000000	2.395598
5086.000000	2.399553
5084.000000	2.402481
5082.000000	2.406022
5080.000000	2.410385
5078.000000	2.414101
5076.000000	2.416823
5074.000000	2.419256
5072.000000	2.422937
5070.000000	2.427490
5068.000000	2.431820
5066.000000	2.435997
5064.000000	2.439676
5062.000000	2.442816
5060.000000	2.445598
5058.000000	2.449347
5056.000000	2.453174
5054.000000	2.455887
5052.000000	2.458241
5050.000000	2.461671
5048.000000	2.465870
5046.000000	2.470086
5044.000000	2.473683
5042.000000	2.477502
5040.000000	2.481306
5038.000000	2.484728
5036.000000	2.486934
5034.000000	2.489838
5032.000000	2.493737
5030.000000	2.497354
5028.000000	2.499766
5026.000000	2.502884
5024.000000	2.506586
5022.000000	2.510273
5020.000000	2.514196
5018.000000	2.518172
5016.000000	2.521641
5014.000000	2.525173
5012.000000	2.529791
5010.000000	2.534382
5008.000000	2.537687
5006.000000	2.540562
5004.000000	2.543719
5002.000000	2.546828
5000.000000	2.550019
4998.000000	2.553605
4996.000000	2.557341
4994.000000	2.560463
4992.000000	2.563630
4990.000000	2.568121
4988.000000	2.573256
4986.000000	2.577336
4984.000000	2.579797
4982.000000	2.582994
4980.000000	2.586349
4978.000000	2.589168
4976.000000	2.592638
4974.000000	2.597632
4972.000000	2.601303
4970.000000	2.603515
4968.000000	2.605942
4966.000000	2.609733
4964.000000	2.614057
4962.000000	2.617888
4960.000000	2.620506
4958.000000	2.623356
4956.000000	2.627591
4954.000000	2.632444
4952.000000	2.637306
4950.000000	2.640832
4948.000000	2.642978
4946.000000	2.645318
4944.000000	2.649173
4942.000000	2.653353
4940.000000	2.657037
4938.000000	2.660465
4936.000000	2.663989
4934.000000	2.667971
4932.000000	2.671450
4930.000000	2.674336
4928.000000	2.677867
4926.000000	2.681856
4924.000000	2.685852
4922.000000	2.690118
4920.000000	2.694304
4918.000000	2.698383
4916.000000	2.702110
4914.000000	2.705040
4912.000000	2.707284
4910.000000	2.710181
4908.000000	2.713429
4906.000000	2.716527
4904.000000	2.720777
4902.000000	2.725267
4900.000000	2.728300
4898.000000	2.730772
4896.000000	2.734406
4894.000000	2.738671
4892.000000	2.742853
4890.000000	2.747048
4888.000000	2.750999
4886.000000	2.754929
4884.000000	2.758670
4882.000000	2.760778
4880.000000	2.762589
4878.000000	2.767198
4876.000000	2.773362
4874.000000	2.777205
4872.000000	2.779084
4870.000000	2.782200
4868.000000	2.786895
4866.000000	2.791059
4864.000000	2.794079
4862.000000	2.797387
4860.000000	2.801207
4858.000000	2.804738
4856.000000	2.808085
4854.000000	2.811635
4852.000000	2.815117
4850.000000	2.818225
4848.000000	2.821602
4846.000000	2.825647
4844.000000	2.829808
4842.000000	2.833636
4840.000000	2.837411
4838.000000	2.841130
4836.000000	2.844234
4834.000000	2.847219
4832.000000	2.850415
4830.000000	2.853687
4828.000000	2.856951
4826.000000	2.861062
4824.000000	2.865717
4822.000000	2.869961
4820.000000	2.873147
4818.000000	2.875912
4816.000000	2.880095
4814.000000	2.885325
4812.000000	2.889683
4810.000000	2.892402
4808.000000	2.894915
4806.000000	2.898462
4804.000000	2.903146
4802.000000	2.908024
4800.000000	2.911986
4798.000000	2.914999
4796.000000	2.918781
4794.000000	2.923407
4792.000000	2.927001
4790.000000	2.929256
4788.000000	2.932432
4786.000000	2.936356
4784.000000	2.939977
4782.000000	2.944019
4780.000000	2.948767
4778.000000	2.953948
4776.000000	2.958340
4774.000000	2.960728
4772.000000	2.962679
4770.000000	2.965963
4768.000000	2.969521
4766.000000	2.973252
4764.000000	2.977839
4762.000000	2.982311
4760.000000	2.985738
4758.000000	2.988863
4756.000000	2.991769
4754.000000	2.994741
4752.000000	2.998448
4750.000000	3.002462
4748.000000	3.006040
4746.000000	3.009902
4744.000000	3.013750
4742.000000	3.017030
4740.000000	3.020335
4738.000000	3.024354
4736.000000	3.027527
4734.000000	3.030295
4732.000000	3.034300
4730.000000	3.039399
4728.000000	3.043675
4726.000000	3.046992
4724.000000	3.050655
4722.000000	3.054422
4720.000000	3.058078
4718.000000	3.062436
4716.000000	3.066748
4714.000000	3.070377
4712.000000	3.073610
4710.000000	3.077196
4708.000000	3.081383
4706.000000	3.086034
4704.000000	3.090112
4702.000000	3.093548
4700.000000	3.097222
4698.000000	3.101572
4696.000000	3.106003
4694.000000	3.108914
4692.000000	3.111316
4690.000000	3.115555
4688.000000	3.120429
4686.000000	3.124491
4684.000000	3.128184
4682.000000	3.131936
4680.000000	3.135409
4678.000000	3.138767
4676.000000	3.141774
4674.000000	3.145490
4672.000000	3.150744
4670.000000	3.156072
4668.000000	3.159213
4666.000000	3.161183
4664.000000	3.164425
4662.000000	3.169019
4660.000000	3.172538
4658.000000	3.175253
4656.000000	3.178300
4654.000000	3.181986
4652.000000	3.186491
4650.000000	3.191247
4648.000000	3.194862
4646.000000	3.198148
4644.000000	3.202365
4642.000000	3.206658
4640.000000	3.210808
4638.000000	3.215070
4636.000000	3.218789
4634.000000	3.222581
4632.000000	3.226801
4630.000000	3.230227
4628.000000	3.232919
4626.000000	3.236314
4624.000000	3.240387
4622.000000	3.244816
4620.000000	3.249919
4618.000000	3.255121
4616.000000	3.259372
4614.000000	3.262709
4612.000000	3.265993
4610.000000	3.269789
4608.000000	3.274109
4606.000000	3.278148
4604.000000	3.281109
4602.000000	3.283998
4600.000000	3.288154
4598.000000	3.293108
4596.000000	3.297548
4594.000000	3.301191
4592.000000	3.304850
4590.000000	3.308828
4588.000000	3.313480
4586.000000	3.318488
4584.000000	3.322884
4582.000000	3.326528
4580.000000	3.330231
4578.000000	3.333436
4576.000000	3.335773
4574.000000	3.339086
4572.000000	3.342946
4570.000000	3.346649
4568.000000	3.350839
4566.000000	3.356199
4564.000000	3.360380
4562.000000	3.363762
4560.000000	3.367658
4558.000000	3.371896
4556.000000	3.375288
4554.000000	3.378916
4552.000000	3.383663
4550.000000	3.388359
4548.000000	3.391873
4546.000000	3.395046
4544.000000	3.399189
4542.000000	3.403655
4540.000000	3.407243
4538.000000	3.410622
4536.000000	3.415039
4534.000000	3.419423
4532.000000	3.422755
4530.000000	3.425850
4528.000000	3.429510
4526.000000	3.433488
4524.000000	3.437360
4522.000000	3.441452
4520.000000	3.446235
4518.000000	3.450633
4516.000000	3.453769
4514.000000	3.457076
4512.000000	3.462504
4510.000000	3.467963
4508.000000	3.471011
4506.000000	3.473288
4504.000000	3.477441
4502.000000	3.482296
4500.000000	3.486902
4498.000000	3.491307
4496.000000	3.495483
4494.000000	3.498531
4492.000000	3.501800
4490.000000	3.506574
4488.000000	3.511285
4486.000000	3.514600
4484.000000	3.518225
4482.000000	3.522652
4480.000000	3.526512
4478.000000	3.529956
4476.000000	3.534430
4474.000000	3.539155
4472.000000	3.543115
4470.000000	3.546299
4468.000000	3.549649
4466.000000	3.553436
4464.000000	3.557802
4462.000000	3.561788
4460.000000	3.565562
4458.000000	3.569610
4456.000000	3.574201
4454.000000	3.577917
4452.000000	3.580346
4450.000000	3.582948
4448.000000	3.587150
4446.000000	3.592102
4444.000000	3.596579
4442.000000	3.600444
4440.000000	3.604656
4438.000000	3.609571
4436.000000	3.614183
4434.000000	3.617436
4432.000000	3.619927
4430.000000	3.623330
4428.000000	3.627491
4426.000000	3.631950
4424.000000	3.636345
4422.000000	3.640762
4420.000000	3.645402
4418.000000	3.649547
4416.000000	3.652224
4414.000000	3.655115
4412.000000	3.659177
4410.000000	3.663836
4408.000000	3.668620
4406.000000	3.672482
4404.000000	3.675920
4402.000000	3.680156
4400.000000	3.684155
4398.000000	3.687522
4396.000000	3.691324
4394.000000	3.695242
4392.000000	3.699805
4390.000000	3.705430
4388.000000	3.710346
4386.000000	3.713895
4384.000000	3.716773
4382.000000	3.719665
4380.000000	3.723543
4378.000000	3.727881
4376.000000	3.731107
4374.000000	3.733503
4372.000000	3.736358
4370.000000	3.740174
4368.000000	3.744352
4366.000000	3.748028
4364.000000	3.751137
4362.000000	3.754305
4360.000000	3.757810
4358.000000	3.761488
4356.000000	3.765651
4354.000000	3.770241
4352.000000	3.774264
4350.000000	3.777896
4348.000000	3.782226
4346.000000	3.787440
4344.000000	3.792134
4342.000000	3.795504
4340.000000	3.798903
4338.000000	3.803152
4336.000000	3.807078
4334.000000	3.810918
4332.000000	3.815549
4330.000000	3.820460
4328.000000	3.824986
4326.000000	3.829055
4324.000000	3.832621
4322.000000	3.835647
4320.000000	3.839125
4318.000000	3.844545
4316.000000	3.850900
4314.000000	3.855898
4312.000000	3.859619
4310.000000	3.863286
4308.000000	3.867434
4306.000000	3.871723
4304.000000	3.875574
4302.000000	3.879199
4300.000000	3.882955
4298.000000	3.886940
4296.000000	3.891374
4294.000000	3.895473
4292.000000	3.899058
4290.000000	3.903098
4288.000000	3.907124
4286.000000	3.910484
4284.000000	3.914057
4282.000000	3.918231
4280.000000	3.922530
4278.000000	3.926594
4276.000000	3.930333
4274.000000	3.933498
4272.000000	3.936925
4270.000000	3.940650
4268.000000	3.944377
4266.000000	3.947982
4264.000000	3.951216
4262.000000	3.954537
4260.000000	3.958698
4258.000000	3.962653
4256.000000	3.966065
4254.000000	3.969488
4252.000000	3.973637
4250.000000	3.978407
4248.000000	3.983233
4246.000000	3.988031
4244.000000	3.992505
4242.000000	3.996216
4240.000000	3.999829
4238.000000	4.003667
4236.000000	4.007302
4234.000000	4.011365
4232.000000	4.016574
4230.000000	4.021920
4228.000000	4.025663
4226.000000	4.028285
4224.000000	4.032050
4222.000000	4.037337
4220.000000	4.042740
4218.000000	4.046500
4216.000000	4.048886
4214.000000	4.052611
4212.000000	4.057658
4210.000000	4.061826
4208.000000	4.065864
4206.000000	4.070719
4204.000000	4.075320
4202.000000	4.079218
4200.000000	4.083044
4198.000000	4.086803
4196.000000	4.090926
4194.000000	4.095459
4192.000000	4.099328
4190.000000	4.103096
4188.000000	4.107433
4186.000000	4.111508
4184.000000	4.115230
4182.000000	4.119240
4180.000000	4.124365
4178.000000	4.129675
4176.000000	4.133723
4174.000000	4.137535
4172.000000	4.141906
4170.000000	4.145965
4168.000000	4.149603
4166.000000	4.153110
4164.000000	4.156982
4162.000000	4.161413
4160.000000	4.166046
4158.000000	4.170378
4156.000000	4.174482
4154.000000	4.179256
4152.000000	4.184561
4150.000000	4.189041
4148.000000	4.193065
4146.000000	4.197524
4144.000000	4.201947
4142.000000	4.205481
4140.000000	4.207790
4138.000000	4.211572
4136.000000	4.218161
4134.000000	4.223132
4132.000000	4.225496
4130.000000	4.229496
4128.000000	4.234628
4126.000000	4.238786
4124.000000	4.243351
4122.000000	4.248803
4120.000000	4.253421
4118.000000	4.257111
4116.000000	4.261195
4114.000000	4.265404
4112.000000	4.269001
4110.000000	4.272690
4108.000000	4.276896
4106.000000	4.281199
4104.000000	4.285219
4102.000000	4.289493
4100.000000	4.294365
4098.000000	4.299155
4096.000000	4.302979
4094.000000	4.306208
4092.000000	4.310231
4090.000000	4.315059
4088.000000	4.319661
4086.000000	4.323271
4084.000000	4.326802
4082.000000	4.331510
4080.000000	4.336477
4078.000000	4.340572
4076.000000	4.344441
4074.000000	4.349691
4072.000000	4.355279
4070.000000	4.359409
4068.000000	4.363239
4066.000000	4.367081
4064.000000	4.370462
4062.000000	4.373709
4060.000000	4.377369
4058.000000	4.382669
4056.000000	4.389015
4054.000000	4.394036
4052.000000	4.397131
4050.000000	4.400051
4048.000000	4.404163
4046.000000	4.408839
4044.000000	4.413613
4042.000000	4.418602
4040.000000	4.422673
4038.000000	4.426266
4036.000000	4.430100
4034.000000	4.433634
4032.000000	4.438096
4030.000000	4.443775
4028.000000	4.449363
4026.000000	4.454738
4024.000000	4.459649
4022.000000	4.463247
4020.000000	4.465584
4018.000000	4.468574
4016.000000	4.473432
4014.000000	4.478614
4012.000000	4.482978
4010.000000	4.487155
4008.000000	4.492277
4006.000000	4.497988
4004.000000	4.503023
4002.000000	4.507537
4000.000000	4.512325
3998.000000	4.517355
3996.000000	4.521727
3994.000000	4.524904
3992.000000	4.527237
3990.000000	4.529552
3988.000000	4.534446
3986.000000	4.541162
3984.000000	4.546010
3982.000000	4.549181
3980.000000	4.553252
3978.000000	4.557969
3976.000000	4.562005
3974.000000	4.566231
3972.000000	4.570751
3970.000000	4.574567
3968.000000	4.578360
3966.000000	4.582295
3964.000000	4.585417
3962.000000	4.587119
3960.000000	4.589956
3958.000000	4.596000
3956.000000	4.602200
3954.000000	4.606616
3952.000000	4.610046
3950.000000	4.611718
3948.000000	4.613562
3946.000000	4.619301
3944.000000	4.625722
3942.000000	4.628515
3940.000000	4.631915
3938.000000	4.637871
3936.000000	4.642477
3934.000000	4.645051
3932.000000	4.646354
3930.000000	4.650046
3928.000000	4.658002
3926.000000	4.663512
3924.000000	4.664888
3922.000000	4.667947
3920.000000	4.671360
3918.000000	4.670847
3916.000000	4.672543
3914.000000	4.683435
3912.000000	4.697243
3910.000000	4.705040
3908.000000	4.706053
3906.000000	4.697525
3904.000000	4.679689
3902.000000	4.667887
3900.000000	4.672129
3898.000000	4.690082
3896.000000	4.715049
3894.000000	4.729061
3892.000000	4.722574
3890.000000	4.716748
3888.000000	4.723320
3886.000000	4.721881
3884.000000	4.717900
3882.000000	4.728906
3880.000000	4.739836
3878.000000	4.748968
3876.000000	4.760237
3874.000000	4.760571
3872.000000	4.749456
3870.000000	4.734119
3868.000000	4.732862
3866.000000	4.749572
3864.000000	4.760448
3862.000000	4.768308
3860.000000	4.784379
3858.000000	4.793441
3856.000000	4.766176
3854.000000	4.699376
3852.000000	4.668233
3850.000000	4.724617
3848.000000	4.800326
3846.000000	4.831269
3844.000000	4.830233
3842.000000	4.821336
3840.000000	4.805197
3838.000000	4.778589
3836.000000	4.771431
3834.000000	4.799968
3832.000000	4.829998
3830.000000	4.846341
3828.000000	4.859302
3826.000000	4.866428
3824.000000	4.864083
3822.000000	4.847033
3820.000000	4.831300
3818.000000	4.834503
3816.000000	4.834071
3814.000000	4.842806
3812.000000	4.881413
3810.000000	4.906555
3808.000000	4.893230
3806.000000	4.874769
3804.000000	4.875495
3802.000000	4.867915
3800.000000	4.858357
3798.000000	4.884118
3796.000000	4.916372
3794.000000	4.932024
3792.000000	4.945495
3790.000000	4.955201
3788.000000	4.959440
3786.000000	4.960841
3784.000000	4.961225
3782.000000	4.963146
3780.000000	4.962230
3778.000000	4.962356
3776.000000	4.972847
3774.000000	4.984662
3772.000000	4.984828
3770.000000	4.975019
3768.000000	4.971394
3766.000000	4.979531
3764.000000	4.990194
3762.000000	4.998163
3760.000000	4.997192
3758.000000	4.993920
3756.000000	4.998613
3754.000000	4.988048
3752.000000	4.944427
3750.000000	4.909161
3748.000000	4.920668
3746.000000	4.934949
3744.000000	4.918122
3742.000000	4.938877
3740.000000	5.003145
3738.000000	5.024168
3736.000000	5.001800
3734.000000	4.990998
3732.000000	5.004556
3730.000000	5.031693
3728.000000	5.057029
3726.000000	5.065469
3724.000000	5.067480
3722.000000	5.074472
3720.000000	5.082616
3718.000000	5.092242
3716.000000	5.100252
3714.000000	5.092587
3712.000000	5.067840
3710.000000	5.058453
3708.000000	5.081789
3706.000000	5.112053
3704.000000	5.125983
3702.000000	5.124178
3700.000000	5.124373
3698.000000	5.135583
3696.000000	5.146207
3694.000000	5.148389
3692.000000	5.136599
3690.000000	5.106827
3688.000000	5.082568
3686.000000	5.103559
3684.000000	5.151307
3682.000000	5.174258
3680.000000	5.171345
3678.000000	5.151348
3676.000000	5.112743
3674.000000	5.095189
3672.000000	5.112629
3670.000000	5.119568
3668.000000	5.132567
3666.000000	5.173972
3664.000000	5.205280
3662.000000	5.214459
3660.000000	5.215504
3658.000000	5.207541
3656.000000	5.191804
3654.000000	5.189814
3652.000000	5.189200
3650.000000	5.159626
3648.000000	5.138073
3646.000000	5.164257
3644.000000	5.207314
3642.000000	5.231245
3640.000000	5.238896
3638.000000	5.241039
3636.000000	5.241230
3634.000000	5.239827
3632.000000	5.230242
3630.000000	5.199463
3628.000000	5.171651
3626.000000	5.193682
3624.000000	5.236690
3622.000000	5.247643
3620.000000	5.230908
3618.000000	5.218957
3616.000000	5.227959
3614.000000	5.236985
3612.000000	5.232318
3610.000000	5.225614
3608.000000	5.225215
3606.000000	5.237861
3604.000000	5.256810
3602.000000	5.264192
3600.000000	5.261641
3598.000000	5.259595
3596.000000	5.257533
3594.000000	5.255613
3592.000000	5.258696
3590.000000	5.257052
3588.000000	5.242159
3586.000000	5.235118
3584.000000	5.249774
3582.000000	5.265343
3580.000000	5.269741
3578.000000	5.270915
3576.000000	5.271779
3574.000000	5.270450
3572.000000	5.268837
3570.000000	5.263807
3568.000000	5.249228
3566.000000	5.237762
3564.000000	5.244755
3562.000000	5.258083
3560.000000	5.263633
3558.000000	5.264627
3556.000000	5.264263
3554.000000	5.261808
3552.000000	5.258343
3550.000000	5.256300
3548.000000	5.253977
3546.000000	5.248115
3544.000000	5.245274
3542.000000	5.247968
3540.000000	5.250462
3538.000000	5.249978
3536.000000	5.247431
3534.000000	5.245446
3532.000000	5.243436
3530.000000	5.239179
3528.000000	5.233471
3526.000000	5.228170
3524.000000	5.224241
3522.000000	5.220936
3520.000000	5.218669
3518.000000	5.216109
3516.000000	5.212465
3514.000000	5.208250
3512.000000	5.202273
3510.000000	5.195686
3508.000000	5.190791
3506.000000	5.186939
3504.000000	5.180803
3502.000000	5.173471
3500.000000	5.168615
3498.000000	5.163899
3496.000000	5.157591
3494.000000	5.152087
3492.000000	5.147515
3490.000000	5.141209
3488.000000	5.134274
3486.000000	5.128853
3484.000000	5.123308
3482.000000	5.116536
3480.000000	5.111363
3478.000000	5.108438
3476.000000	5.104782
3474.000000	5.100326
3472.000000	5.097215
3470.000000	5.094636
3468.000000	5.092679
3466.000000	5.090509
3464.000000	5.087225
3462.000000	5.084455
3460.000000	5.082452
3458.000000	5.081157
3456.000000	5.079348
3454.000000	5.076013
3452.000000	5.071900
3450.000000	5.068219
3448.000000	5.064321
3446.000000	5.060890
3444.000000	5.059387
3442.000000	5.058079
3440.000000	5.057661
3438.000000	5.059341
3436.000000	5.061468
3434.000000	5.063288
3432.000000	5.066553
3430.000000	5.070994
3428.000000	5.075351
3426.000000	5.078818
3424.000000	5.082467
3422.000000	5.086170
3420.000000	5.089627
3418.000000	5.093645
3416.000000	5.097440
3414.000000	5.099549
3412.000000	5.100754
3410.000000	5.101793
3408.000000	5.102605
3406.000000	5.104105
3404.000000	5.106419
3402.000000	5.107431
3400.000000	5.107126
3398.000000	5.107525
3396.000000	5.110433
3394.000000	5.113811
3392.000000	5.116071
3390.000000	5.119076
3388.000000	5.122453
3386.000000	5.124449
3384.000000	5.125988
3382.000000	5.128397
3380.000000	5.131708
3378.000000	5.134671
3376.000000	5.135320
3374.000000	5.136462
3372.000000	5.139960
3370.000000	5.141245
3368.000000	5.140567
3366.000000	5.141086
3364.000000	5.143343
3362.000000	5.145786
3360.000000	5.147614
3358.000000	5.149342
3356.000000	5.151360
3354.000000	5.153468
3352.000000	5.154886
3350.000000	5.155739
3348.000000	5.156656
3346.000000	5.158094
3344.000000	5.160501
3342.000000	5.163177
3340.000000	5.165356
3338.000000	5.167024
3336.000000	5.168076
3334.000000	5.168421
3332.000000	5.169838
3330.000000	5.171931
3328.000000	5.173608
3326.000000	5.175658
3324.000000	5.177029
3322.000000	5.178588
3320.000000	5.181093
3318.000000	5.182346
3316.000000	5.182636
3314.000000	5.183246
3312.000000	5.185318
3310.000000	5.187254
3308.000000	5.187517
3306.000000	5.187876
3304.000000	5.189875
3302.000000	5.191546
3300.000000	5.193179
3298.000000	5.196031
3296.000000	5.197904
3294.000000	5.198141
3292.000000	5.199525
3290.000000	5.201249
3288.000000	5.202119
3286.000000	5.205130
3284.000000	5.208316
3282.000000	5.209310
3280.000000	5.209274
3278.000000	5.209601
3276.000000	5.211167
3274.000000	5.213599
3272.000000	5.215665
3270.000000	5.218437
3268.000000	5.221963
3266.000000	5.223539
3264.000000	5.223738
3262.000000	5.225408
3260.000000	5.228650
3258.000000	5.231445
3256.000000	5.232776
3254.000000	5.233755
3252.000000	5.236389
3250.000000	5.239347
3248.000000	5.241279
3246.000000	5.242598
3244.000000	5.244299
3242.000000	5.246669
3240.000000	5.249356
3238.000000	5.251170
3236.000000	5.252230
3234.000000	5.254086
3232.000000	5.256776
3230.000000	5.259299
3228.000000	5.261513
3226.000000	5.264657
3224.000000	5.268451
3222.000000	5.270509
3220.000000	5.271919
3218.000000	5.274672
3216.000000	5.277382
3214.000000	5.279212
3212.000000	5.281494
3210.000000	5.284960
3208.000000	5.288682
3206.000000	5.291882
3204.000000	5.294696
3202.000000	5.298196
3200.000000	5.301428
3198.000000	5.304527
3196.000000	5.309683
3194.000000	5.314560
3192.000000	5.318011
3190.000000	5.322022
3188.000000	5.326758
3186.000000	5.330360
3184.000000	5.333666
3182.000000	5.338105
3180.000000	5.341641
3178.000000	5.344979
3176.000000	5.350134
3174.000000	5.354729
3172.000000	5.358491
3170.000000	5.362526
3168.000000	5.366582
3166.000000	5.369945
3164.000000	5.373919
3162.000000	5.378040
3160.000000	5.381637
3158.000000	5.385093
3156.000000	5.389812
3154.000000	5.394416
3152.000000	5.397505
3150.000000	5.400951
3148.000000	5.405586
3146.000000	5.409597
3144.000000	5.412701
3142.000000	5.416058
3140.000000	5.419803
3138.000000	5.422866
3136.000000	5.426426
3134.000000	5.431008
3132.000000	5.433849
3130.000000	5.436026
3128.000000	5.439857
3126.000000	5.443408
3124.000000	5.446472
3122.000000	5.450088
3120.000000	5.453650
3118.000000	5.456852
3116.000000	5.459021
3114.000000	5.460343
3112.000000	5.462783
3110.000000	5.466990
3108.000000	5.471834
3106.000000	5.475804
3104.000000	5.478662
3102.000000	5.481403
3100.000000	5.485563
3098.000000	5.490324
3096.000000	5.494399
3094.000000	5.497622
3092.000000	5.502337
3090.000000	5.509061
3088.000000	5.514298
3086.000000	5.516961
3084.000000	5.519708
3082.000000	5.522899
3080.000000	5.526174
3078.000000	5.528762
3076.000000	5.530666
3074.000000	5.533245
3072.000000	5.534965
3070.000000	5.536296
3068.000000	5.537866
3066.000000	5.538683
3064.000000	5.540369
3062.000000	5.543578
3060.000000	5.547307
3058.000000	5.550616
3056.000000	5.555225
3054.000000	5.560749
3052.000000	5.564041
3050.000000	5.566176
3048.000000	5.569754
3046.000000	5.573119
3044.000000	5.575861
3042.000000	5.577770
3040.000000	5.579570
3038.000000	5.580860
3036.000000	5.582188
3034.000000	5.583475
3032.000000	5.583348
3030.000000	5.581764
3028.000000	5.579405
3026.000000	5.575004
3024.000000	5.567793
3022.000000	5.559503
3020.000000	5.553322
3018.000000	5.551903
3016.000000	5.557212
3014.000000	5.569197
3012.000000	5.585080
3010.000000	5.602825
3008.000000	5.619386
3006.000000	5.631796
3004.000000	5.640896
3002.000000	5.647888
3000.000000	5.651932
2998.000000	5.655054
2996.000000	5.659029
2994.000000	5.661102
2992.000000	5.662435
2990.000000	5.663028
2988.000000	5.661450
2986.000000	5.659167
2984.000000	5.656708
2982.000000	5.652436
2980.000000	5.645595
2978.000000	5.635848
2976.000000	5.622301
2974.000000	5.604031
2972.000000	5.580177
2970.000000	5.549525
2968.000000	5.514000
2966.000000	5.477440
2964.000000	5.447601
2962.000000	5.431140
2960.000000	5.428303
2958.000000	5.436160
2956.000000	5.452112
2954.000000	5.469706
2952.000000	5.484097
2950.000000	5.494281
2948.000000	5.499364
2946.000000	5.496441
2944.000000	5.483298
2942.000000	5.462329
2940.000000	5.435525
2938.000000	5.404904
2936.000000	5.374298
2934.000000	5.346939
2932.000000	5.322358
2930.000000	5.297838
2928.000000	5.274547
2926.000000	5.258517
2924.000000	5.255900
2922.000000	5.270112
2920.000000	5.302586
2918.000000	5.350044
2916.000000	5.403042
2914.000000	5.453793
2912.000000	5.499329
2910.000000	5.537374
2908.000000	5.567625
2906.000000	5.591856
2904.000000	5.613432
2902.000000	5.632267
2900.000000	5.649373
2898.000000	5.665959
2896.000000	5.680987
2894.000000	5.694566
2892.000000	5.707663
2890.000000	5.720504
2888.000000	5.732073
2886.000000	5.741421
2884.000000	5.748816
2882.000000	5.754041
2880.000000	5.756325
2878.000000	5.755410
2876.000000	5.751348
2874.000000	5.743510
2872.000000	5.731573
2870.000000	5.713598
2868.000000	5.688383
2866.000000	5.656415
2864.000000	5.621876
2862.000000	5.592660
2860.000000	5.577940
2858.000000	5.580953
2856.000000	5.596125
2854.000000	5.616788
2852.000000	5.640372
2850.000000	5.667636
2848.000000	5.700345
2846.000000	5.738373
2844.000000	5.775741
2842.000000	5.806161
2840.000000	5.829971
2838.000000	5.848683
2836.000000	5.863632
2834.000000	5.875786
2832.000000	5.886716
2830.000000	5.895817
2828.000000	5.903923
2826.000000	5.911771
2824.000000	5.918777
2822.000000	5.924877
2820.000000	5.930220
2818.000000	5.935127
2816.000000	5.940398
2814.000000	5.945243
2812.000000	5.948918
2810.000000	5.951585
2808.000000	5.954780
2806.000000	5.958835
2804.000000	5.962555
2802.000000	5.966258
2800.000000	5.969128
2798.000000	5.971503
2796.000000	5.974436
2794.000000	5.976533
2792.000000	5.978788
2790.000000	5.982614
2788.000000	5.986802
2786.000000	5.991176
2784.000000	5.997154
2782.000000	6.003177
2780.000000	6.007565
2778.000000	6.011503
2776.000000	6.015233
2774.000000	6.018406
2772.000000	6.022419
2770.000000	6.027060
2768.000000	6.029476
2766.000000	6.031605
2764.000000	6.035641
2762.000000	6.039065
2760.000000	6.042317
2758.000000	6.045433
2756.000000	6.047645
2754.000000	6.048825
2752.000000	6.049982
2750.000000	6.052431
2748.000000	6.055708
2746.000000	6.058505
2744.000000	6.059556
2742.000000	6.060353
2740.000000	6.062197
2738.000000	6.063876
2736.000000	6.065127
2734.000000	6.067134
2732.000000	6.069421
2730.000000	6.070968
2728.000000	6.072570
2726.000000	6.073922
2724.000000	6.074382
2722.000000	6.074757
2720.000000	6.076590
2718.000000	6.077937
2716.000000	6.079051
2714.000000	6.079581
2712.000000	6.079510
2710.000000	6.079895
2708.000000	6.080414
2706.000000	6.080908
2704.000000	6.082314
2702.000000	6.084023
2700.000000	6.085026
2698.000000	6.085808
2696.000000	6.087383
2694.000000	6.089073
2692.000000	6.090562
2690.000000	6.091562
2688.000000	6.092835
2686.000000	6.094165
2684.000000	6.096071
2682.000000	6.097618
2680.000000	6.098021
2678.000000	6.098666
2676.000000	6.100363
2674.000000	6.101607
2672.000000	6.101690
2670.000000	6.100943
2668.000000	6.100986
2666.000000	6.102105
2664.000000	6.103147
2662.000000	6.102893
2660.000000	6.102089
2658.000000	6.103080
2656.000000	6.105346
2654.000000	6.107144
2652.000000	6.108674
2650.000000	6.110838
2648.000000	6.112345
2646.000000	6.113023
2644.000000	6.114154
2642.000000	6.115070
2640.000000	6.116300
2638.000000	6.118581
2636.000000	6.120769
2634.000000	6.121917
2632.000000	6.122841
2630.000000	6.124750
2628.000000	6.127152
2626.000000	6.128456
2624.000000	6.129197
2622.000000	6.131094
2620.000000	6.133122
2618.000000	6.134676
2616.000000	6.135533
2614.000000	6.136159
2612.000000	6.137659
2610.000000	6.138467
2608.000000	6.138621
2606.000000	6.138532
2604.000000	6.139055
2602.000000	6.140184
2600.000000	6.140956
2598.000000	6.141666
2596.000000	6.141616
2594.000000	6.141027
2592.000000	6.141259
2590.000000	6.143231
2588.000000	6.145634
2586.000000	6.147018
2584.000000	6.149284
2582.000000	6.153009
2580.000000	6.156291
2578.000000	6.158405
2576.000000	6.161167
2574.000000	6.165368
2572.000000	6.169170
2570.000000	6.171522
2568.000000	6.173261
2566.000000	6.174157
2564.000000	6.175697
2562.000000	6.177427
2560.000000	6.178818
2558.000000	6.181164
2556.000000	6.183166
2554.000000	6.183906
2552.000000	6.185211
2550.000000	6.186382
2548.000000	6.187649
2546.000000	6.189732
2544.000000	6.191011
2542.000000	6.191612
2540.000000	6.193159
2538.000000	6.195295
2536.000000	6.197408
2534.000000	6.199076
2532.000000	6.200188
2530.000000	6.200994
2528.000000	6.201570
2526.000000	6.203553
2524.000000	6.205606
2522.000000	6.206517
2520.000000	6.207630
2518.000000	6.208955
2516.000000	6.210891
2514.000000	6.212473
2512.000000	6.213836
2510.000000	6.215173
2508.000000	6.216398
2506.000000	6.217438
2504.000000	6.217218
2502.000000	6.217213
2500.000000	6.219218
2498.000000	6.221195
2496.000000	6.222868
2494.000000	6.224635
2492.000000	6.225751
2490.000000	6.226732
2488.000000	6.229164
2486.000000	6.231114
2484.000000	6.232440
2482.000000	6.234442
2480.000000	6.236288
2478.000000	6.237351
2476.000000	6.237912
2474.000000	6.238849
2472.000000	6.239518
2470.000000	6.239951
2468.000000	6.241062
2466.000000	6.241694
2464.000000	6.242262
2462.000000	6.243659
2460.000000	6.245249
2458.000000	6.245225
2456.000000	6.244886
2454.000000	6.246744
2452.000000	6.248383
2450.000000	6.248518
2448.000000	6.248528
2446.000000	6.249129
2444.000000	6.250150
2442.000000	6.251782
2440.000000	6.253464
2438.000000	6.254040
2436.000000	6.255137
2434.000000	6.256510
2432.000000	6.256851
2430.000000	6.255562
2428.000000	6.254084
2426.000000	6.254105
2424.000000	6.254714
2422.000000	6.254493
2420.000000	6.255071
2418.000000	6.256567
2416.000000	6.258120
2414.000000	6.259981
2412.000000	6.261336
2410.000000	6.261645
2408.000000	6.262380
2406.000000	6.264593
2404.000000	6.265776
2402.000000	6.266231
2400.000000	6.267271
2398.000000	6.268071
2396.000000	6.268710
2394.000000	6.269542
2392.000000	6.271129
2390.000000	6.272803
2388.000000	6.273623
2386.000000	6.273538
2384.000000	6.273334
2382.000000	6.272444
2380.000000	6.269663
2378.000000	6.263369
2376.000000	6.254453
2374.000000	6.242769
2372.000000	6.228103
2370.000000	6.210970
2368.000000	6.195164
2366.000000	6.182426
2364.000000	6.172010
2362.000000	6.166079
2360.000000	6.166579
2358.000000	6.174663
2356.000000	6.188352
2354.000000	6.206465
2352.000000	6.229388
2350.000000	6.250519
2348.000000	6.258165
2346.000000	6.246772
2344.000000	6.226574
2342.000000	6.207501
2340.000000	6.192856
2338.000000	6.186650
2336.000000	6.189979
2334.000000	6.196660
2332.000000	6.202854
2330.000000	6.209131
2328.000000	6.215808
2326.000000	6.222420
2324.000000	6.229373
2322.000000	6.237102
2320.000000	6.244985
2318.000000	6.252115
2316.000000	6.259239
2314.000000	6.265840
2312.000000	6.269142
2310.000000	6.272167
2308.000000	6.276406
2306.000000	6.278474
2304.000000	6.279578
2302.000000	6.282530
2300.000000	6.285745
2298.000000	6.286936
2296.000000	6.286596
2294.000000	6.287769
2292.000000	6.288150
2290.000000	6.288025
2288.000000	6.289149
2286.000000	6.289525
2284.000000	6.289337
2282.000000	6.288123
2280.000000	6.286522
2278.000000	6.286639
2276.000000	6.287661
2274.000000	6.286813
2272.000000	6.286376
2270.000000	6.285493
2268.000000	6.284346
2266.000000	6.284816
2264.000000	6.284713
2262.000000	6.284427
2260.000000	6.284237
2258.000000	6.282842
2256.000000	6.282706
2254.000000	6.283296
2252.000000	6.284662
2250.000000	6.286559
2248.000000	6.286347
2246.000000	6.287524
2244.000000	6.290238
2242.000000	6.289842
2240.000000	6.289325
2238.000000	6.291960
2236.000000	6.293906
2234.000000	6.293610
2232.000000	6.294481
2230.000000	6.294912
2228.000000	6.294829
2226.000000	6.295418
2224.000000	6.295676
2222.000000	6.296408
2220.000000	6.298391
2218.000000	6.299761
2216.000000	6.301230
2214.000000	6.302573
2212.000000	6.302327
2210.000000	6.301699
2208.000000	6.301724
2206.000000	6.302129
2204.000000	6.302542
2202.000000	6.302724
2200.000000	6.303860
2198.000000	6.305984
2196.000000	6.308978
2194.000000	6.309485
2192.000000	6.309131
2190.000000	6.308744
2188.000000	6.307495
2186.000000	6.308057
2184.000000	6.310202
2182.000000	6.311451
2180.000000	6.311454
2178.000000	6.312814
2176.000000	6.313631
2174.000000	6.312496
2172.000000	6.311790
2170.000000	6.311191
2168.000000	6.312192
2166.000000	6.313595
2164.000000	6.313967
2162.000000	6.313290
2160.000000	6.313523
2158.000000	6.315215
2156.000000	6.315630
2154.000000	6.317046
2152.000000	6.318035
2150.000000	6.317605
2148.000000	6.318267
2146.000000	6.318796
2144.000000	6.319575
2142.000000	6.320795
2140.000000	6.321023
2138.000000	6.321554
2136.000000	6.322091
2134.000000	6.321318
2132.000000	6.321152
2130.000000	6.322629
2128.000000	6.323924
2126.000000	6.324429
2124.000000	6.324930
2122.000000	6.325005
2120.000000	6.325870
2118.000000	6.326881
2116.000000	6.327356
2114.000000	6.328233
2112.000000	6.329082
2110.000000	6.330750
2108.000000	6.332907
2106.000000	6.334643
2104.000000	6.336202
2102.000000	6.336266
2100.000000	6.337442
2098.000000	6.338968
2096.000000	6.339124
2094.000000	6.339536
2092.000000	6.341335
2090.000000	6.342308
2088.000000	6.342981
2086.000000	6.345939
2084.000000	6.348117
2082.000000	6.348746
2080.000000	6.349602
2078.000000	6.350328
2076.000000	6.352260
2074.000000	6.355008
2072.000000	6.356815
2070.000000	6.357402
2068.000000	6.358347
2066.000000	6.359413
2064.000000	6.361260
2062.000000	6.364148
2060.000000	6.366223
2058.000000	6.368123
2056.000000	6.370244
2054.000000	6.371466
2052.000000	6.373250
2050.000000	6.375182
2048.000000	6.376919
2046.000000	6.378347
2044.000000	6.378958
2042.000000	6.379702
2040.000000	6.382394
2038.000000	6.385556
2036.000000	6.386655
2034.000000	6.387401
2032.000000	6.388569
2030.000000	6.388241
2028.000000	6.388014
2026.000000	6.389330
2024.000000	6.391399
2022.000000	6.393753
2020.000000	6.394217
2018.000000	6.392856
2016.000000	6.393096
2014.000000	6.396407
2012.000000	6.399418
2010.000000	6.400999
2008.000000	6.402721
2006.000000	6.404327
2004.000000	6.404522
2002.000000	6.404582
2000.000000	6.405815
1998.000000	6.406161
1996.000000	6.405389
1994.000000	6.403433
1992.000000	6.400361
1990.000000	6.401774
1988.000000	6.405150
1986.000000	6.406559
1984.000000	6.407773
1982.000000	6.407566
1980.000000	6.406768
1978.000000	6.406393
1976.000000	6.405860
1974.000000	6.404878
1972.000000	6.404647
1970.000000	6.403558
1968.000000	6.398669
1966.000000	6.395562
1964.000000	6.397310
1962.000000	6.395984
1960.000000	6.388386
1958.000000	6.382603
1956.000000	6.387040
1954.000000	6.390476
1952.000000	6.389675
1950.000000	6.388142
1948.000000	6.386436
1946.000000	6.383859
1944.000000	6.377203
1942.000000	6.370128
1940.000000	6.374046
1938.000000	6.379031
1936.000000	6.378982
1934.000000	6.377659
1932.000000	6.374955
1930.000000	6.372633
1928.000000	6.371537
1926.000000	6.368837
1924.000000	6.361266
1922.000000	6.354131
1920.000000	6.351284
1918.000000	6.341604
1916.000000	6.341895
1914.000000	6.349519
1912.000000	6.347405
1910.000000	6.340411
1908.000000	6.335911
1906.000000	6.335426
1904.000000	6.334018
1902.000000	6.331383
1900.000000	6.328379
1898.000000	6.324099
1896.000000	6.318428
1894.000000	6.314556
1892.000000	6.313402
1890.000000	6.306583
1888.000000	6.304624
1886.000000	6.310155
1884.000000	6.310191
1882.000000	6.310050
1880.000000	6.310264
1878.000000	6.308250
1876.000000	6.307118
1874.000000	6.306324
1872.000000	6.300308
1870.000000	6.279798
1868.000000	6.266492
1866.000000	6.280585
1864.000000	6.293178
1862.000000	6.294131
1860.000000	6.291105
1858.000000	6.289116
1856.000000	6.288525
1854.000000	6.287255
1852.000000	6.283878
1850.000000	6.280537
1848.000000	6.273284
1846.000000	6.251041
1844.000000	6.220491
1842.000000	6.234237
1840.000000	6.261624
1838.000000	6.262001
1836.000000	6.256446
1834.000000	6.253266
1832.000000	6.241225
1830.000000	6.217506
1828.000000	6.215236
1826.000000	6.217518
1824.000000	6.214095
1822.000000	6.223586
1820.000000	6.225339
1818.000000	6.219385
1816.000000	6.214357
1814.000000	6.209835
1812.000000	6.198624
1810.000000	6.189800
1808.000000	6.188766
1806.000000	6.187280
1804.000000	6.179470
1802.000000	6.162586
1800.000000	6.147534
1798.000000	6.146664
1796.000000	6.144949
1794.000000	6.117862
1792.000000	6.083806
1790.000000	6.096605
1788.000000	6.120849
1786.000000	6.114341
1784.000000	6.100476
1782.000000	6.095088
1780.000000	6.087131
1778.000000	6.085422
1776.000000	6.074376
1774.000000	6.030216
1772.000000	5.984212
1770.000000	6.000564
1768.000000	6.021295
1766.000000	6.033340
1764.000000	6.035618
1762.000000	6.008724
1760.000000	6.003300
1758.000000	6.006309
1756.000000	5.994646
1754.000000	5.987966
1752.000000	5.949342
1750.000000	5.917476
1748.000000	5.927993
1746.000000	5.938553
1744.000000	5.934161
1742.000000	5.915318
1740.000000	5.888578
1738.000000	5.884503
1736.000000	5.855548
1734.000000	5.774210
1732.000000	5.794663
1730.000000	5.862507
1728.000000	5.883642
1726.000000	5.887273
1724.000000	5.879495
1722.000000	5.872137
1720.000000	5.838442
1718.000000	5.756472
1716.000000	5.733677
1714.000000	5.789543
1712.000000	5.827980
1710.000000	5.834606
1708.000000	5.817521
1706.000000	5.789435
1704.000000	5.773425
1702.000000	5.727940
1700.000000	5.646690
1698.000000	5.658791
1696.000000	5.656068
1694.000000	5.691096
1692.000000	5.770610
1690.000000	5.778643
1688.000000	5.760682
1686.000000	5.684328
1684.000000	5.604859
1682.000000	5.666157
1680.000000	5.739829
1678.000000	5.744144
1676.000000	5.705879
1674.000000	5.685984
1672.000000	5.699878
1670.000000	5.675899
1668.000000	5.675065
1666.000000	5.706037
1664.000000	5.697343
1662.000000	5.674251
1660.000000	5.687534
1658.000000	5.692099
1656.000000	5.643581
1654.000000	5.498186
1652.000000	5.435277
1650.000000	5.554075
1648.000000	5.589599
1646.000000	5.549217
1644.000000	5.578815
1642.000000	5.619842
1640.000000	5.615344
1638.000000	5.575363
1636.000000	5.499705
1634.000000	5.494673
1632.000000	5.552359
1630.000000	5.559386
1628.000000	5.533514
1626.000000	5.509906
1624.000000	5.473570
1622.000000	5.446490
1620.000000	5.438014
1618.000000	5.374645
1616.000000	5.313320
1614.000000	5.333063
1612.000000	5.332142
1610.000000	5.291522
1608.000000	5.264515
1606.000000	5.260119
1604.000000	5.270664
1602.000000	5.284738
1600.000000	5.300240
1598.000000	5.312348
1596.000000	5.320829
1594.000000	5.326766
1592.000000	5.332153
1590.000000	5.334281
1588.000000	5.333683
1586.000000	5.329908
1584.000000	5.324773
1582.000000	5.319904
1580.000000	5.314847
1578.000000	5.273014
1576.000000	5.209539
1574.000000	5.240990
1572.000000	5.285494
1570.000000	5.256839
1568.000000	5.249450
1566.000000	5.261316
1564.000000	5.250417
1562.000000	5.197014
1560.000000	5.066131
1558.000000	5.013316
1556.000000	5.103064
1554.000000	5.166881
1552.000000	5.206868
1550.000000	5.232938
1548.000000	5.247854
1546.000000	5.243634
1544.000000	5.216458
1542.000000	5.170666
1540.000000	5.121491
1538.000000	5.172058
1536.000000	5.277593
1534.000000	5.292788
1532.000000	5.300806
1530.000000	5.330331
1528.000000	5.326199
1526.000000	5.303186
1524.000000	5.283391
1522.000000	5.235993
1520.000000	5.223264
1518.000000	5.257631
1516.000000	5.261648
1514.000000	5.264921
1512.000000	5.256987
1510.000000	5.231577
1508.000000	5.149035
1506.000000	5.072177
1504.000000	5.104689
1502.000000	5.110340
1500.000000	4.987017
1498.000000	4.786795
1496.000000	4.604409
1494.000000	4.554292
1492.000000	4.607340
1490.000000	4.695614
1488.000000	4.812417
1486.000000	4.923023
1484.000000	5.000346
1482.000000	5.039394
1480.000000	5.057133
1478.000000	5.057498
1476.000000	5.034666
1474.000000	4.993859
1472.000000	4.967131
1470.000000	4.993602
1468.000000	5.005333
1466.000000	4.967975
1464.000000	4.934397
1462.000000	4.927635
1460.000000	4.884713
1458.000000	4.770842
1456.000000	4.682759
1454.000000	4.682325
1452.000000	4.669816
1450.000000	4.660372
1448.000000	4.697011
1446.000000	4.761179
1444.000000	4.804024
1442.000000	4.815683
1440.000000	4.813160
1438.000000	4.782765
1436.000000	4.760923
1434.000000	4.798136
1432.000000	4.818954
1430.000000	4.812252
1428.000000	4.814574
1426.000000	4.819357
1424.000000	4.812232
1422.000000	4.799989
1420.000000	4.758213
1418.000000	4.740489
1416.000000	4.765504
1414.000000	4.769696
1412.000000	4.753072
1410.000000	4.725396
1408.000000	4.684748
1406.000000	4.632905
1404.000000	4.595195
1402.000000	4.591245
1400.000000	4.599123
1398.000000	4.619334
1396.000000	4.643877
1394.000000	4.661213
1392.000000	4.688784
1390.000000	4.699258
1388.000000	4.678267
1386.000000	4.658723
1384.000000	4.656360
1382.000000	4.661186
1380.000000	4.669161
1378.000000	4.668032
1376.000000	4.657907
1374.000000	4.645750
1372.000000	4.645870
1370.000000	4.645349
1368.000000	4.636870
1366.000000	4.627087
1364.000000	4.611645
1362.000000	4.598162
1360.000000	4.596481
1358.000000	4.592519
1356.000000	4.581986
1354.000000	4.569286
1352.000000	4.557845
1350.000000	4.546116
1348.000000	4.533871
1346.000000	4.520795
1344.000000	4.506864
1342.000000	4.489644
1340.000000	4.470456
1338.000000	4.459593
1336.000000	4.457299
1334.000000	4.455147
1332.000000	4.449731
1330.000000	4.438864
1328.000000	4.425572
1326.000000	4.411030
1324.000000	4.396350
1322.000000	4.381034
1320.000000	4.363096
1318.000000	4.344750
1316.000000	4.328106
1314.000000	4.309042
1312.000000	4.290334
1310.000000	4.273679
1308.000000	4.255653
1306.000000	4.237190
1304.000000	4.217851
1302.000000	4.195884
1300.000000	4.174542
1298.000000	4.154228
1296.000000	4.133949
1294.000000	4.112100
1292.000000	4.089312
1290.000000	4.065367
1288.000000	4.041650
1286.000000	4.017501
1284.000000	3.992990
1282.000000	3.967020
1280.000000	3.938600
1278.000000	3.909295
1276.000000	3.877716
1274.000000	3.840064
1272.000000	3.795140
1270.000000	3.739654
1268.000000	3.667824
1266.000000	3.576314
1264.000000	3.477220
1262.000000	3.391820
1260.000000	3.343530
1258.000000	3.340572
1256.000000	3.366146
1254.000000	3.394602
1252.000000	3.407317
1250.000000	3.400047
1248.000000	3.378973
1246.000000	3.351252
1244.000000	3.321314
1242.000000	3.289232
1240.000000	3.256836
1238.000000	3.225489
1236.000000	3.195764
1234.000000	3.164862
1232.000000	3.134945
1230.000000	3.106503
1228.000000	3.077439
1226.000000	3.048193
1224.000000	3.020061
1222.000000	2.991745
1220.000000	2.961182
1218.000000	2.928684
1216.000000	2.895058
1214.000000	2.862262
1212.000000	2.831088
1210.000000	2.801243
1208.000000	2.773747
1206.000000	2.748478
1204.000000	2.723659
1202.000000	2.698811
1200.000000	2.673992
1198.000000	2.649457
1196.000000	2.624592
1194.000000	2.597885
1192.000000	2.571880
1190.000000	2.545265
1188.000000	2.516268
1186.000000	2.485900
1184.000000	2.451590
1182.000000	2.408146
1180.000000	2.368966
1178.000000	2.349670
1176.000000	2.335148
1174.000000	2.313300
1172.000000	2.287434
1170.000000	2.260204
1168.000000	2.231036
1166.000000	2.199885
1164.000000	2.169316
1162.000000	2.140524
1160.000000	2.112749
1158.000000	2.086798
1156.000000	2.062200
1154.000000	2.035180
1152.000000	2.007956
1150.000000	1.981868
1148.000000	1.954542
1146.000000	1.927181
1144.000000	1.901266
1142.000000	1.878100
1140.000000	1.859798
1138.000000	1.841024
1136.000000	1.818898
1134.000000	1.795594
1132.000000	1.770541
1130.000000	1.744044
1128.000000	1.718523
1126.000000	1.693418
1124.000000	1.668024
1122.000000	1.641784
1120.000000	1.614558
1118.000000	1.586973
1116.000000	1.559350
1114.000000	1.531231
1112.000000	1.503574
1110.000000	1.475716
1108.000000	1.446889
1106.000000	1.420087
1104.000000	1.395123
1102.000000	1.370397
1100.000000	1.345808
1098.000000	1.320984
1096.000000	1.296565
1094.000000	1.273742
1092.000000	1.253054
1090.000000	1.232502
1088.000000	1.212095
1086.000000	1.192598
1084.000000	1.174521
1082.000000	1.154891
1080.000000	1.135255
1078.000000	1.118243
1076.000000	1.103602
1074.000000	1.090823
1072.000000	1.080412
1070.000000	1.068494
1068.000000	1.055803
1066.000000	1.044163
1064.000000	1.033107
1062.000000	1.020701
1060.000000	1.005946
1058.000000	0.990446
1056.000000	0.971404
1054.000000	0.944350
1052.000000	0.915637
1050.000000	0.897309
1048.000000	0.893765
1046.000000	0.898934
1044.000000	0.901644
1042.000000	0.895378
1040.000000	0.886023
1038.000000	0.876710
1036.000000	0.865197
1034.000000	0.851313
1032.000000	0.836772
1030.000000	0.822961
1028.000000	0.809022
1026.000000	0.793975
1024.000000	0.777891
1022.000000	0.762367
1020.000000	0.749193
1018.000000	0.736795
1016.000000	0.726100
1014.000000	0.715929
1012.000000	0.705632
1010.000000	0.699571
1008.000000	0.694265
1006.000000	0.686787
1004.000000	0.679054
1002.000000	0.672802
1000.000000	0.661979
