PE IR       SUBTECH     SPECTRUM    ASCII       PEDS        4.00        
   -1
TE109A_058_125K_SB.ASC
20/04/21
17:41:42.00
20/04/21
17:41:42.00
Administrator
TE109A, Tuesday, April 21 2020, 058.
1000.000000
#HDR
-1
-1
#GR
cm-1
EGY
1.0
0.0
6000.000000
-2.000000
2501
8
10.751042
1.121894
#DATA
6000.000000	1.847679
5998.000000	1.850503
5996.000000	1.854088
5994.000000	1.857739
5992.000000	1.862061
5990.000000	1.864850
5988.000000	1.867271
5986.000000	1.869721
5984.000000	1.873612
5982.000000	1.878877
5980.000000	1.882458
5978.000000	1.885809
5976.000000	1.890025
5974.000000	1.894850
5972.000000	1.899835
5970.000000	1.903204
5968.000000	1.906452
5966.000000	1.910573
5964.000000	1.914301
5962.000000	1.919101
5960.000000	1.923341
5958.000000	1.927456
5956.000000	1.932027
5954.000000	1.936086
5952.000000	1.939479
5950.000000	1.941158
5948.000000	1.943583
5946.000000	1.949532
5944.000000	1.953370
5942.000000	1.956385
5940.000000	1.958962
5938.000000	1.963005
5936.000000	1.968005
5934.000000	1.972409
5932.000000	1.977840
5930.000000	1.982736
5928.000000	1.985588
5926.000000	1.987467
5924.000000	1.989813
5922.000000	1.993447
5920.000000	1.997406
5918.000000	2.001589
5916.000000	2.005349
5914.000000	2.009326
5912.000000	2.014309
5910.000000	2.019538
5908.000000	2.024182
5906.000000	2.028800
5904.000000	2.032936
5902.000000	2.037412
5900.000000	2.041191
5898.000000	2.044820
5896.000000	2.048464
5894.000000	2.049518
5892.000000	2.052340
5890.000000	2.057293
5888.000000	2.062866
5886.000000	2.067779
5884.000000	2.071382
5882.000000	2.075679
5880.000000	2.080449
5878.000000	2.084181
5876.000000	2.088235
5874.000000	2.092202
5872.000000	2.095621
5870.000000	2.099448
5868.000000	2.102979
5866.000000	2.107188
5864.000000	2.111346
5862.000000	2.116329
5860.000000	2.121970
5858.000000	2.126798
5856.000000	2.131600
5854.000000	2.134354
5852.000000	2.137618
5850.000000	2.141511
5848.000000	2.146557
5846.000000	2.152836
5844.000000	2.157794
5842.000000	2.162253
5840.000000	2.167332
5838.000000	2.172069
5836.000000	2.177771
5834.000000	2.183173
5832.000000	2.187567
5830.000000	2.192492
5828.000000	2.195867
5826.000000	2.199543
5824.000000	2.202914
5822.000000	2.206596
5820.000000	2.211132
5818.000000	2.215930
5816.000000	2.220589
5814.000000	2.225046
5812.000000	2.230641
5810.000000	2.236022
5808.000000	2.239509
5806.000000	2.242905
5804.000000	2.245863
5802.000000	2.251228
5800.000000	2.257280
5798.000000	2.262321
5796.000000	2.267967
5794.000000	2.271589
5792.000000	2.273842
5790.000000	2.277568
5788.000000	2.283917
5786.000000	2.291901
5784.000000	2.297630
5782.000000	2.300501
5780.000000	2.304232
5778.000000	2.308612
5776.000000	2.313725
5774.000000	2.319802
5772.000000	2.326533
5770.000000	2.331975
5768.000000	2.335216
5766.000000	2.338309
5764.000000	2.342358
5762.000000	2.346115
5760.000000	2.350490
5758.000000	2.354608
5756.000000	2.359877
5754.000000	2.365512
5752.000000	2.370215
5750.000000	2.375471
5748.000000	2.380482
5746.000000	2.386296
5744.000000	2.390263
5742.000000	2.392537
5740.000000	2.395985
5738.000000	2.401626
5736.000000	2.408398
5734.000000	2.414245
5732.000000	2.418953
5730.000000	2.422911
5728.000000	2.426197
5726.000000	2.429709
5724.000000	2.434467
5722.000000	2.440143
5720.000000	2.446579
5718.000000	2.451717
5716.000000	2.455407
5714.000000	2.457903
5712.000000	2.461203
5710.000000	2.466159
5708.000000	2.471589
5706.000000	2.476650
5704.000000	2.480815
5702.000000	2.486250
5700.000000	2.492444
5698.000000	2.498975
5696.000000	2.504911
5694.000000	2.510692
5692.000000	2.515431
5690.000000	2.520722
5688.000000	2.525373
5686.000000	2.529881
5684.000000	2.533331
5682.000000	2.537378
5680.000000	2.544165
5678.000000	2.550380
5676.000000	2.555240
5674.000000	2.559184
5672.000000	2.563580
5670.000000	2.569787
5668.000000	2.575324
5666.000000	2.579980
5664.000000	2.583916
5662.000000	2.588541
5660.000000	2.594968
5658.000000	2.600482
5656.000000	2.605060
5654.000000	2.609862
5652.000000	2.615141
5650.000000	2.621177
5648.000000	2.626278
5646.000000	2.631464
5644.000000	2.637329
5642.000000	2.643235
5640.000000	2.648764
5638.000000	2.653285
5636.000000	2.657281
5634.000000	2.661388
5632.000000	2.666669
5630.000000	2.673813
5628.000000	2.680501
5626.000000	2.684586
5624.000000	2.687843
5622.000000	2.693503
5620.000000	2.700637
5618.000000	2.705538
5616.000000	2.709014
5614.000000	2.714242
5612.000000	2.721141
5610.000000	2.727114
5608.000000	2.732451
5606.000000	2.738275
5604.000000	2.744248
5602.000000	2.747503
5600.000000	2.750395
5598.000000	2.754312
5596.000000	2.759732
5594.000000	2.765006
5592.000000	2.770293
5590.000000	2.776984
5588.000000	2.781747
5586.000000	2.786766
5584.000000	2.792283
5582.000000	2.797881
5580.000000	2.802777
5578.000000	2.807262
5576.000000	2.812117
5574.000000	2.818149
5572.000000	2.823447
5570.000000	2.830569
5568.000000	2.837119
5566.000000	2.841797
5564.000000	2.846248
5562.000000	2.850149
5560.000000	2.856561
5558.000000	2.863255
5556.000000	2.869671
5554.000000	2.874996
5552.000000	2.878398
5550.000000	2.882426
5548.000000	2.887908
5546.000000	2.894990
5544.000000	2.902798
5542.000000	2.909073
5540.000000	2.914836
5538.000000	2.918642
5536.000000	2.922380
5534.000000	2.927315
5532.000000	2.932370
5530.000000	2.936683
5528.000000	2.939263
5526.000000	2.943130
5524.000000	2.951233
5522.000000	2.960608
5520.000000	2.968603
5518.000000	2.973504
5516.000000	2.977129
5514.000000	2.980978
5512.000000	2.983891
5510.000000	2.988608
5508.000000	2.995676
5506.000000	3.002560
5504.000000	3.007882
5502.000000	3.011679
5500.000000	3.016268
5498.000000	3.022522
5496.000000	3.029063
5494.000000	3.035539
5492.000000	3.040271
5490.000000	3.044686
5488.000000	3.049943
5486.000000	3.055714
5484.000000	3.062785
5482.000000	3.069483
5480.000000	3.074251
5478.000000	3.077539
5476.000000	3.082030
5474.000000	3.089593
5472.000000	3.096393
5470.000000	3.102372
5468.000000	3.108608
5466.000000	3.114483
5464.000000	3.119661
5462.000000	3.123658
5460.000000	3.128844
5458.000000	3.134991
5456.000000	3.141386
5454.000000	3.148365
5452.000000	3.152808
5450.000000	3.155727
5448.000000	3.159963
5446.000000	3.166396
5444.000000	3.173974
5442.000000	3.179070
5440.000000	3.183772
5438.000000	3.189260
5436.000000	3.193809
5434.000000	3.199568
5432.000000	3.205915
5430.000000	3.212089
5428.000000	3.216102
5426.000000	3.219599
5424.000000	3.226710
5422.000000	3.234968
5420.000000	3.241551
5418.000000	3.245988
5416.000000	3.248050
5414.000000	3.251800
5412.000000	3.257521
5410.000000	3.265107
5408.000000	3.272505
5406.000000	3.278265
5404.000000	3.283881
5402.000000	3.289121
5400.000000	3.295359
5398.000000	3.301574
5396.000000	3.305526
5394.000000	3.310428
5392.000000	3.316408
5390.000000	3.321497
5388.000000	3.325708
5386.000000	3.330574
5384.000000	3.338881
5382.000000	3.346822
5380.000000	3.351609
5378.000000	3.356033
5376.000000	3.360792
5374.000000	3.367872
5372.000000	3.374156
5370.000000	3.380262
5368.000000	3.386349
5366.000000	3.392182
5364.000000	3.398284
5362.000000	3.404572
5360.000000	3.409545
5358.000000	3.413484
5356.000000	3.417199
5354.000000	3.423123
5352.000000	3.431453
5350.000000	3.438554
5348.000000	3.442068
5346.000000	3.443070
5344.000000	3.448701
5342.000000	3.456877
5340.000000	3.464005
5338.000000	3.469840
5336.000000	3.475568
5334.000000	3.482047
5332.000000	3.486817
5330.000000	3.491542
5328.000000	3.496884
5326.000000	3.501840
5324.000000	3.507863
5322.000000	3.514835
5320.000000	3.522142
5318.000000	3.528115
5316.000000	3.532495
5314.000000	3.537517
5312.000000	3.542642
5310.000000	3.546464
5308.000000	3.550661
5306.000000	3.556508
5304.000000	3.563766
5302.000000	3.570111
5300.000000	3.574406
5298.000000	3.580287
5296.000000	3.586962
5294.000000	3.593165
5292.000000	3.596611
5290.000000	3.599506
5288.000000	3.605805
5286.000000	3.611853
5284.000000	3.617360
5282.000000	3.622404
5280.000000	3.627827
5278.000000	3.634798
5276.000000	3.641654
5274.000000	3.647899
5272.000000	3.652132
5270.000000	3.656304
5268.000000	3.661691
5266.000000	3.665989
5264.000000	3.670565
5262.000000	3.677211
5260.000000	3.685145
5258.000000	3.690687
5256.000000	3.694237
5254.000000	3.699310
5252.000000	3.705430
5250.000000	3.708725
5248.000000	3.711358
5246.000000	3.717257
5244.000000	3.725889
5242.000000	3.732629
5240.000000	3.735889
5238.000000	3.739667
5236.000000	3.745300
5234.000000	3.750799
5232.000000	3.755523
5230.000000	3.759814
5228.000000	3.764715
5226.000000	3.768371
5224.000000	3.772092
5222.000000	3.777046
5220.000000	3.783449
5218.000000	3.791207
5216.000000	3.798139
5214.000000	3.802624
5212.000000	3.804865
5210.000000	3.805824
5208.000000	3.808896
5206.000000	3.814871
5204.000000	3.821244
5202.000000	3.826059
5200.000000	3.830215
5198.000000	3.836199
5196.000000	3.843210
5194.000000	3.850313
5192.000000	3.856550
5190.000000	3.861034
5188.000000	3.864553
5186.000000	3.867163
5184.000000	3.870613
5182.000000	3.875377
5180.000000	3.879929
5178.000000	3.885038
5176.000000	3.891625
5174.000000	3.898834
5172.000000	3.903269
5170.000000	3.905893
5168.000000	3.910002
5166.000000	3.914697
5164.000000	3.919868
5162.000000	3.924846
5160.000000	3.929176
5158.000000	3.933157
5156.000000	3.937480
5154.000000	3.942465
5152.000000	3.948208
5150.000000	3.953162
5148.000000	3.957842
5146.000000	3.962885
5144.000000	3.968971
5142.000000	3.973324
5140.000000	3.976429
5138.000000	3.982257
5136.000000	3.989563
5134.000000	3.995242
5132.000000	3.998751
5130.000000	4.001743
5128.000000	4.006144
5126.000000	4.012589
5124.000000	4.019885
5122.000000	4.025058
5120.000000	4.027746
5118.000000	4.031956
5116.000000	4.038772
5114.000000	4.045256
5112.000000	4.049912
5110.000000	4.053775
5108.000000	4.058330
5106.000000	4.063794
5104.000000	4.069168
5102.000000	4.075113
5100.000000	4.081473
5098.000000	4.088473
5096.000000	4.093937
5094.000000	4.098478
5092.000000	4.104028
5090.000000	4.109389
5088.000000	4.114503
5086.000000	4.119077
5084.000000	4.124332
5082.000000	4.130814
5080.000000	4.137273
5078.000000	4.143469
5076.000000	4.149751
5074.000000	4.156267
5072.000000	4.161797
5070.000000	4.166415
5068.000000	4.172682
5066.000000	4.179916
5064.000000	4.186304
5062.000000	4.191864
5060.000000	4.197473
5058.000000	4.203496
5056.000000	4.209191
5054.000000	4.214266
5052.000000	4.219239
5050.000000	4.224748
5048.000000	4.231201
5046.000000	4.237469
5044.000000	4.242460
5042.000000	4.247948
5040.000000	4.254078
5038.000000	4.261043
5036.000000	4.266815
5034.000000	4.271991
5032.000000	4.277574
5030.000000	4.283303
5028.000000	4.289374
5026.000000	4.294772
5024.000000	4.299491
5022.000000	4.304022
5020.000000	4.310090
5018.000000	4.318138
5016.000000	4.326110
5014.000000	4.332954
5012.000000	4.337802
5010.000000	4.342579
5008.000000	4.348507
5006.000000	4.355192
5004.000000	4.360871
5002.000000	4.365982
5000.000000	4.371907
4998.000000	4.379330
4996.000000	4.387441
4994.000000	4.395089
4992.000000	4.401714
4990.000000	4.405850
4988.000000	4.410843
4986.000000	4.419513
4984.000000	4.429017
4982.000000	4.434584
4980.000000	4.438143
4978.000000	4.443994
4976.000000	4.451876
4974.000000	4.458981
4972.000000	4.466110
4970.000000	4.472405
4968.000000	4.478499
4966.000000	4.485082
4964.000000	4.492218
4962.000000	4.498532
4960.000000	4.504137
4958.000000	4.511689
4956.000000	4.519814
4954.000000	4.525856
4952.000000	4.530175
4950.000000	4.535296
4948.000000	4.542000
4946.000000	4.549294
4944.000000	4.555317
4942.000000	4.561108
4940.000000	4.567008
4938.000000	4.574838
4936.000000	4.583180
4934.000000	4.590613
4932.000000	4.597244
4930.000000	4.604074
4928.000000	4.610250
4926.000000	4.615855
4924.000000	4.621238
4922.000000	4.627063
4920.000000	4.632919
4918.000000	4.641239
4916.000000	4.650862
4914.000000	4.657488
4912.000000	4.661706
4910.000000	4.667443
4908.000000	4.675050
4906.000000	4.684286
4904.000000	4.691764
4902.000000	4.697534
4900.000000	4.702920
4898.000000	4.710841
4896.000000	4.719045
4894.000000	4.725658
4892.000000	4.732556
4890.000000	4.739803
4888.000000	4.747468
4886.000000	4.755100
4884.000000	4.761361
4882.000000	4.766875
4880.000000	4.773016
4878.000000	4.780851
4876.000000	4.789330
4874.000000	4.796409
4872.000000	4.803420
4870.000000	4.810932
4868.000000	4.819580
4866.000000	4.827759
4864.000000	4.834216
4862.000000	4.839908
4860.000000	4.845673
4858.000000	4.853120
4856.000000	4.861947
4854.000000	4.870285
4852.000000	4.877410
4850.000000	4.884365
4848.000000	4.891318
4846.000000	4.898234
4844.000000	4.904985
4842.000000	4.912358
4840.000000	4.919405
4838.000000	4.926001
4836.000000	4.932043
4834.000000	4.938168
4832.000000	4.946019
4830.000000	4.954631
4828.000000	4.962974
4826.000000	4.971434
4824.000000	4.979387
4822.000000	4.986835
4820.000000	4.993118
4818.000000	5.000459
4816.000000	5.009583
4814.000000	5.018690
4812.000000	5.025190
4810.000000	5.031495
4808.000000	5.039726
4806.000000	5.049150
4804.000000	5.057137
4802.000000	5.063515
4800.000000	5.069563
4798.000000	5.076577
4796.000000	5.084553
4794.000000	5.094652
4792.000000	5.105539
4790.000000	5.114860
4788.000000	5.121697
4786.000000	5.129010
4784.000000	5.137081
4782.000000	5.144904
4780.000000	5.152445
4778.000000	5.160923
4776.000000	5.169541
4774.000000	5.176483
4772.000000	5.184265
4770.000000	5.194803
4768.000000	5.204165
4766.000000	5.210505
4764.000000	5.216689
4762.000000	5.224412
4760.000000	5.232201
4758.000000	5.241655
4756.000000	5.251084
4754.000000	5.257304
4752.000000	5.263422
4750.000000	5.271523
4748.000000	5.278766
4746.000000	5.285354
4744.000000	5.293130
4742.000000	5.300744
4740.000000	5.307811
4738.000000	5.315119
4736.000000	5.322849
4734.000000	5.330962
4732.000000	5.339409
4730.000000	5.347931
4728.000000	5.356159
4726.000000	5.364208
4724.000000	5.372682
4722.000000	5.380962
4720.000000	5.388906
4718.000000	5.397300
4716.000000	5.405920
4714.000000	5.413637
4712.000000	5.420711
4710.000000	5.428428
4708.000000	5.436956
4706.000000	5.445350
4704.000000	5.451799
4702.000000	5.458717
4700.000000	5.467765
4698.000000	5.477283
4696.000000	5.484951
4694.000000	5.492862
4692.000000	5.501892
4690.000000	5.510004
4688.000000	5.515504
4686.000000	5.521292
4684.000000	5.530796
4682.000000	5.542689
4680.000000	5.552984
4678.000000	5.560443
4676.000000	5.566927
4674.000000	5.573895
4672.000000	5.582995
4670.000000	5.592803
4668.000000	5.600842
4666.000000	5.606601
4664.000000	5.613212
4662.000000	5.622116
4660.000000	5.630865
4658.000000	5.637080
4656.000000	5.642812
4654.000000	5.650101
4652.000000	5.658286
4650.000000	5.665881
4648.000000	5.672659
4646.000000	5.680200
4644.000000	5.689391
4642.000000	5.697825
4640.000000	5.704324
4638.000000	5.711272
4636.000000	5.720010
4634.000000	5.728468
4632.000000	5.735039
4630.000000	5.741281
4628.000000	5.749176
4626.000000	5.757812
4624.000000	5.765573
4622.000000	5.772768
4620.000000	5.780620
4618.000000	5.788538
4616.000000	5.796234
4614.000000	5.803616
4612.000000	5.809957
4610.000000	5.816856
4608.000000	5.826538
4606.000000	5.835724
4604.000000	5.842088
4602.000000	5.848432
4600.000000	5.856508
4598.000000	5.865711
4596.000000	5.875735
4594.000000	5.883479
4592.000000	5.889613
4590.000000	5.898101
4588.000000	5.907489
4586.000000	5.914031
4584.000000	5.919890
4582.000000	5.927267
4580.000000	5.934908
4578.000000	5.943075
4576.000000	5.952558
4574.000000	5.962065
4572.000000	5.969513
4570.000000	5.975805
4568.000000	5.982154
4566.000000	5.989133
4564.000000	5.997432
4562.000000	6.005946
4560.000000	6.012462
4558.000000	6.017318
4556.000000	6.023956
4554.000000	6.033719
4552.000000	6.042699
4550.000000	6.049010
4548.000000	6.055851
4546.000000	6.064602
4544.000000	6.074325
4542.000000	6.084109
4540.000000	6.091580
4538.000000	6.097503
4536.000000	6.104549
4534.000000	6.113065
4532.000000	6.120412
4530.000000	6.126281
4528.000000	6.132811
4526.000000	6.141686
4524.000000	6.149839
4522.000000	6.155413
4520.000000	6.161332
4518.000000	6.170125
4516.000000	6.179413
4514.000000	6.187250
4512.000000	6.194535
4510.000000	6.202346
4508.000000	6.210487
4506.000000	6.217917
4504.000000	6.226209
4502.000000	6.235644
4500.000000	6.244772
4498.000000	6.252616
4496.000000	6.259066
4494.000000	6.265487
4492.000000	6.273711
4490.000000	6.283187
4488.000000	6.291265
4486.000000	6.298723
4484.000000	6.306979
4482.000000	6.314522
4480.000000	6.320876
4478.000000	6.328813
4476.000000	6.336916
4474.000000	6.344338
4472.000000	6.351621
4470.000000	6.357980
4468.000000	6.364622
4466.000000	6.372485
4464.000000	6.380727
4462.000000	6.388859
4460.000000	6.395894
4458.000000	6.402171
4456.000000	6.409389
4454.000000	6.417948
4452.000000	6.425469
4450.000000	6.431494
4448.000000	6.437959
4446.000000	6.445414
4444.000000	6.453388
4442.000000	6.462162
4440.000000	6.469031
4438.000000	6.474808
4436.000000	6.481952
4434.000000	6.489963
4432.000000	6.497709
4430.000000	6.505322
4428.000000	6.511915
4426.000000	6.517756
4424.000000	6.525216
4422.000000	6.534163
4420.000000	6.542102
4418.000000	6.548994
4416.000000	6.555178
4414.000000	6.561067
4412.000000	6.568627
4410.000000	6.577069
4408.000000	6.584123
4406.000000	6.591180
4404.000000	6.600334
4402.000000	6.610408
4400.000000	6.617783
4398.000000	6.623377
4396.000000	6.630286
4394.000000	6.638224
4392.000000	6.645049
4390.000000	6.651679
4388.000000	6.659529
4386.000000	6.667286
4384.000000	6.673963
4382.000000	6.680398
4380.000000	6.686363
4378.000000	6.692607
4376.000000	6.699692
4374.000000	6.707676
4372.000000	6.716234
4370.000000	6.723302
4368.000000	6.728035
4366.000000	6.733120
4364.000000	6.740282
4362.000000	6.748239
4360.000000	6.754902
4358.000000	6.760953
4356.000000	6.766134
4354.000000	6.771881
4352.000000	6.780689
4350.000000	6.789322
4348.000000	6.794658
4346.000000	6.799768
4344.000000	6.806111
4342.000000	6.812418
4340.000000	6.818904
4338.000000	6.826830
4336.000000	6.834488
4334.000000	6.841260
4332.000000	6.849425
4330.000000	6.856860
4328.000000	6.863086
4326.000000	6.869924
4324.000000	6.876417
4322.000000	6.882324
4320.000000	6.888598
4318.000000	6.895990
4316.000000	6.904202
4314.000000	6.911231
4312.000000	6.917776
4310.000000	6.925339
4308.000000	6.932159
4306.000000	6.938830
4304.000000	6.947197
4302.000000	6.956101
4300.000000	6.963454
4298.000000	6.969619
4296.000000	6.975797
4294.000000	6.983060
4292.000000	6.991156
4290.000000	6.998311
4288.000000	7.005515
4286.000000	7.013889
4284.000000	7.020829
4282.000000	7.025841
4280.000000	7.032605
4278.000000	7.040485
4276.000000	7.046235
4274.000000	7.051316
4272.000000	7.058147
4270.000000	7.065425
4268.000000	7.070892
4266.000000	7.075638
4264.000000	7.082839
4262.000000	7.092052
4260.000000	7.099748
4258.000000	7.105926
4256.000000	7.111310
4254.000000	7.116593
4252.000000	7.123269
4250.000000	7.130117
4248.000000	7.136726
4246.000000	7.143765
4244.000000	7.151020
4242.000000	7.158481
4240.000000	7.165923
4238.000000	7.173880
4236.000000	7.181702
4234.000000	7.188328
4232.000000	7.195682
4230.000000	7.201389
4228.000000	7.206287
4226.000000	7.214758
4224.000000	7.222757
4222.000000	7.228574
4220.000000	7.235541
4218.000000	7.242716
4216.000000	7.248726
4214.000000	7.255644
4212.000000	7.265552
4210.000000	7.275169
4208.000000	7.282252
4206.000000	7.290342
4204.000000	7.298734
4202.000000	7.305423
4200.000000	7.312377
4198.000000	7.320356
4196.000000	7.328437
4194.000000	7.337139
4192.000000	7.346188
4190.000000	7.354052
4188.000000	7.361332
4186.000000	7.368846
4184.000000	7.375749
4182.000000	7.383393
4180.000000	7.390909
4178.000000	7.396735
4176.000000	7.403509
4174.000000	7.412295
4172.000000	7.421618
4170.000000	7.429827
4168.000000	7.436535
4166.000000	7.443314
4164.000000	7.449233
4162.000000	7.455330
4160.000000	7.464842
4158.000000	7.474382
4156.000000	7.480087
4154.000000	7.485856
4152.000000	7.494673
4150.000000	7.502904
4148.000000	7.510049
4146.000000	7.518160
4144.000000	7.524736
4142.000000	7.531164
4140.000000	7.539968
4138.000000	7.548783
4136.000000	7.556607
4134.000000	7.564795
4132.000000	7.573520
4130.000000	7.581569
4128.000000	7.587618
4126.000000	7.593374
4124.000000	7.601131
4122.000000	7.610650
4120.000000	7.618554
4118.000000	7.624214
4116.000000	7.630316
4114.000000	7.638576
4112.000000	7.648047
4110.000000	7.655823
4108.000000	7.661912
4106.000000	7.669625
4104.000000	7.677613
4102.000000	7.684701
4100.000000	7.692644
4098.000000	7.701148
4096.000000	7.709295
4094.000000	7.716975
4092.000000	7.725103
4090.000000	7.734211
4088.000000	7.742648
4086.000000	7.750653
4084.000000	7.758417
4082.000000	7.765763
4080.000000	7.773431
4078.000000	7.781201
4076.000000	7.788851
4074.000000	7.796875
4072.000000	7.804929
4070.000000	7.812581
4068.000000	7.820776
4066.000000	7.829172
4064.000000	7.835820
4062.000000	7.842618
4060.000000	7.850002
4058.000000	7.858102
4056.000000	7.867895
4054.000000	7.875664
4052.000000	7.881374
4050.000000	7.889034
4048.000000	7.896968
4046.000000	7.904220
4044.000000	7.911566
4042.000000	7.919146
4040.000000	7.927876
4038.000000	7.936488
4036.000000	7.943874
4034.000000	7.952271
4032.000000	7.961584
4030.000000	7.969836
4028.000000	7.977606
4026.000000	7.985830
4024.000000	7.993626
4022.000000	8.000923
4020.000000	8.007548
4018.000000	8.014986
4016.000000	8.025128
4014.000000	8.035136
4012.000000	8.042679
4010.000000	8.050508
4008.000000	8.059759
4006.000000	8.068732
4004.000000	8.076814
4002.000000	8.084893
4000.000000	8.093157
3998.000000	8.101918
3996.000000	8.111291
3994.000000	8.120304
3992.000000	8.127117
3990.000000	8.132955
3988.000000	8.141293
3986.000000	8.150715
3984.000000	8.158452
3982.000000	8.166292
3980.000000	8.174639
3978.000000	8.183573
3976.000000	8.192615
3974.000000	8.199729
3972.000000	8.206561
3970.000000	8.215534
3968.000000	8.224988
3966.000000	8.233446
3964.000000	8.239860
3962.000000	8.245861
3960.000000	8.253963
3958.000000	8.262744
3956.000000	8.270642
3954.000000	8.277642
3952.000000	8.283420
3950.000000	8.289019
3948.000000	8.297901
3946.000000	8.308915
3944.000000	8.316709
3942.000000	8.326423
3940.000000	8.339482
3938.000000	8.349050
3936.000000	8.354547
3934.000000	8.358059
3932.000000	8.365575
3930.000000	8.379560
3928.000000	8.389863
3926.000000	8.395599
3924.000000	8.404209
3922.000000	8.412965
3920.000000	8.417576
3918.000000	8.425055
3916.000000	8.441069
3914.000000	8.458531
3912.000000	8.471280
3910.000000	8.479714
3908.000000	8.478979
3906.000000	8.466689
3904.000000	8.458103
3902.000000	8.465858
3900.000000	8.486654
3898.000000	8.515537
3896.000000	8.537047
3894.000000	8.536405
3892.000000	8.533945
3890.000000	8.544630
3888.000000	8.545007
3886.000000	8.545353
3884.000000	8.563772
3882.000000	8.578920
3880.000000	8.594099
3878.000000	8.611914
3876.000000	8.615187
3874.000000	8.607988
3872.000000	8.596072
3870.000000	8.599305
3868.000000	8.622397
3866.000000	8.638396
3864.000000	8.651972
3862.000000	8.673480
3860.000000	8.689849
3858.000000	8.669015
3856.000000	8.598538
3854.000000	8.563426
3852.000000	8.626503
3850.000000	8.713788
3848.000000	8.754835
3846.000000	8.758674
3844.000000	8.750505
3842.000000	8.738140
3840.000000	8.715960
3838.000000	8.713671
3836.000000	8.750015
3834.000000	8.785163
3832.000000	8.805088
3830.000000	8.824851
3828.000000	8.839548
3826.000000	8.843372
3824.000000	8.828174
3822.000000	8.814101
3820.000000	8.822248
3818.000000	8.822760
3816.000000	8.834972
3814.000000	8.882667
3812.000000	8.917552
3810.000000	8.912501
3808.000000	8.896090
3806.000000	8.901294
3804.000000	8.896913
3802.000000	8.887355
3800.000000	8.917442
3798.000000	8.954585
3796.000000	8.977107
3794.000000	8.997009
3792.000000	9.010078
3790.000000	9.018332
3788.000000	9.023101
3786.000000	9.027269
3784.000000	9.034508
3782.000000	9.037772
3780.000000	9.041330
3778.000000	9.055731
3776.000000	9.070814
3774.000000	9.073438
3772.000000	9.065261
3770.000000	9.065582
3768.000000	9.078364
3766.000000	9.092226
3764.000000	9.104541
3762.000000	9.106513
3760.000000	9.103389
3758.000000	9.108947
3756.000000	9.101993
3754.000000	9.059673
3752.000000	9.021777
3750.000000	9.034935
3748.000000	9.052726
3746.000000	9.032784
3744.000000	9.055475
3742.000000	9.129006
3740.000000	9.156611
3738.000000	9.134449
3736.000000	9.121057
3734.000000	9.134179
3732.000000	9.164292
3730.000000	9.195918
3728.000000	9.205728
3726.000000	9.206570
3724.000000	9.213661
3722.000000	9.223981
3720.000000	9.237472
3718.000000	9.246150
3716.000000	9.236361
3714.000000	9.208204
3712.000000	9.195918
3710.000000	9.217916
3708.000000	9.246912
3706.000000	9.261379
3704.000000	9.258556
3702.000000	9.253851
3700.000000	9.262063
3698.000000	9.271268
3696.000000	9.270303
3694.000000	9.254530
3692.000000	9.218474
3690.000000	9.183029
3688.000000	9.196299
3686.000000	9.243941
3684.000000	9.266606
3682.000000	9.259678
3680.000000	9.233047
3678.000000	9.181044
3676.000000	9.149080
3674.000000	9.159980
3672.000000	9.155303
3670.000000	9.155471
3668.000000	9.189908
3666.000000	9.212238
3664.000000	9.210469
3662.000000	9.201811
3660.000000	9.182130
3658.000000	9.148883
3656.000000	9.132106
3654.000000	9.122739
3652.000000	9.078028
3650.000000	9.034278
3648.000000	9.041280
3646.000000	9.071216
3644.000000	9.081610
3642.000000	9.071416
3640.000000	9.056081
3638.000000	9.040557
3636.000000	9.020628
3634.000000	8.993776
3632.000000	8.948087
3630.000000	8.900134
3628.000000	8.899908
3626.000000	8.924145
3624.000000	8.922111
3622.000000	8.891517
3620.000000	8.860060
3618.000000	8.850366
3616.000000	8.842501
3614.000000	8.822534
3612.000000	8.801356
3610.000000	8.783850
3608.000000	8.778473
3606.000000	8.779250
3604.000000	8.770277
3602.000000	8.753205
3600.000000	8.736385
3598.000000	8.721079
3596.000000	8.705514
3594.000000	8.694298
3592.000000	8.680184
3590.000000	8.653371
3588.000000	8.635010
3586.000000	8.638831
3584.000000	8.643166
3582.000000	8.636126
3580.000000	8.626561
3578.000000	8.617753
3576.000000	8.608323
3574.000000	8.599965
3572.000000	8.589135
3570.000000	8.570390
3568.000000	8.552793
3566.000000	8.550016
3564.000000	8.556148
3562.000000	8.558023
3560.000000	8.554580
3558.000000	8.549482
3556.000000	8.541523
3554.000000	8.531827
3552.000000	8.527023
3550.000000	8.524015
3548.000000	8.515621
3546.000000	8.508933
3544.000000	8.508269
3542.000000	8.507430
3540.000000	8.503882
3538.000000	8.498512
3536.000000	8.493573
3534.000000	8.489403
3532.000000	8.481504
3530.000000	8.471417
3528.000000	8.462567
3526.000000	8.454082
3524.000000	8.447741
3522.000000	8.443948
3520.000000	8.438161
3518.000000	8.430609
3516.000000	8.424524
3514.000000	8.418768
3512.000000	8.410464
3510.000000	8.400555
3508.000000	8.390253
3506.000000	8.377358
3504.000000	8.364817
3502.000000	8.355720
3500.000000	8.346799
3498.000000	8.335305
3496.000000	8.322947
3494.000000	8.312706
3492.000000	8.302815
3490.000000	8.292193
3488.000000	8.282691
3486.000000	8.274381
3484.000000	8.264619
3482.000000	8.256064
3480.000000	8.251252
3478.000000	8.245719
3476.000000	8.239469
3474.000000	8.235255
3472.000000	8.230850
3470.000000	8.226147
3468.000000	8.223300
3466.000000	8.221983
3464.000000	8.221515
3462.000000	8.220228
3460.000000	8.218414
3458.000000	8.218590
3456.000000	8.219125
3454.000000	8.217883
3452.000000	8.215830
3450.000000	8.213300
3448.000000	8.210499
3446.000000	8.209866
3444.000000	8.211017
3442.000000	8.213510
3440.000000	8.217960
3438.000000	8.224565
3436.000000	8.232830
3434.000000	8.243208
3432.000000	8.254421
3430.000000	8.265513
3428.000000	8.277858
3426.000000	8.288879
3424.000000	8.297845
3422.000000	8.306449
3420.000000	8.315186
3418.000000	8.324159
3416.000000	8.331484
3414.000000	8.338088
3412.000000	8.343997
3410.000000	8.348978
3408.000000	8.353809
3406.000000	8.356160
3404.000000	8.357940
3402.000000	8.361320
3400.000000	8.366778
3398.000000	8.373088
3396.000000	8.378363
3394.000000	8.383227
3392.000000	8.388224
3390.000000	8.395391
3388.000000	8.402765
3386.000000	8.409378
3384.000000	8.415867
3382.000000	8.420647
3380.000000	8.424260
3378.000000	8.428617
3376.000000	8.431155
3374.000000	8.432389
3372.000000	8.435039
3370.000000	8.438949
3368.000000	8.443672
3366.000000	8.447970
3364.000000	8.452184
3362.000000	8.457018
3360.000000	8.461419
3358.000000	8.464318
3356.000000	8.466135
3354.000000	8.468802
3352.000000	8.472881
3350.000000	8.476320
3348.000000	8.479352
3346.000000	8.482696
3344.000000	8.486881
3342.000000	8.491470
3340.000000	8.494543
3338.000000	8.496997
3336.000000	8.501382
3334.000000	8.505714
3332.000000	8.508060
3330.000000	8.510604
3328.000000	8.514052
3326.000000	8.517838
3324.000000	8.521667
3322.000000	8.525414
3320.000000	8.527993
3318.000000	8.529319
3316.000000	8.531288
3314.000000	8.534267
3312.000000	8.537010
3310.000000	8.539332
3308.000000	8.540381
3306.000000	8.540254
3304.000000	8.544249
3302.000000	8.550802
3300.000000	8.553505
3298.000000	8.554101
3296.000000	8.555823
3294.000000	8.559644
3292.000000	8.561849
3290.000000	8.563550
3288.000000	8.567209
3286.000000	8.571270
3284.000000	8.574772
3282.000000	8.577617
3280.000000	8.580277
3278.000000	8.582996
3276.000000	8.585096
3274.000000	8.587326
3272.000000	8.590812
3270.000000	8.594714
3268.000000	8.598747
3266.000000	8.602031
3264.000000	8.606366
3262.000000	8.611106
3260.000000	8.614220
3258.000000	8.615665
3256.000000	8.618155
3254.000000	8.623220
3252.000000	8.627513
3250.000000	8.630346
3248.000000	8.633604
3246.000000	8.637418
3244.000000	8.641867
3242.000000	8.646885
3240.000000	8.650636
3238.000000	8.654368
3236.000000	8.657937
3234.000000	8.660963
3232.000000	8.665949
3230.000000	8.671819
3228.000000	8.676918
3226.000000	8.681240
3224.000000	8.685333
3222.000000	8.689195
3220.000000	8.692848
3218.000000	8.696623
3216.000000	8.700584
3214.000000	8.707080
3212.000000	8.712918
3210.000000	8.716944
3208.000000	8.721964
3206.000000	8.727691
3204.000000	8.733360
3202.000000	8.740003
3200.000000	8.747681
3198.000000	8.755556
3196.000000	8.762368
3194.000000	8.768392
3192.000000	8.774719
3190.000000	8.782622
3188.000000	8.791256
3186.000000	8.798336
3184.000000	8.803924
3182.000000	8.811436
3180.000000	8.818826
3178.000000	8.824824
3176.000000	8.830781
3174.000000	8.836943
3172.000000	8.842962
3170.000000	8.849313
3168.000000	8.856457
3166.000000	8.864003
3164.000000	8.871665
3162.000000	8.878356
3160.000000	8.883892
3158.000000	8.891478
3156.000000	8.900689
3154.000000	8.908254
3152.000000	8.915112
3150.000000	8.922110
3148.000000	8.929082
3146.000000	8.937011
3144.000000	8.945747
3142.000000	8.952700
3140.000000	8.958356
3138.000000	8.964732
3136.000000	8.972330
3134.000000	8.980759
3132.000000	8.988415
3130.000000	8.995899
3128.000000	9.002203
3126.000000	9.006287
3124.000000	9.009921
3122.000000	9.013020
3120.000000	9.017087
3118.000000	9.023357
3116.000000	9.028895
3114.000000	9.032927
3112.000000	9.038108
3110.000000	9.043630
3108.000000	9.047513
3106.000000	9.051394
3104.000000	9.058284
3102.000000	9.064847
3100.000000	9.070443
3098.000000	9.079238
3096.000000	9.086527
3094.000000	9.090514
3092.000000	9.096097
3090.000000	9.102750
3088.000000	9.107907
3086.000000	9.112328
3084.000000	9.117157
3082.000000	9.122270
3080.000000	9.126710
3078.000000	9.130251
3076.000000	9.133233
3074.000000	9.136085
3072.000000	9.138103
3070.000000	9.138571
3068.000000	9.137872
3066.000000	9.138296
3064.000000	9.142055
3062.000000	9.147563
3060.000000	9.153100
3058.000000	9.158671
3056.000000	9.164555
3054.000000	9.171900
3052.000000	9.178941
3050.000000	9.184954
3048.000000	9.190339
3046.000000	9.194035
3044.000000	9.196736
3042.000000	9.199500
3040.000000	9.203160
3038.000000	9.208163
3036.000000	9.209484
3034.000000	9.206331
3032.000000	9.201965
3030.000000	9.197682
3028.000000	9.192012
3026.000000	9.181782
3024.000000	9.169897
3022.000000	9.160379
3020.000000	9.156237
3018.000000	9.162453
3016.000000	9.178877
3014.000000	9.202389
3012.000000	9.229849
3010.000000	9.257950
3008.000000	9.281355
3006.000000	9.296858
3004.000000	9.308265
3002.000000	9.315824
3000.000000	9.321879
2998.000000	9.327681
2996.000000	9.330497
2994.000000	9.332051
2992.000000	9.333216
2990.000000	9.333997
2988.000000	9.334351
2986.000000	9.331148
2984.000000	9.324747
2982.000000	9.316794
2980.000000	9.304488
2978.000000	9.285775
2976.000000	9.260482
2974.000000	9.227472
2972.000000	9.185877
2970.000000	9.134735
2968.000000	9.078612
2966.000000	9.028354
2964.000000	8.993483
2962.000000	8.980387
2960.000000	8.989405
2958.000000	9.012666
2956.000000	9.039223
2954.000000	9.062207
2952.000000	9.079092
2950.000000	9.087442
2948.000000	9.085647
2946.000000	9.071855
2944.000000	9.044616
2942.000000	9.004867
2940.000000	8.956581
2938.000000	8.906624
2936.000000	8.861112
2934.000000	8.821296
2932.000000	8.783850
2930.000000	8.747699
2928.000000	8.721367
2926.000000	8.712102
2924.000000	8.727699
2922.000000	8.775295
2920.000000	8.848873
2918.000000	8.935121
2916.000000	9.023710
2914.000000	9.106452
2912.000000	9.176714
2910.000000	9.233444
2908.000000	9.278997
2906.000000	9.316468
2904.000000	9.349259
2902.000000	9.380786
2900.000000	9.411484
2898.000000	9.439817
2896.000000	9.465735
2894.000000	9.491793
2892.000000	9.517306
2890.000000	9.540019
2888.000000	9.559842
2886.000000	9.575361
2884.000000	9.587335
2882.000000	9.594893
2880.000000	9.597041
2878.000000	9.594046
2876.000000	9.585724
2874.000000	9.571758
2872.000000	9.549000
2870.000000	9.512352
2868.000000	9.463434
2866.000000	9.407473
2864.000000	9.357332
2862.000000	9.329249
2860.000000	9.328410
2858.000000	9.353453
2856.000000	9.390114
2854.000000	9.429824
2852.000000	9.477767
2850.000000	9.536608
2848.000000	9.604100
2846.000000	9.671008
2844.000000	9.727807
2842.000000	9.772123
2840.000000	9.806824
2838.000000	9.837585
2836.000000	9.863850
2834.000000	9.887461
2832.000000	9.908527
2830.000000	9.922951
2828.000000	9.937083
2826.000000	9.952858
2824.000000	9.965765
2822.000000	9.976819
2820.000000	9.986537
2818.000000	9.997651
2816.000000	10.009793
2814.000000	10.020465
2812.000000	10.028299
2810.000000	10.035048
2808.000000	10.044319
2806.000000	10.051805
2804.000000	10.057535
2802.000000	10.064266
2800.000000	10.070197
2798.000000	10.077190
2796.000000	10.084610
2794.000000	10.090617
2792.000000	10.099277
2790.000000	10.108025
2788.000000	10.117501
2786.000000	10.128313
2784.000000	10.139153
2782.000000	10.150608
2780.000000	10.159951
2778.000000	10.168531
2776.000000	10.177489
2774.000000	10.185126
2772.000000	10.191793
2770.000000	10.197084
2768.000000	10.204922
2766.000000	10.213100
2764.000000	10.219269
2762.000000	10.225910
2760.000000	10.231709
2758.000000	10.237151
2756.000000	10.243089
2754.000000	10.248469
2752.000000	10.254571
2750.000000	10.259758
2748.000000	10.265989
2746.000000	10.271008
2744.000000	10.274298
2742.000000	10.278628
2740.000000	10.282018
2738.000000	10.285584
2736.000000	10.288975
2734.000000	10.293408
2732.000000	10.298828
2730.000000	10.301571
2728.000000	10.305397
2726.000000	10.310068
2724.000000	10.313510
2722.000000	10.317147
2720.000000	10.321478
2718.000000	10.326168
2716.000000	10.329306
2714.000000	10.331096
2712.000000	10.334138
2710.000000	10.335306
2708.000000	10.336353
2706.000000	10.339100
2704.000000	10.341181
2702.000000	10.345326
2700.000000	10.349798
2698.000000	10.354693
2696.000000	10.359402
2694.000000	10.363036
2692.000000	10.366491
2690.000000	10.371227
2688.000000	10.376743
2686.000000	10.379676
2684.000000	10.381061
2682.000000	10.381876
2680.000000	10.382790
2678.000000	10.384786
2676.000000	10.386499
2674.000000	10.388048
2672.000000	10.391407
2670.000000	10.392848
2668.000000	10.394500
2666.000000	10.397292
2664.000000	10.397911
2662.000000	10.398165
2660.000000	10.400931
2658.000000	10.403113
2656.000000	10.403658
2654.000000	10.405154
2652.000000	10.409481
2650.000000	10.412381
2648.000000	10.414009
2646.000000	10.415110
2644.000000	10.414847
2642.000000	10.417188
2640.000000	10.418882
2638.000000	10.418798
2636.000000	10.421243
2634.000000	10.423041
2632.000000	10.424043
2630.000000	10.424835
2628.000000	10.425284
2626.000000	10.425203
2624.000000	10.424397
2622.000000	10.425739
2620.000000	10.428549
2618.000000	10.429695
2616.000000	10.430005
2614.000000	10.428968
2612.000000	10.427841
2610.000000	10.425706
2608.000000	10.425599
2606.000000	10.426408
2604.000000	10.425437
2602.000000	10.426429
2600.000000	10.426551
2598.000000	10.424573
2596.000000	10.422565
2594.000000	10.420320
2592.000000	10.420112
2590.000000	10.422261
2588.000000	10.426593
2586.000000	10.430519
2584.000000	10.432038
2582.000000	10.435506
2580.000000	10.439497
2578.000000	10.442922
2576.000000	10.447074
2574.000000	10.449424
2572.000000	10.450684
2570.000000	10.450949
2568.000000	10.452431
2566.000000	10.455799
2564.000000	10.457608
2562.000000	10.459385
2560.000000	10.460950
2558.000000	10.460267
2556.000000	10.460700
2554.000000	10.460849
2552.000000	10.462424
2550.000000	10.463389
2548.000000	10.462207
2546.000000	10.463577
2544.000000	10.463269
2542.000000	10.462140
2540.000000	10.462180
2538.000000	10.462529
2536.000000	10.463216
2534.000000	10.462625
2532.000000	10.463165
2530.000000	10.463028
2528.000000	10.463262
2526.000000	10.465177
2524.000000	10.465991
2522.000000	10.467031
2520.000000	10.467601
2518.000000	10.466467
2516.000000	10.466668
2514.000000	10.465629
2512.000000	10.465670
2510.000000	10.464580
2508.000000	10.462470
2506.000000	10.463507
2504.000000	10.462274
2502.000000	10.461007
2500.000000	10.461014
2498.000000	10.458729
2496.000000	10.458498
2494.000000	10.457191
2492.000000	10.455044
2490.000000	10.454138
2488.000000	10.452431
2486.000000	10.451138
2484.000000	10.450511
2482.000000	10.449379
2480.000000	10.446539
2478.000000	10.443345
2476.000000	10.442628
2474.000000	10.440243
2472.000000	10.436367
2470.000000	10.433211
2468.000000	10.430297
2466.000000	10.428970
2464.000000	10.425948
2462.000000	10.422660
2460.000000	10.420527
2458.000000	10.417790
2456.000000	10.415590
2454.000000	10.414203
2452.000000	10.412328
2450.000000	10.410736
2448.000000	10.409510
2446.000000	10.408698
2444.000000	10.405642
2442.000000	10.404900
2440.000000	10.406857
2438.000000	10.405932
2436.000000	10.405390
2434.000000	10.404962
2432.000000	10.404095
2430.000000	10.405562
2428.000000	10.406057
2426.000000	10.407821
2424.000000	10.410094
2422.000000	10.413500
2420.000000	10.417251
2418.000000	10.418801
2416.000000	10.423981
2414.000000	10.428316
2412.000000	10.431836
2410.000000	10.437862
2408.000000	10.441987
2406.000000	10.444787
2404.000000	10.446838
2402.000000	10.451022
2400.000000	10.454946
2398.000000	10.456041
2396.000000	10.459873
2394.000000	10.463376
2392.000000	10.464815
2390.000000	10.466079
2388.000000	10.467853
2386.000000	10.469826
2384.000000	10.467979
2382.000000	10.463864
2380.000000	10.457487
2378.000000	10.447103
2376.000000	10.434221
2374.000000	10.415332
2372.000000	10.393205
2370.000000	10.371079
2368.000000	10.348938
2366.000000	10.332181
2364.000000	10.320697
2362.000000	10.315894
2360.000000	10.321007
2358.000000	10.334073
2356.000000	10.356009
2354.000000	10.382605
2352.000000	10.411380
2350.000000	10.430601
2348.000000	10.421799
2346.000000	10.394755
2344.000000	10.365014
2342.000000	10.339121
2340.000000	10.325633
2338.000000	10.325653
2336.000000	10.335829
2334.000000	10.344377
2332.000000	10.347884
2330.000000	10.355355
2328.000000	10.364367
2326.000000	10.374191
2324.000000	10.382927
2322.000000	10.390044
2320.000000	10.398912
2318.000000	10.404911
2316.000000	10.411776
2314.000000	10.417573
2312.000000	10.420365
2310.000000	10.424627
2308.000000	10.427789
2306.000000	10.430373
2304.000000	10.429922
2302.000000	10.428403
2300.000000	10.429780
2298.000000	10.428202
2296.000000	10.427780
2294.000000	10.428825
2292.000000	10.428868
2290.000000	10.428973
2288.000000	10.428359
2286.000000	10.429921
2284.000000	10.429302
2282.000000	10.424439
2280.000000	10.422533
2278.000000	10.420766
2276.000000	10.419658
2274.000000	10.417447
2272.000000	10.413207
2270.000000	10.410720
2268.000000	10.407301
2266.000000	10.405694
2264.000000	10.404678
2262.000000	10.400823
2260.000000	10.397959
2258.000000	10.397696
2256.000000	10.398255
2254.000000	10.397585
2252.000000	10.395386
2250.000000	10.395789
2248.000000	10.395520
2246.000000	10.393631
2244.000000	10.393433
2242.000000	10.393514
2240.000000	10.396633
2238.000000	10.397407
2236.000000	10.397585
2234.000000	10.399299
2232.000000	10.399707
2230.000000	10.401625
2228.000000	10.401168
2226.000000	10.401447
2224.000000	10.404910
2222.000000	10.405611
2220.000000	10.405263
2218.000000	10.402696
2216.000000	10.400908
2214.000000	10.402012
2212.000000	10.402533
2210.000000	10.403942
2208.000000	10.402595
2206.000000	10.402903
2204.000000	10.405426
2202.000000	10.403843
2200.000000	10.405273
2198.000000	10.408159
2196.000000	10.409924
2194.000000	10.411363
2192.000000	10.410893
2190.000000	10.412042
2188.000000	10.412559
2186.000000	10.414308
2184.000000	10.417361
2182.000000	10.415881
2180.000000	10.415308
2178.000000	10.416777
2176.000000	10.419196
2174.000000	10.421230
2172.000000	10.418894
2170.000000	10.418187
2168.000000	10.420185
2166.000000	10.423286
2164.000000	10.428456
2162.000000	10.429942
2160.000000	10.430688
2158.000000	10.431356
2156.000000	10.434370
2154.000000	10.438327
2152.000000	10.438099
2150.000000	10.439654
2148.000000	10.442507
2146.000000	10.442961
2144.000000	10.445242
2142.000000	10.447323
2140.000000	10.450684
2138.000000	10.453352
2136.000000	10.455884
2134.000000	10.459940
2132.000000	10.462117
2130.000000	10.465726
2128.000000	10.468059
2126.000000	10.469239
2124.000000	10.472565
2122.000000	10.474447
2120.000000	10.476689
2118.000000	10.479776
2116.000000	10.483060
2114.000000	10.487763
2112.000000	10.490996
2110.000000	10.496139
2108.000000	10.499850
2106.000000	10.501251
2104.000000	10.507302
2102.000000	10.510949
2100.000000	10.515521
2098.000000	10.521594
2096.000000	10.524472
2094.000000	10.529664
2092.000000	10.534992
2090.000000	10.538644
2088.000000	10.541736
2086.000000	10.544678
2084.000000	10.551312
2082.000000	10.556857
2080.000000	10.563912
2078.000000	10.572018
2076.000000	10.575300
2074.000000	10.577223
2072.000000	10.579404
2070.000000	10.584823
2068.000000	10.591648
2066.000000	10.594315
2064.000000	10.601681
2062.000000	10.608123
2060.000000	10.613031
2058.000000	10.618389
2056.000000	10.621446
2054.000000	10.627157
2052.000000	10.634026
2050.000000	10.640816
2048.000000	10.646807
2046.000000	10.649745
2044.000000	10.654741
2042.000000	10.656466
2040.000000	10.660076
2038.000000	10.666582
2036.000000	10.670147
2034.000000	10.674944
2032.000000	10.677590
2030.000000	10.678114
2028.000000	10.682864
2026.000000	10.687780
2024.000000	10.693470
2022.000000	10.695422
2020.000000	10.697430
2018.000000	10.701543
2016.000000	10.704674
2014.000000	10.710929
2012.000000	10.716679
2010.000000	10.721069
2008.000000	10.725970
2006.000000	10.727781
2004.000000	10.732530
2002.000000	10.734896
2000.000000	10.735842
1998.000000	10.739149
1996.000000	10.740158
1994.000000	10.740842
1992.000000	10.741236
1990.000000	10.744993
1988.000000	10.749672
1986.000000	10.748954
1984.000000	10.749639
1982.000000	10.750298
1980.000000	10.749965
1978.000000	10.751042
1976.000000	10.750066
1974.000000	10.749532
1972.000000	10.747961
1970.000000	10.744244
1968.000000	10.740653
1966.000000	10.738857
1964.000000	10.740372
1962.000000	10.734032
1960.000000	10.720064
1958.000000	10.720448
1956.000000	10.727914
1954.000000	10.730428
1952.000000	10.729394
1950.000000	10.726501
1948.000000	10.724382
1946.000000	10.718176
1944.000000	10.710108
1942.000000	10.705816
1940.000000	10.709684
1938.000000	10.711706
1936.000000	10.707920
1934.000000	10.706032
1932.000000	10.704409
1930.000000	10.699644
1928.000000	10.697213
1926.000000	10.689464
1924.000000	10.681045
1922.000000	10.676645
1920.000000	10.665351
1918.000000	10.654534
1916.000000	10.658809
1914.000000	10.661674
1912.000000	10.654392
1910.000000	10.642470
1908.000000	10.637822
1906.000000	10.632388
1904.000000	10.628240
1902.000000	10.620792
1900.000000	10.612592
1898.000000	10.607148
1896.000000	10.598177
1894.000000	10.593162
1892.000000	10.587279
1890.000000	10.575037
1888.000000	10.577272
1886.000000	10.578311
1884.000000	10.575923
1882.000000	10.571660
1880.000000	10.566447
1878.000000	10.564161
1876.000000	10.560583
1874.000000	10.555083
1872.000000	10.541268
1870.000000	10.517475
1868.000000	10.518450
1866.000000	10.529153
1864.000000	10.530709
1862.000000	10.526399
1860.000000	10.520546
1858.000000	10.516925
1856.000000	10.512000
1854.000000	10.506990
1852.000000	10.501940
1850.000000	10.490685
1848.000000	10.476212
1846.000000	10.439092
1844.000000	10.419532
1842.000000	10.444542
1840.000000	10.454807
1838.000000	10.447051
1836.000000	10.438131
1834.000000	10.427851
1832.000000	10.403942
1830.000000	10.381054
1828.000000	10.384014
1826.000000	10.376227
1824.000000	10.372917
1822.000000	10.375731
1820.000000	10.366676
1818.000000	10.355339
1816.000000	10.344083
1814.000000	10.329530
1812.000000	10.312241
1810.000000	10.298967
1808.000000	10.294477
1806.000000	10.283317
1804.000000	10.264420
1802.000000	10.239962
1800.000000	10.222775
1798.000000	10.216362
1796.000000	10.197688
1794.000000	10.153249
1792.000000	10.132838
1790.000000	10.148408
1788.000000	10.150665
1786.000000	10.126168
1784.000000	10.107757
1782.000000	10.093991
1780.000000	10.077005
1778.000000	10.066415
1776.000000	10.037601
1774.000000	9.976588
1772.000000	9.950754
1770.000000	9.966653
1768.000000	9.972381
1766.000000	9.978324
1764.000000	9.956544
1762.000000	9.928489
1760.000000	9.923089
1758.000000	9.909069
1756.000000	9.892870
1754.000000	9.865388
1752.000000	9.811423
1750.000000	9.789690
1748.000000	9.793755
1746.000000	9.785975
1744.000000	9.763330
1742.000000	9.732959
1740.000000	9.703194
1738.000000	9.692067
1736.000000	9.623135
1734.000000	9.568333
1732.000000	9.625241
1730.000000	9.663548
1728.000000	9.670296
1726.000000	9.664995
1724.000000	9.652072
1722.000000	9.635328
1720.000000	9.570069
1718.000000	9.494206
1716.000000	9.512034
1714.000000	9.559153
1712.000000	9.581103
1710.000000	9.569955
1708.000000	9.541817
1706.000000	9.510573
1704.000000	9.490598
1702.000000	9.412945
1700.000000	9.364061
1698.000000	9.380155
1696.000000	9.373831
1694.000000	9.443275
1692.000000	9.491801
1690.000000	9.478242
1688.000000	9.441746
1686.000000	9.341440
1684.000000	9.314933
1682.000000	9.404489
1680.000000	9.441486
1678.000000	9.422820
1676.000000	9.379892
1674.000000	9.377438
1672.000000	9.374748
1670.000000	9.345604
1668.000000	9.360518
1666.000000	9.376063
1664.000000	9.344979
1662.000000	9.335064
1660.000000	9.346606
1658.000000	9.333451
1656.000000	9.242776
1654.000000	9.091531
1652.000000	9.119919
1650.000000	9.226241
1648.000000	9.202568
1646.000000	9.182570
1644.000000	9.221374
1642.000000	9.239278
1640.000000	9.215724
1638.000000	9.151930
1636.000000	9.089622
1634.000000	9.118473
1632.000000	9.156012
1630.000000	9.133001
1628.000000	9.096385
1626.000000	9.059910
1624.000000	9.004037
1622.000000	8.971012
1620.000000	8.928937
1618.000000	8.837079
1616.000000	8.796272
1614.000000	8.797798
1612.000000	8.751058
1610.000000	8.688876
1608.000000	8.656749
1606.000000	8.663359
1604.000000	8.680973
1602.000000	8.706767
1600.000000	8.728809
1598.000000	8.747158
1596.000000	8.763699
1594.000000	8.774584
1592.000000	8.781294
1590.000000	8.780851
1588.000000	8.775578
1586.000000	8.769646
1584.000000	8.759895
1582.000000	8.754972
1580.000000	8.740146
1578.000000	8.676240
1576.000000	8.641977
1574.000000	8.694536
1572.000000	8.703360
1570.000000	8.669996
1568.000000	8.669061
1566.000000	8.668211
1564.000000	8.636467
1562.000000	8.542336
1560.000000	8.407062
1558.000000	8.417087
1556.000000	8.512347
1554.000000	8.563382
1552.000000	8.607502
1550.000000	8.633328
1548.000000	8.645192
1546.000000	8.638750
1544.000000	8.614199
1542.000000	8.569925
1540.000000	8.555221
1538.000000	8.648712
1536.000000	8.730176
1534.000000	8.729517
1532.000000	8.756926
1530.000000	8.780053
1528.000000	8.762429
1526.000000	8.742920
1524.000000	8.713161
1522.000000	8.664391
1520.000000	8.675651
1518.000000	8.689790
1516.000000	8.680889
1514.000000	8.670541
1512.000000	8.651704
1510.000000	8.607194
1508.000000	8.497168
1506.000000	8.442595
1504.000000	8.452455
1502.000000	8.351484
1500.000000	8.101255
1498.000000	7.774836
1496.000000	7.543272
1494.000000	7.518230
1492.000000	7.633223
1490.000000	7.811689
1488.000000	7.999436
1486.000000	8.153043
1484.000000	8.249449
1482.000000	8.296978
1480.000000	8.320273
1478.000000	8.311223
1476.000000	8.282749
1474.000000	8.235608
1472.000000	8.219586
1470.000000	8.237140
1468.000000	8.213904
1466.000000	8.161693
1464.000000	8.126990
1462.000000	8.095495
1460.000000	8.000541
1458.000000	7.846079
1456.000000	7.754999
1454.000000	7.714049
1452.000000	7.664148
1450.000000	7.679703
1448.000000	7.765832
1446.000000	7.861424
1444.000000	7.904513
1442.000000	7.915142
1440.000000	7.906800
1438.000000	7.870441
1436.000000	7.875762
1434.000000	7.918837
1432.000000	7.925318
1430.000000	7.922379
1428.000000	7.922711
1426.000000	7.920608
1424.000000	7.910953
1422.000000	7.889452
1420.000000	7.845076
1418.000000	7.840425
1416.000000	7.855633
1414.000000	7.841628
1412.000000	7.805303
1410.000000	7.752982
1408.000000	7.674543
1406.000000	7.599051
1404.000000	7.559207
1402.000000	7.563485
1400.000000	7.591325
1398.000000	7.633855
1396.000000	7.672844
1394.000000	7.706157
1392.000000	7.736858
1390.000000	7.739340
1388.000000	7.707585
1386.000000	7.682812
1384.000000	7.675518
1382.000000	7.685228
1380.000000	7.697116
1378.000000	7.691541
1376.000000	7.678255
1374.000000	7.667505
1372.000000	7.664660
1370.000000	7.657856
1368.000000	7.641479
1366.000000	7.627617
1364.000000	7.606325
1362.000000	7.589270
1360.000000	7.584390
1358.000000	7.571115
1356.000000	7.552458
1354.000000	7.532650
1352.000000	7.513668
1350.000000	7.497144
1348.000000	7.473810
1346.000000	7.453497
1344.000000	7.431370
1342.000000	7.402940
1340.000000	7.380413
1338.000000	7.365643
1336.000000	7.360707
1334.000000	7.355504
1332.000000	7.340372
1330.000000	7.323490
1328.000000	7.299420
1326.000000	7.276295
1324.000000	7.253587
1322.000000	7.226282
1320.000000	7.199088
1318.000000	7.168612
1316.000000	7.140886
1314.000000	7.111523
1312.000000	7.077480
1310.000000	7.049292
1308.000000	7.016583
1306.000000	6.984122
1304.000000	6.953256
1302.000000	6.919771
1300.000000	6.889208
1298.000000	6.853240
1296.000000	6.817585
1294.000000	6.784760
1292.000000	6.746558
1290.000000	6.710649
1288.000000	6.668472
1286.000000	6.628826
1284.000000	6.590450
1282.000000	6.544143
1280.000000	6.500925
1278.000000	6.451815
1276.000000	6.396953
1274.000000	6.335936
1272.000000	6.258184
1270.000000	6.167655
1268.000000	6.047521
1266.000000	5.901499
1264.000000	5.753647
1262.000000	5.635324
1260.000000	5.585171
1258.000000	5.594489
1256.000000	5.635489
1254.000000	5.671610
1252.000000	5.674406
1250.000000	5.655502
1248.000000	5.616929
1246.000000	5.570611
1244.000000	5.524763
1242.000000	5.473524
1240.000000	5.424486
1238.000000	5.372952
1236.000000	5.323462
1234.000000	5.279974
1232.000000	5.232856
1230.000000	5.191088
1228.000000	5.146150
1226.000000	5.100038
1224.000000	5.056338
1222.000000	5.005253
1220.000000	4.958224
1218.000000	4.907790
1216.000000	4.853884
1214.000000	4.804730
1212.000000	4.751879
1210.000000	4.708074
1208.000000	4.668173
1206.000000	4.626929
1204.000000	4.589204
1202.000000	4.546609
1200.000000	4.508581
1198.000000	4.471289
1196.000000	4.429986
1194.000000	4.389955
1192.000000	4.343644
1190.000000	4.300949
1188.000000	4.254639
1186.000000	4.203645
1184.000000	4.145107
1182.000000	4.068663
1180.000000	4.018339
1178.000000	3.996237
1176.000000	3.967473
1174.000000	3.933240
1172.000000	3.886094
1170.000000	3.840208
1168.000000	3.794623
1166.000000	3.745241
1164.000000	3.699968
1162.000000	3.650384
1160.000000	3.604347
1158.000000	3.562082
1156.000000	3.517454
1154.000000	3.479009
1152.000000	3.435029
1150.000000	3.392276
1148.000000	3.349446
1146.000000	3.303092
1144.000000	3.263386
1142.000000	3.224867
1140.000000	3.193635
1138.000000	3.162185
1136.000000	3.122381
1134.000000	3.086045
1132.000000	3.045323
1130.000000	3.004249
1128.000000	2.962792
1126.000000	2.915601
1124.000000	2.874711
1122.000000	2.830560
1120.000000	2.784932
1118.000000	2.739614
1116.000000	2.689329
1114.000000	2.643205
1112.000000	2.593530
1110.000000	2.546615
1108.000000	2.502856
1106.000000	2.456905
1104.000000	2.417985
1102.000000	2.374351
1100.000000	2.331722
1098.000000	2.292393
1096.000000	2.249836
1094.000000	2.214845
1092.000000	2.177462
1090.000000	2.142327
1088.000000	2.112593
1086.000000	2.077818
1084.000000	2.046632
1082.000000	2.011084
1080.000000	1.978677
1078.000000	1.954237
1076.000000	1.925103
1074.000000	1.905773
1072.000000	1.886178
1070.000000	1.865388
1068.000000	1.845335
1066.000000	1.820640
1064.000000	1.801860
1062.000000	1.779195
1060.000000	1.756155
1058.000000	1.733480
1056.000000	1.693316
1054.000000	1.645316
1052.000000	1.597540
1050.000000	1.569194
1048.000000	1.569410
1046.000000	1.575380
1044.000000	1.579103
1042.000000	1.568309
1040.000000	1.547919
1038.000000	1.531329
1036.000000	1.508910
1034.000000	1.489560
1032.000000	1.464828
1030.000000	1.438839
1028.000000	1.415724
1026.000000	1.386140
1024.000000	1.361228
1022.000000	1.333709
1020.000000	1.306444
1018.000000	1.288466
1016.000000	1.264156
1014.000000	1.246629
1012.000000	1.231277
1010.000000	1.214112
1008.000000	1.202823
1006.000000	1.183895
1004.000000	1.167389
1002.000000	1.147517
1000.000000	1.121894
