PE IR       SUBTECH     SPECTRUM    ASCII       PEDS        4.00        
   -1
TE109A_032_105K_SB.ASC
20/04/21
14:11:53.00
20/04/21
14:11:53.00
Administrator
TE109A, Tuesday, April 21 2020, 032.
1000.000000
#HDR
-1
-1
#GR
cm-1
EGY
1.0
0.0
6000.000000
-2.000000
2501
8
6.668720
0.680661
#DATA
6000.000000	1.226855
5998.000000	1.230836
5996.000000	1.233195
5994.000000	1.232897
5992.000000	1.232204
5990.000000	1.234216
5988.000000	1.237379
5986.000000	1.239450
5984.000000	1.242657
5982.000000	1.245273
5980.000000	1.246774
5978.000000	1.248871
5976.000000	1.251252
5974.000000	1.253609
5972.000000	1.254546
5970.000000	1.254800
5968.000000	1.257089
5966.000000	1.260501
5964.000000	1.264184
5962.000000	1.266545
5960.000000	1.268918
5958.000000	1.273199
5956.000000	1.275892
5954.000000	1.278398
5952.000000	1.280199
5950.000000	1.281816
5948.000000	1.286155
5946.000000	1.290236
5944.000000	1.294084
5942.000000	1.296813
5940.000000	1.298304
5938.000000	1.300872
5936.000000	1.304142
5934.000000	1.307414
5932.000000	1.310994
5930.000000	1.313307
5928.000000	1.315009
5926.000000	1.316248
5924.000000	1.318476
5922.000000	1.321428
5920.000000	1.323800
5918.000000	1.325508
5916.000000	1.328082
5914.000000	1.331222
5912.000000	1.333044
5910.000000	1.334495
5908.000000	1.337282
5906.000000	1.341635
5904.000000	1.346493
5902.000000	1.349068
5900.000000	1.351349
5898.000000	1.352848
5896.000000	1.355473
5894.000000	1.359185
5892.000000	1.361723
5890.000000	1.363751
5888.000000	1.366453
5886.000000	1.370518
5884.000000	1.372671
5882.000000	1.373909
5880.000000	1.377078
5878.000000	1.381692
5876.000000	1.385968
5874.000000	1.387534
5872.000000	1.389511
5870.000000	1.391697
5868.000000	1.393266
5866.000000	1.395271
5864.000000	1.397777
5862.000000	1.401412
5860.000000	1.405432
5858.000000	1.407926
5856.000000	1.409806
5854.000000	1.412332
5852.000000	1.414422
5850.000000	1.417810
5848.000000	1.419490
5846.000000	1.423085
5844.000000	1.427194
5842.000000	1.431231
5840.000000	1.434335
5838.000000	1.437423
5836.000000	1.441484
5834.000000	1.445253
5832.000000	1.447753
5830.000000	1.450121
5828.000000	1.453298
5826.000000	1.456920
5824.000000	1.459979
5822.000000	1.463620
5820.000000	1.468093
5818.000000	1.470408
5816.000000	1.470951
5814.000000	1.473562
5812.000000	1.478338
5810.000000	1.483449
5808.000000	1.485007
5806.000000	1.485745
5804.000000	1.488372
5802.000000	1.491445
5800.000000	1.492684
5798.000000	1.493846
5796.000000	1.497173
5794.000000	1.500753
5792.000000	1.504410
5790.000000	1.507543
5788.000000	1.511737
5786.000000	1.515117
5784.000000	1.517965
5782.000000	1.521723
5780.000000	1.526648
5778.000000	1.529933
5776.000000	1.531735
5774.000000	1.534250
5772.000000	1.537077
5770.000000	1.540131
5768.000000	1.542252
5766.000000	1.545291
5764.000000	1.549340
5762.000000	1.552657
5760.000000	1.552818
5758.000000	1.554342
5756.000000	1.558397
5754.000000	1.564575
5752.000000	1.569026
5750.000000	1.571554
5748.000000	1.574858
5746.000000	1.576929
5744.000000	1.578599
5742.000000	1.580218
5740.000000	1.582404
5738.000000	1.585966
5736.000000	1.589230
5734.000000	1.591922
5732.000000	1.594599
5730.000000	1.597681
5728.000000	1.603096
5726.000000	1.608278
5724.000000	1.611859
5722.000000	1.613318
5720.000000	1.615405
5718.000000	1.618458
5716.000000	1.621458
5714.000000	1.625146
5712.000000	1.629651
5710.000000	1.633363
5708.000000	1.635697
5706.000000	1.637204
5704.000000	1.640215
5702.000000	1.644020
5700.000000	1.646869
5698.000000	1.650451
5696.000000	1.653179
5694.000000	1.655677
5692.000000	1.658309
5690.000000	1.660571
5688.000000	1.663033
5686.000000	1.666954
5684.000000	1.670981
5682.000000	1.675199
5680.000000	1.679283
5678.000000	1.683168
5676.000000	1.686717
5674.000000	1.689668
5672.000000	1.693511
5670.000000	1.698307
5668.000000	1.701415
5666.000000	1.703672
5664.000000	1.707570
5662.000000	1.712231
5660.000000	1.716203
5658.000000	1.718837
5656.000000	1.721801
5654.000000	1.725385
5652.000000	1.729270
5650.000000	1.733113
5648.000000	1.736395
5646.000000	1.740019
5644.000000	1.743190
5642.000000	1.745705
5640.000000	1.746123
5638.000000	1.747436
5636.000000	1.753351
5634.000000	1.759800
5632.000000	1.763966
5630.000000	1.765363
5628.000000	1.767655
5626.000000	1.770262
5624.000000	1.772544
5622.000000	1.775511
5620.000000	1.779695
5618.000000	1.784192
5616.000000	1.786487
5614.000000	1.789170
5612.000000	1.793804
5610.000000	1.799450
5608.000000	1.802664
5606.000000	1.803275
5604.000000	1.805750
5602.000000	1.810985
5600.000000	1.815468
5598.000000	1.818486
5596.000000	1.820026
5594.000000	1.823555
5592.000000	1.827799
5590.000000	1.831629
5588.000000	1.835029
5586.000000	1.837459
5584.000000	1.840700
5582.000000	1.843962
5580.000000	1.847022
5578.000000	1.849077
5576.000000	1.851373
5574.000000	1.854871
5572.000000	1.860799
5570.000000	1.866486
5568.000000	1.871264
5566.000000	1.875060
5564.000000	1.878232
5562.000000	1.881799
5560.000000	1.884859
5558.000000	1.888043
5556.000000	1.890896
5554.000000	1.894473
5552.000000	1.898620
5550.000000	1.902340
5548.000000	1.905684
5546.000000	1.909292
5544.000000	1.914568
5542.000000	1.918382
5540.000000	1.921191
5538.000000	1.923940
5536.000000	1.927779
5534.000000	1.931885
5532.000000	1.935272
5530.000000	1.939012
5528.000000	1.942779
5526.000000	1.945919
5524.000000	1.948655
5522.000000	1.951071
5520.000000	1.954129
5518.000000	1.957663
5516.000000	1.961678
5514.000000	1.965357
5512.000000	1.967955
5510.000000	1.971213
5508.000000	1.974904
5506.000000	1.979392
5504.000000	1.983523
5502.000000	1.986704
5500.000000	1.989026
5498.000000	1.991174
5496.000000	1.995458
5494.000000	2.000685
5492.000000	2.004693
5490.000000	2.007787
5488.000000	2.011883
5486.000000	2.018138
5484.000000	2.023192
5482.000000	2.026707
5480.000000	2.027642
5478.000000	2.029166
5476.000000	2.032912
5474.000000	2.037957
5472.000000	2.042709
5470.000000	2.046549
5468.000000	2.050120
5466.000000	2.054394
5464.000000	2.057353
5462.000000	2.060306
5460.000000	2.064413
5458.000000	2.067948
5456.000000	2.072125
5454.000000	2.076310
5452.000000	2.080571
5450.000000	2.082408
5448.000000	2.083015
5446.000000	2.086318
5444.000000	2.090645
5442.000000	2.094632
5440.000000	2.097760
5438.000000	2.101862
5436.000000	2.106390
5434.000000	2.110492
5432.000000	2.114249
5430.000000	2.118765
5428.000000	2.123302
5426.000000	2.127274
5424.000000	2.130552
5422.000000	2.133742
5420.000000	2.136913
5418.000000	2.139756
5416.000000	2.143287
5414.000000	2.145899
5412.000000	2.148763
5410.000000	2.153178
5408.000000	2.157923
5406.000000	2.161039
5404.000000	2.163825
5402.000000	2.169243
5400.000000	2.173540
5398.000000	2.175099
5396.000000	2.175899
5394.000000	2.179195
5392.000000	2.183769
5390.000000	2.187564
5388.000000	2.191415
5386.000000	2.196494
5384.000000	2.202171
5382.000000	2.206973
5380.000000	2.210268
5378.000000	2.213325
5376.000000	2.217165
5374.000000	2.220977
5372.000000	2.224726
5370.000000	2.228179
5368.000000	2.232514
5366.000000	2.236976
5364.000000	2.242031
5362.000000	2.246147
5360.000000	2.249294
5358.000000	2.250874
5356.000000	2.253158
5354.000000	2.255873
5352.000000	2.259518
5350.000000	2.262162
5348.000000	2.262711
5346.000000	2.264276
5344.000000	2.268265
5342.000000	2.273956
5340.000000	2.278237
5338.000000	2.281491
5336.000000	2.285721
5334.000000	2.289226
5332.000000	2.291168
5330.000000	2.292238
5328.000000	2.296050
5326.000000	2.302751
5324.000000	2.309645
5322.000000	2.314810
5320.000000	2.319068
5318.000000	2.323408
5316.000000	2.326291
5314.000000	2.329163
5312.000000	2.331935
5310.000000	2.333790
5308.000000	2.334840
5306.000000	2.335968
5304.000000	2.338862
5302.000000	2.343083
5300.000000	2.347810
5298.000000	2.352066
5296.000000	2.353411
5294.000000	2.353337
5292.000000	2.355741
5290.000000	2.359844
5288.000000	2.363482
5286.000000	2.365047
5284.000000	2.368427
5282.000000	2.372519
5280.000000	2.374676
5278.000000	2.375456
5276.000000	2.378101
5274.000000	2.382334
5272.000000	2.387317
5270.000000	2.390473
5268.000000	2.393077
5266.000000	2.395108
5264.000000	2.396959
5262.000000	2.399234
5260.000000	2.402969
5258.000000	2.407603
5256.000000	2.410895
5254.000000	2.411552
5252.000000	2.411971
5250.000000	2.414538
5248.000000	2.417455
5246.000000	2.418629
5244.000000	2.418997
5242.000000	2.420624
5240.000000	2.423745
5238.000000	2.425899
5236.000000	2.427580
5234.000000	2.428622
5232.000000	2.429401
5230.000000	2.430081
5228.000000	2.432305
5226.000000	2.435210
5224.000000	2.437259
5222.000000	2.439062
5220.000000	2.440785
5218.000000	2.442239
5216.000000	2.442900
5214.000000	2.445126
5212.000000	2.447865
5210.000000	2.449657
5208.000000	2.450842
5206.000000	2.451858
5204.000000	2.453518
5202.000000	2.455708
5200.000000	2.458110
5198.000000	2.459255
5196.000000	2.459689
5194.000000	2.460319
5192.000000	2.461793
5190.000000	2.464242
5188.000000	2.466373
5186.000000	2.467417
5184.000000	2.467953
5182.000000	2.469252
5180.000000	2.471223
5178.000000	2.472621
5176.000000	2.474176
5174.000000	2.474847
5172.000000	2.475145
5170.000000	2.476406
5168.000000	2.480045
5166.000000	2.484469
5164.000000	2.487336
5162.000000	2.488127
5160.000000	2.487496
5158.000000	2.487661
5156.000000	2.490049
5154.000000	2.493896
5152.000000	2.497774
5150.000000	2.501123
5148.000000	2.503176
5146.000000	2.504415
5144.000000	2.504867
5142.000000	2.505988
5140.000000	2.508575
5138.000000	2.512940
5136.000000	2.516522
5134.000000	2.517569
5132.000000	2.518364
5130.000000	2.520908
5128.000000	2.523791
5126.000000	2.525553
5124.000000	2.527345
5122.000000	2.530660
5120.000000	2.533521
5118.000000	2.536687
5116.000000	2.539767
5114.000000	2.542807
5112.000000	2.546439
5110.000000	2.550201
5108.000000	2.553770
5106.000000	2.556913
5104.000000	2.560506
5102.000000	2.563396
5100.000000	2.566847
5098.000000	2.571200
5096.000000	2.574409
5094.000000	2.576196
5092.000000	2.579014
5090.000000	2.583377
5088.000000	2.587226
5086.000000	2.591237
5084.000000	2.595917
5082.000000	2.600144
5080.000000	2.603604
5078.000000	2.608611
5076.000000	2.612955
5074.000000	2.615375
5072.000000	2.617816
5070.000000	2.621872
5068.000000	2.625026
5066.000000	2.628677
5064.000000	2.632812
5062.000000	2.636686
5060.000000	2.639807
5058.000000	2.643839
5056.000000	2.647666
5054.000000	2.651182
5052.000000	2.655461
5050.000000	2.659681
5048.000000	2.664154
5046.000000	2.668437
5044.000000	2.672606
5042.000000	2.676980
5040.000000	2.681028
5038.000000	2.685309
5036.000000	2.688952
5034.000000	2.693244
5032.000000	2.696224
5030.000000	2.698720
5028.000000	2.701717
5026.000000	2.706262
5024.000000	2.711218
5022.000000	2.714953
5020.000000	2.718265
5018.000000	2.722192
5016.000000	2.727093
5014.000000	2.732081
5012.000000	2.736606
5010.000000	2.740559
5008.000000	2.744671
5006.000000	2.749228
5004.000000	2.753560
5002.000000	2.757191
5000.000000	2.761060
4998.000000	2.766586
4996.000000	2.772492
4994.000000	2.778310
4992.000000	2.783677
4990.000000	2.789065
4988.000000	2.793283
4986.000000	2.797448
4984.000000	2.803884
4982.000000	2.809898
4980.000000	2.813353
4978.000000	2.815573
4976.000000	2.819240
4974.000000	2.823789
4972.000000	2.828274
4970.000000	2.832715
4968.000000	2.836977
4966.000000	2.842705
4964.000000	2.849071
4962.000000	2.854229
4960.000000	2.857836
4958.000000	2.861630
4956.000000	2.866214
4954.000000	2.871950
4952.000000	2.878197
4950.000000	2.884238
4948.000000	2.888662
4946.000000	2.890802
4944.000000	2.893364
4942.000000	2.898372
4940.000000	2.904313
4938.000000	2.908905
4936.000000	2.913388
4934.000000	2.918254
4932.000000	2.923854
4930.000000	2.929919
4928.000000	2.935025
4926.000000	2.939816
4924.000000	2.945927
4922.000000	2.950544
4920.000000	2.953251
4918.000000	2.957515
4916.000000	2.963163
4914.000000	2.968630
4912.000000	2.974777
4910.000000	2.981667
4908.000000	2.986879
4906.000000	2.990456
4904.000000	2.994840
4902.000000	3.000432
4900.000000	3.005983
4898.000000	3.010666
4896.000000	3.014840
4894.000000	3.019244
4892.000000	3.024986
4890.000000	3.032652
4888.000000	3.039241
4886.000000	3.044364
4884.000000	3.048606
4882.000000	3.053139
4880.000000	3.058181
4878.000000	3.064387
4876.000000	3.070647
4874.000000	3.077627
4872.000000	3.084817
4870.000000	3.091020
4868.000000	3.096045
4866.000000	3.101211
4864.000000	3.106358
4862.000000	3.111354
4860.000000	3.115922
4858.000000	3.121621
4856.000000	3.128230
4854.000000	3.133697
4852.000000	3.138684
4850.000000	3.144024
4848.000000	3.148810
4846.000000	3.152827
4844.000000	3.158326
4842.000000	3.165188
4840.000000	3.170961
4838.000000	3.174845
4836.000000	3.178889
4834.000000	3.185111
4832.000000	3.193108
4830.000000	3.200769
4828.000000	3.207297
4826.000000	3.213185
4824.000000	3.219212
4822.000000	3.225161
4820.000000	3.230367
4818.000000	3.235003
4816.000000	3.240083
4814.000000	3.246165
4812.000000	3.252332
4810.000000	3.257901
4808.000000	3.264316
4806.000000	3.271945
4804.000000	3.278980
4802.000000	3.285087
4800.000000	3.291137
4798.000000	3.296887
4796.000000	3.301544
4794.000000	3.305843
4792.000000	3.311718
4790.000000	3.318556
4788.000000	3.325229
4786.000000	3.330673
4784.000000	3.336359
4782.000000	3.342218
4780.000000	3.348338
4778.000000	3.355201
4776.000000	3.362003
4774.000000	3.366994
4772.000000	3.371789
4770.000000	3.379020
4768.000000	3.387604
4766.000000	3.394243
4764.000000	3.399184
4762.000000	3.403624
4760.000000	3.409339
4758.000000	3.415967
4756.000000	3.422134
4754.000000	3.427747
4752.000000	3.433750
4750.000000	3.439685
4748.000000	3.444328
4746.000000	3.449440
4744.000000	3.455734
4742.000000	3.462234
4740.000000	3.467491
4738.000000	3.472924
4736.000000	3.478837
4734.000000	3.485100
4732.000000	3.491268
4730.000000	3.498035
4728.000000	3.504757
4726.000000	3.510015
4724.000000	3.513446
4722.000000	3.517515
4720.000000	3.523913
4718.000000	3.531561
4716.000000	3.539119
4714.000000	3.545422
4712.000000	3.550278
4710.000000	3.554641
4708.000000	3.560209
4706.000000	3.566519
4704.000000	3.571843
4702.000000	3.577175
4700.000000	3.585576
4698.000000	3.594916
4696.000000	3.601065
4694.000000	3.604512
4692.000000	3.608862
4690.000000	3.615528
4688.000000	3.623067
4686.000000	3.630350
4684.000000	3.636265
4682.000000	3.640354
4680.000000	3.644731
4678.000000	3.650286
4676.000000	3.656112
4674.000000	3.662508
4672.000000	3.669108
4670.000000	3.674059
4668.000000	3.679413
4666.000000	3.685602
4664.000000	3.690816
4662.000000	3.696590
4660.000000	3.703615
4658.000000	3.709704
4656.000000	3.714660
4654.000000	3.719837
4652.000000	3.725224
4650.000000	3.731625
4648.000000	3.739195
4646.000000	3.745425
4644.000000	3.748895
4642.000000	3.751903
4640.000000	3.756349
4638.000000	3.762322
4636.000000	3.768668
4634.000000	3.774181
4632.000000	3.778978
4630.000000	3.785063
4628.000000	3.790376
4626.000000	3.795424
4624.000000	3.801819
4622.000000	3.807655
4620.000000	3.811834
4618.000000	3.817860
4616.000000	3.825902
4614.000000	3.833211
4612.000000	3.838506
4610.000000	3.842496
4608.000000	3.846998
4606.000000	3.852349
4604.000000	3.858697
4602.000000	3.865558
4600.000000	3.872431
4598.000000	3.878967
4596.000000	3.883985
4594.000000	3.888534
4592.000000	3.894284
4590.000000	3.900704
4588.000000	3.905763
4586.000000	3.911298
4584.000000	3.916833
4582.000000	3.921365
4580.000000	3.926804
4578.000000	3.933832
4576.000000	3.939756
4574.000000	3.944489
4572.000000	3.951010
4570.000000	3.956820
4568.000000	3.960119
4566.000000	3.964457
4564.000000	3.971108
4562.000000	3.977025
4560.000000	3.981278
4558.000000	3.986096
4556.000000	3.992205
4554.000000	3.998352
4552.000000	4.002131
4550.000000	4.006084
4548.000000	4.012684
4546.000000	4.019287
4544.000000	4.024034
4542.000000	4.028458
4540.000000	4.034101
4538.000000	4.040764
4536.000000	4.046875
4534.000000	4.051871
4532.000000	4.057083
4530.000000	4.062576
4528.000000	4.068383
4526.000000	4.074055
4524.000000	4.078896
4522.000000	4.083533
4520.000000	4.088701
4518.000000	4.093441
4516.000000	4.098924
4514.000000	4.105258
4512.000000	4.111182
4510.000000	4.115959
4508.000000	4.119799
4506.000000	4.123798
4504.000000	4.128528
4502.000000	4.133339
4500.000000	4.138629
4498.000000	4.145326
4496.000000	4.152249
4494.000000	4.158302
4492.000000	4.163973
4490.000000	4.169671
4488.000000	4.174497
4486.000000	4.178698
4484.000000	4.184883
4482.000000	4.190534
4480.000000	4.193921
4478.000000	4.198322
4476.000000	4.205170
4474.000000	4.211946
4472.000000	4.217854
4470.000000	4.223680
4468.000000	4.228268
4466.000000	4.231472
4464.000000	4.235676
4462.000000	4.242909
4460.000000	4.248814
4458.000000	4.251728
4456.000000	4.255863
4454.000000	4.262211
4452.000000	4.266667
4450.000000	4.270453
4448.000000	4.276060
4446.000000	4.282302
4444.000000	4.288068
4442.000000	4.292749
4440.000000	4.296972
4438.000000	4.302531
4436.000000	4.308763
4434.000000	4.313987
4432.000000	4.318775
4430.000000	4.324031
4428.000000	4.329364
4426.000000	4.334008
4424.000000	4.338071
4422.000000	4.343860
4420.000000	4.349780
4418.000000	4.353245
4416.000000	4.355941
4414.000000	4.360731
4412.000000	4.366069
4410.000000	4.371375
4408.000000	4.375903
4406.000000	4.380302
4404.000000	4.385585
4402.000000	4.390233
4400.000000	4.394217
4398.000000	4.400091
4396.000000	4.407122
4394.000000	4.412123
4392.000000	4.415679
4390.000000	4.419512
4388.000000	4.422738
4386.000000	4.426481
4384.000000	4.433196
4382.000000	4.440453
4380.000000	4.444415
4378.000000	4.446211
4376.000000	4.448967
4374.000000	4.453689
4372.000000	4.459536
4370.000000	4.464963
4368.000000	4.467466
4366.000000	4.468508
4364.000000	4.472463
4362.000000	4.477783
4360.000000	4.482165
4358.000000	4.486368
4356.000000	4.489998
4354.000000	4.492771
4352.000000	4.495349
4350.000000	4.498369
4348.000000	4.503528
4346.000000	4.510102
4344.000000	4.515003
4342.000000	4.518588
4340.000000	4.523483
4338.000000	4.528966
4336.000000	4.532612
4334.000000	4.536067
4332.000000	4.541192
4330.000000	4.546411
4328.000000	4.550347
4326.000000	4.553756
4324.000000	4.556595
4322.000000	4.558575
4320.000000	4.561140
4318.000000	4.565270
4316.000000	4.571139
4314.000000	4.577492
4312.000000	4.581328
4310.000000	4.584722
4308.000000	4.589629
4306.000000	4.594220
4304.000000	4.597885
4302.000000	4.601139
4300.000000	4.604340
4298.000000	4.608996
4296.000000	4.613661
4294.000000	4.617441
4292.000000	4.621200
4290.000000	4.625369
4288.000000	4.629354
4286.000000	4.633743
4284.000000	4.638129
4282.000000	4.641573
4280.000000	4.644692
4278.000000	4.648171
4276.000000	4.651474
4274.000000	4.654941
4272.000000	4.658555
4270.000000	4.662577
4268.000000	4.666690
4266.000000	4.670038
4264.000000	4.672654
4262.000000	4.675964
4260.000000	4.680374
4258.000000	4.684881
4256.000000	4.688776
4254.000000	4.692755
4252.000000	4.697167
4250.000000	4.701498
4248.000000	4.704988
4246.000000	4.708748
4244.000000	4.713141
4242.000000	4.718054
4240.000000	4.723093
4238.000000	4.727083
4236.000000	4.730573
4234.000000	4.735163
4232.000000	4.739299
4230.000000	4.742394
4228.000000	4.745312
4226.000000	4.748928
4224.000000	4.753711
4222.000000	4.759526
4220.000000	4.765041
4218.000000	4.769957
4216.000000	4.774270
4214.000000	4.777002
4212.000000	4.779416
4210.000000	4.785326
4208.000000	4.792008
4206.000000	4.794979
4204.000000	4.796648
4202.000000	4.800751
4200.000000	4.807349
4198.000000	4.814029
4196.000000	4.819140
4194.000000	4.824229
4192.000000	4.828876
4190.000000	4.833634
4188.000000	4.840244
4186.000000	4.846589
4184.000000	4.850477
4182.000000	4.852938
4180.000000	4.856009
4178.000000	4.859876
4176.000000	4.863967
4174.000000	4.869020
4172.000000	4.874209
4170.000000	4.879090
4168.000000	4.884031
4166.000000	4.888253
4164.000000	4.892010
4162.000000	4.895578
4160.000000	4.899579
4158.000000	4.905279
4156.000000	4.910968
4154.000000	4.914861
4152.000000	4.918976
4150.000000	4.924474
4148.000000	4.929731
4146.000000	4.934669
4144.000000	4.939985
4142.000000	4.944152
4140.000000	4.947771
4138.000000	4.953575
4136.000000	4.959312
4134.000000	4.962197
4132.000000	4.965205
4130.000000	4.971087
4128.000000	4.977843
4126.000000	4.982438
4124.000000	4.985558
4122.000000	4.989514
4120.000000	4.993986
4118.000000	4.998666
4116.000000	5.004154
4114.000000	5.010413
4112.000000	5.015798
4110.000000	5.019135
4108.000000	5.021160
4106.000000	5.024290
4104.000000	5.029875
4102.000000	5.035450
4100.000000	5.039708
4098.000000	5.043834
4096.000000	5.048109
4094.000000	5.053448
4092.000000	5.059965
4090.000000	5.065923
4088.000000	5.071018
4086.000000	5.076336
4084.000000	5.082738
4082.000000	5.088355
4080.000000	5.091739
4078.000000	5.093956
4076.000000	5.096532
4074.000000	5.100551
4072.000000	5.106384
4070.000000	5.112409
4068.000000	5.116686
4066.000000	5.119845
4064.000000	5.123326
4062.000000	5.127097
4060.000000	5.132754
4058.000000	5.139253
4056.000000	5.143489
4054.000000	5.146666
4052.000000	5.150928
4050.000000	5.154671
4048.000000	5.158478
4046.000000	5.163648
4044.000000	5.168392
4042.000000	5.173521
4040.000000	5.179558
4038.000000	5.184580
4036.000000	5.189738
4034.000000	5.194586
4032.000000	5.198578
4030.000000	5.203889
4028.000000	5.210400
4026.000000	5.216294
4024.000000	5.221110
4022.000000	5.224154
4020.000000	5.227155
4018.000000	5.232942
4016.000000	5.238504
4014.000000	5.241802
4012.000000	5.246292
4010.000000	5.251367
4008.000000	5.256640
4006.000000	5.264227
4004.000000	5.271182
4002.000000	5.276149
4000.000000	5.281394
3998.000000	5.286267
3996.000000	5.290711
3994.000000	5.296421
3992.000000	5.303129
3990.000000	5.308584
3988.000000	5.313082
3986.000000	5.317814
3984.000000	5.322626
3982.000000	5.328926
3980.000000	5.335992
3978.000000	5.341881
3976.000000	5.348049
3974.000000	5.354531
3972.000000	5.360388
3970.000000	5.366949
3968.000000	5.373522
3966.000000	5.378443
3964.000000	5.383373
3962.000000	5.388450
3960.000000	5.393707
3958.000000	5.401699
3956.000000	5.411570
3954.000000	5.418953
3952.000000	5.421145
3950.000000	5.422430
3948.000000	5.429901
3946.000000	5.441469
3944.000000	5.451342
3942.000000	5.460263
3940.000000	5.469605
3938.000000	5.479065
3936.000000	5.485472
3934.000000	5.487418
3932.000000	5.492345
3930.000000	5.502864
3928.000000	5.512593
3926.000000	5.520962
3924.000000	5.530698
3922.000000	5.537945
3920.000000	5.541418
3918.000000	5.549364
3916.000000	5.564642
3914.000000	5.579240
3912.000000	5.589644
3910.000000	5.596228
3908.000000	5.594221
3906.000000	5.585416
3904.000000	5.581692
3902.000000	5.589367
3900.000000	5.608295
3898.000000	5.634064
3896.000000	5.651099
3894.000000	5.650215
3892.000000	5.650499
3890.000000	5.660063
3888.000000	5.661638
3886.000000	5.664733
3884.000000	5.678193
3882.000000	5.689028
3880.000000	5.702946
3878.000000	5.717624
3876.000000	5.722650
3874.000000	5.720750
3872.000000	5.712508
3870.000000	5.715490
3868.000000	5.733040
3866.000000	5.745744
3864.000000	5.758475
3862.000000	5.775483
3860.000000	5.784757
3858.000000	5.762549
3856.000000	5.707455
3854.000000	5.687594
3852.000000	5.739379
3850.000000	5.805276
3848.000000	5.838513
3846.000000	5.843127
3844.000000	5.837400
3842.000000	5.825995
3840.000000	5.807313
3838.000000	5.808404
3836.000000	5.836885
3834.000000	5.862830
3832.000000	5.879613
3830.000000	5.893689
3828.000000	5.902939
3826.000000	5.904949
3824.000000	5.889986
3822.000000	5.878178
3820.000000	5.883800
3818.000000	5.883702
3816.000000	5.897215
3814.000000	5.934500
3812.000000	5.956234
3810.000000	5.946795
3808.000000	5.935005
3806.000000	5.939657
3804.000000	5.931326
3802.000000	5.925397
3800.000000	5.949569
3798.000000	5.974390
3796.000000	5.990055
3794.000000	6.003494
3792.000000	6.011990
3790.000000	6.017268
3788.000000	6.020346
3786.000000	6.022970
3784.000000	6.025822
3782.000000	6.024207
3780.000000	6.024380
3778.000000	6.035443
3776.000000	6.046119
3774.000000	6.046481
3772.000000	6.039552
3770.000000	6.037453
3768.000000	6.042536
3766.000000	6.051205
3764.000000	6.058978
3762.000000	6.056930
3760.000000	6.053097
3758.000000	6.056911
3756.000000	6.048316
3754.000000	6.011418
3752.000000	5.980203
3750.000000	5.989216
3748.000000	5.999387
3746.000000	5.984803
3744.000000	6.007456
3742.000000	6.061704
3740.000000	6.076966
3738.000000	6.057023
3736.000000	6.045450
3734.000000	6.053508
3732.000000	6.075285
3730.000000	6.097141
3728.000000	6.102043
3726.000000	6.101626
3724.000000	6.104497
3722.000000	6.109696
3720.000000	6.117711
3718.000000	6.121921
3716.000000	6.109899
3714.000000	6.081844
3712.000000	6.066940
3710.000000	6.079380
3708.000000	6.098011
3706.000000	6.101282
3704.000000	6.088110
3702.000000	6.077749
3700.000000	6.076033
3698.000000	6.070584
3696.000000	6.058891
3694.000000	6.036471
3692.000000	5.996807
3690.000000	5.961237
3688.000000	5.963730
3686.000000	5.985193
3684.000000	5.986215
3682.000000	5.965560
3680.000000	5.927043
3678.000000	5.871856
3676.000000	5.835402
3674.000000	5.824363
3672.000000	5.805285
3670.000000	5.796351
3668.000000	5.803908
3666.000000	5.800218
3664.000000	5.782523
3662.000000	5.758682
3660.000000	5.724580
3658.000000	5.686220
3656.000000	5.662859
3654.000000	5.636422
3652.000000	5.585337
3650.000000	5.546744
3648.000000	5.547052
3646.000000	5.557634
3644.000000	5.552984
3642.000000	5.537098
3640.000000	5.518976
3638.000000	5.500112
3636.000000	5.478704
3634.000000	5.453292
3632.000000	5.411948
3630.000000	5.373420
3628.000000	5.375306
3626.000000	5.391933
3624.000000	5.387219
3622.000000	5.361846
3620.000000	5.339387
3618.000000	5.333317
3616.000000	5.326796
3614.000000	5.313203
3612.000000	5.297754
3610.000000	5.284874
3608.000000	5.282244
3606.000000	5.283396
3604.000000	5.277446
3602.000000	5.267475
3600.000000	5.259003
3598.000000	5.249423
3596.000000	5.239950
3594.000000	5.233333
3592.000000	5.222919
3590.000000	5.206318
3588.000000	5.195909
3586.000000	5.197274
3584.000000	5.201274
3582.000000	5.200173
3580.000000	5.194890
3578.000000	5.190297
3576.000000	5.185789
3574.000000	5.181309
3572.000000	5.173602
3570.000000	5.157761
3568.000000	5.144903
3566.000000	5.145630
3564.000000	5.150772
3562.000000	5.151026
3560.000000	5.149506
3558.000000	5.148112
3556.000000	5.143934
3554.000000	5.138261
3552.000000	5.134562
3550.000000	5.132788
3548.000000	5.127743
3546.000000	5.121534
3544.000000	5.120050
3542.000000	5.120004
3540.000000	5.116923
3538.000000	5.112075
3536.000000	5.108388
3534.000000	5.104939
3532.000000	5.099630
3530.000000	5.094667
3528.000000	5.089928
3526.000000	5.085270
3524.000000	5.081572
3522.000000	5.077577
3520.000000	5.073236
3518.000000	5.068902
3516.000000	5.064410
3514.000000	5.059053
3512.000000	5.051979
3510.000000	5.045505
3508.000000	5.040341
3506.000000	5.033552
3504.000000	5.027050
3502.000000	5.023383
3500.000000	5.019309
3498.000000	5.014097
3496.000000	5.007852
3494.000000	4.999929
3492.000000	4.993065
3490.000000	4.989109
3488.000000	4.985438
3486.000000	4.978561
3484.000000	4.970625
3482.000000	4.965883
3480.000000	4.964908
3478.000000	4.963823
3476.000000	4.960490
3474.000000	4.956533
3472.000000	4.953927
3470.000000	4.953112
3468.000000	4.953007
3466.000000	4.951469
3464.000000	4.949742
3462.000000	4.949483
3460.000000	4.950371
3458.000000	4.951151
3456.000000	4.950926
3454.000000	4.949476
3452.000000	4.947117
3450.000000	4.945349
3448.000000	4.942769
3446.000000	4.939981
3444.000000	4.939112
3442.000000	4.940241
3440.000000	4.945571
3438.000000	4.952543
3436.000000	4.956416
3434.000000	4.959742
3432.000000	4.965824
3430.000000	4.972996
3428.000000	4.979510
3426.000000	4.985064
3424.000000	4.989401
3422.000000	4.994681
3420.000000	5.002019
3418.000000	5.008114
3416.000000	5.012080
3414.000000	5.015289
3412.000000	5.017243
3410.000000	5.019269
3408.000000	5.020983
3406.000000	5.024174
3404.000000	5.027722
3402.000000	5.028626
3400.000000	5.030290
3398.000000	5.034300
3396.000000	5.037601
3394.000000	5.039274
3392.000000	5.041780
3390.000000	5.045972
3388.000000	5.049800
3386.000000	5.052593
3384.000000	5.056743
3382.000000	5.060362
3380.000000	5.061833
3378.000000	5.063037
3376.000000	5.065696
3374.000000	5.069593
3372.000000	5.071680
3370.000000	5.071896
3368.000000	5.072616
3366.000000	5.074048
3364.000000	5.077202
3362.000000	5.080741
3360.000000	5.082835
3358.000000	5.082750
3356.000000	5.082303
3354.000000	5.084149
3352.000000	5.086716
3350.000000	5.088796
3348.000000	5.090903
3346.000000	5.092449
3344.000000	5.094520
3342.000000	5.097327
3340.000000	5.100402
3338.000000	5.103035
3336.000000	5.104815
3334.000000	5.106364
3332.000000	5.109347
3330.000000	5.111256
3328.000000	5.111773
3326.000000	5.113417
3324.000000	5.114243
3322.000000	5.114947
3320.000000	5.116780
3318.000000	5.119078
3316.000000	5.120852
3314.000000	5.121474
3312.000000	5.121182
3310.000000	5.120376
3308.000000	5.119932
3306.000000	5.121076
3304.000000	5.123219
3302.000000	5.125197
3300.000000	5.126786
3298.000000	5.128211
3296.000000	5.129709
3294.000000	5.131406
3292.000000	5.132035
3290.000000	5.132681
3288.000000	5.135025
3286.000000	5.137976
3284.000000	5.140320
3282.000000	5.142337
3280.000000	5.143568
3278.000000	5.143269
3276.000000	5.144063
3274.000000	5.146371
3272.000000	5.147906
3270.000000	5.149643
3268.000000	5.152183
3266.000000	5.154567
3264.000000	5.155602
3262.000000	5.156030
3260.000000	5.158204
3258.000000	5.161401
3256.000000	5.162773
3254.000000	5.164036
3252.000000	5.168449
3250.000000	5.172259
3248.000000	5.173410
3246.000000	5.174244
3244.000000	5.177337
3242.000000	5.180734
3240.000000	5.181348
3238.000000	5.182793
3236.000000	5.185533
3234.000000	5.188033
3232.000000	5.191059
3230.000000	5.193964
3228.000000	5.195705
3226.000000	5.197809
3224.000000	5.200816
3222.000000	5.204222
3220.000000	5.207571
3218.000000	5.210722
3216.000000	5.212244
3214.000000	5.212762
3212.000000	5.214501
3210.000000	5.217891
3208.000000	5.222141
3206.000000	5.225586
3204.000000	5.229015
3202.000000	5.232318
3200.000000	5.235475
3198.000000	5.240568
3196.000000	5.245996
3194.000000	5.249542
3192.000000	5.253959
3190.000000	5.259116
3188.000000	5.262255
3186.000000	5.267064
3184.000000	5.273521
3182.000000	5.277261
3180.000000	5.279638
3178.000000	5.283984
3176.000000	5.289104
3174.000000	5.293971
3172.000000	5.297593
3170.000000	5.298472
3168.000000	5.299598
3166.000000	5.305014
3164.000000	5.312511
3162.000000	5.317287
3160.000000	5.320309
3158.000000	5.324339
3156.000000	5.329018
3154.000000	5.333729
3152.000000	5.337630
3150.000000	5.341300
3148.000000	5.346552
3146.000000	5.352545
3144.000000	5.357217
3142.000000	5.360747
3140.000000	5.366866
3138.000000	5.373717
3136.000000	5.378170
3134.000000	5.381965
3132.000000	5.383819
3130.000000	5.385768
3128.000000	5.388804
3126.000000	5.392261
3124.000000	5.396822
3122.000000	5.400750
3120.000000	5.402898
3118.000000	5.403466
3116.000000	5.406448
3114.000000	5.411831
3112.000000	5.414758
3110.000000	5.417659
3108.000000	5.422063
3106.000000	5.426172
3104.000000	5.429608
3102.000000	5.433158
3100.000000	5.437129
3098.000000	5.440333
3096.000000	5.443228
3094.000000	5.446579
3092.000000	5.451340
3090.000000	5.456428
3088.000000	5.459208
3086.000000	5.461324
3084.000000	5.465464
3082.000000	5.469548
3080.000000	5.472068
3078.000000	5.472789
3076.000000	5.473659
3074.000000	5.476428
3072.000000	5.478576
3070.000000	5.478764
3068.000000	5.479923
3066.000000	5.483386
3064.000000	5.486689
3062.000000	5.490991
3060.000000	5.495539
3058.000000	5.498223
3056.000000	5.501937
3054.000000	5.506307
3052.000000	5.508300
3050.000000	5.510102
3048.000000	5.513831
3046.000000	5.517360
3044.000000	5.520863
3042.000000	5.523243
3040.000000	5.524779
3038.000000	5.527544
3036.000000	5.529390
3034.000000	5.531340
3032.000000	5.532419
3030.000000	5.530441
3028.000000	5.526227
3026.000000	5.521309
3024.000000	5.515096
3022.000000	5.508223
3020.000000	5.505251
3018.000000	5.510142
3016.000000	5.521887
3014.000000	5.538557
3012.000000	5.558171
3010.000000	5.575903
3008.000000	5.590112
3006.000000	5.601276
3004.000000	5.609484
3002.000000	5.616638
3000.000000	5.621684
2998.000000	5.625504
2996.000000	5.628984
2994.000000	5.633096
2992.000000	5.637053
2990.000000	5.638486
2988.000000	5.639258
2986.000000	5.637567
2984.000000	5.636412
2982.000000	5.633999
2980.000000	5.627175
2978.000000	5.618766
2976.000000	5.607431
2974.000000	5.590161
2972.000000	5.566712
2970.000000	5.537740
2968.000000	5.507529
2966.000000	5.480485
2964.000000	5.463532
2962.000000	5.460693
2960.000000	5.468711
2958.000000	5.483554
2956.000000	5.501559
2954.000000	5.517988
2952.000000	5.531557
2950.000000	5.539292
2948.000000	5.541291
2946.000000	5.535852
2944.000000	5.520233
2942.000000	5.497868
2940.000000	5.470271
2938.000000	5.442674
2936.000000	5.419329
2934.000000	5.397964
2932.000000	5.377502
2930.000000	5.357712
2928.000000	5.341687
2926.000000	5.338984
2924.000000	5.355286
2922.000000	5.390516
2920.000000	5.439630
2918.000000	5.496439
2916.000000	5.554023
2914.000000	5.608144
2912.000000	5.653718
2910.000000	5.690561
2908.000000	5.721169
2906.000000	5.746793
2904.000000	5.770662
2902.000000	5.792104
2900.000000	5.812010
2898.000000	5.830912
2896.000000	5.849963
2894.000000	5.868877
2892.000000	5.885857
2890.000000	5.903092
2888.000000	5.919565
2886.000000	5.932521
2884.000000	5.941438
2882.000000	5.946762
2880.000000	5.950489
2878.000000	5.951223
2876.000000	5.947531
2874.000000	5.939844
2872.000000	5.928510
2870.000000	5.909143
2868.000000	5.881293
2866.000000	5.848771
2864.000000	5.818673
2862.000000	5.804060
2860.000000	5.809417
2858.000000	5.826336
2856.000000	5.848734
2854.000000	5.875514
2852.000000	5.907989
2850.000000	5.945784
2848.000000	5.989397
2846.000000	6.031975
2844.000000	6.068651
2842.000000	6.099941
2840.000000	6.124037
2838.000000	6.142459
2836.000000	6.160582
2834.000000	6.176857
2832.000000	6.188037
2830.000000	6.197709
2828.000000	6.209454
2826.000000	6.220399
2824.000000	6.229700
2822.000000	6.240591
2820.000000	6.249789
2818.000000	6.256557
2816.000000	6.263648
2814.000000	6.271334
2812.000000	6.279746
2810.000000	6.286426
2808.000000	6.291028
2806.000000	6.296167
2804.000000	6.301255
2802.000000	6.307008
2800.000000	6.313362
2798.000000	6.318488
2796.000000	6.323796
2794.000000	6.327710
2792.000000	6.332113
2790.000000	6.338941
2788.000000	6.347279
2786.000000	6.354965
2784.000000	6.361989
2782.000000	6.369526
2780.000000	6.377329
2778.000000	6.382303
2776.000000	6.385959
2774.000000	6.392140
2772.000000	6.398071
2770.000000	6.402300
2768.000000	6.407195
2766.000000	6.412141
2764.000000	6.415498
2762.000000	6.420637
2760.000000	6.426384
2758.000000	6.430056
2756.000000	6.433433
2754.000000	6.439404
2752.000000	6.444607
2750.000000	6.447414
2748.000000	6.449998
2746.000000	6.453444
2744.000000	6.457967
2742.000000	6.461238
2740.000000	6.463239
2738.000000	6.466424
2736.000000	6.469359
2734.000000	6.471704
2732.000000	6.474560
2730.000000	6.477204
2728.000000	6.477159
2726.000000	6.477470
2724.000000	6.481914
2722.000000	6.487197
2720.000000	6.490143
2718.000000	6.491388
2716.000000	6.493708
2714.000000	6.494267
2712.000000	6.494773
2710.000000	6.496431
2708.000000	6.498263
2706.000000	6.499737
2704.000000	6.500322
2702.000000	6.501558
2700.000000	6.503801
2698.000000	6.507655
2696.000000	6.511524
2694.000000	6.513973
2692.000000	6.516739
2690.000000	6.519547
2688.000000	6.521742
2686.000000	6.523222
2684.000000	6.523543
2682.000000	6.523434
2680.000000	6.523407
2678.000000	6.524872
2676.000000	6.526062
2674.000000	6.526491
2672.000000	6.526270
2670.000000	6.526066
2668.000000	6.526735
2666.000000	6.526683
2664.000000	6.526500
2662.000000	6.526954
2660.000000	6.528773
2658.000000	6.528478
2656.000000	6.528147
2654.000000	6.529171
2652.000000	6.528813
2650.000000	6.527644
2648.000000	6.527735
2646.000000	6.528329
2644.000000	6.527963
2642.000000	6.527745
2640.000000	6.528464
2638.000000	6.528324
2636.000000	6.527967
2634.000000	6.527574
2632.000000	6.527296
2630.000000	6.526881
2628.000000	6.524897
2626.000000	6.522223
2624.000000	6.520011
2622.000000	6.520237
2620.000000	6.520970
2618.000000	6.520198
2616.000000	6.519664
2614.000000	6.517630
2612.000000	6.513992
2610.000000	6.510512
2608.000000	6.509318
2606.000000	6.508847
2604.000000	6.505712
2602.000000	6.503101
2600.000000	6.500041
2598.000000	6.496311
2596.000000	6.493286
2594.000000	6.491716
2592.000000	6.491360
2590.000000	6.489648
2588.000000	6.488862
2586.000000	6.487852
2584.000000	6.486514
2582.000000	6.485667
2580.000000	6.485344
2578.000000	6.485088
2576.000000	6.484623
2574.000000	6.485060
2572.000000	6.485039
2570.000000	6.484497
2568.000000	6.482935
2566.000000	6.479363
2564.000000	6.477307
2562.000000	6.475905
2560.000000	6.473523
2558.000000	6.470296
2556.000000	6.466056
2554.000000	6.461555
2552.000000	6.458968
2550.000000	6.456887
2548.000000	6.454025
2546.000000	6.450388
2544.000000	6.446610
2542.000000	6.443016
2540.000000	6.439694
2538.000000	6.434487
2536.000000	6.430911
2534.000000	6.429829
2532.000000	6.426763
2530.000000	6.422252
2528.000000	6.417029
2526.000000	6.413691
2524.000000	6.413140
2522.000000	6.409447
2520.000000	6.403044
2518.000000	6.398080
2516.000000	6.394751
2514.000000	6.391785
2512.000000	6.388416
2510.000000	6.384372
2508.000000	6.380272
2506.000000	6.377376
2504.000000	6.373375
2502.000000	6.369513
2500.000000	6.368092
2498.000000	6.365411
2496.000000	6.361289
2494.000000	6.358419
2492.000000	6.355389
2490.000000	6.353333
2488.000000	6.351271
2486.000000	6.348223
2484.000000	6.346460
2482.000000	6.344768
2480.000000	6.342085
2478.000000	6.338488
2476.000000	6.336920
2474.000000	6.335963
2472.000000	6.334304
2470.000000	6.332484
2468.000000	6.330483
2466.000000	6.328972
2464.000000	6.326560
2462.000000	6.324147
2460.000000	6.322681
2458.000000	6.321341
2456.000000	6.321043
2454.000000	6.320461
2452.000000	6.319325
2450.000000	6.319336
2448.000000	6.320169
2446.000000	6.320403
2444.000000	6.320663
2442.000000	6.321834
2440.000000	6.323159
2438.000000	6.323582
2436.000000	6.323663
2434.000000	6.324031
2432.000000	6.325473
2430.000000	6.326159
2428.000000	6.328039
2426.000000	6.331505
2424.000000	6.334055
2422.000000	6.337701
2420.000000	6.341312
2418.000000	6.341959
2416.000000	6.343490
2414.000000	6.347813
2412.000000	6.352212
2410.000000	6.354266
2408.000000	6.356982
2406.000000	6.361533
2404.000000	6.364395
2402.000000	6.364900
2400.000000	6.366517
2398.000000	6.368779
2396.000000	6.370298
2394.000000	6.372112
2392.000000	6.374205
2390.000000	6.374745
2388.000000	6.375406
2386.000000	6.376552
2384.000000	6.376054
2382.000000	6.373341
2380.000000	6.367673
2378.000000	6.359171
2376.000000	6.348975
2374.000000	6.336790
2372.000000	6.320590
2370.000000	6.302721
2368.000000	6.287769
2366.000000	6.276701
2364.000000	6.268321
2362.000000	6.262831
2360.000000	6.264716
2358.000000	6.273954
2356.000000	6.288356
2354.000000	6.309204
2352.000000	6.330361
2350.000000	6.341914
2348.000000	6.333606
2346.000000	6.308581
2344.000000	6.280558
2342.000000	6.256394
2340.000000	6.243449
2338.000000	6.250271
2336.000000	6.263455
2334.000000	6.268619
2332.000000	6.272574
2330.000000	6.278535
2328.000000	6.284020
2326.000000	6.288644
2324.000000	6.294735
2322.000000	6.300497
2320.000000	6.304502
2318.000000	6.308826
2316.000000	6.313058
2314.000000	6.316864
2312.000000	6.319444
2310.000000	6.320679
2308.000000	6.321535
2306.000000	6.322188
2304.000000	6.322275
2302.000000	6.320526
2300.000000	6.319697
2298.000000	6.318671
2296.000000	6.317038
2294.000000	6.316311
2292.000000	6.316225
2290.000000	6.314410
2288.000000	6.312717
2286.000000	6.312758
2284.000000	6.313061
2282.000000	6.311039
2280.000000	6.306391
2278.000000	6.302785
2276.000000	6.301304
2274.000000	6.300318
2272.000000	6.297865
2270.000000	6.294559
2268.000000	6.292189
2266.000000	6.289558
2264.000000	6.286588
2262.000000	6.285402
2260.000000	6.285777
2258.000000	6.283497
2256.000000	6.279798
2254.000000	6.277967
2252.000000	6.278188
2250.000000	6.277760
2248.000000	6.275477
2246.000000	6.273541
2244.000000	6.274213
2242.000000	6.274059
2240.000000	6.271050
2238.000000	6.270348
2236.000000	6.272516
2234.000000	6.272937
2232.000000	6.273152
2230.000000	6.273169
2228.000000	6.271672
2226.000000	6.271196
2224.000000	6.271398
2222.000000	6.270991
2220.000000	6.269541
2218.000000	6.269159
2216.000000	6.270631
2214.000000	6.270296
2212.000000	6.268236
2210.000000	6.266135
2208.000000	6.265549
2206.000000	6.266703
2204.000000	6.267910
2202.000000	6.268212
2200.000000	6.268677
2198.000000	6.268497
2196.000000	6.267766
2194.000000	6.268529
2192.000000	6.270516
2190.000000	6.271154
2188.000000	6.272084
2186.000000	6.272439
2184.000000	6.272448
2182.000000	6.273482
2180.000000	6.275114
2178.000000	6.275887
2176.000000	6.275556
2174.000000	6.274961
2172.000000	6.273901
2170.000000	6.273194
2168.000000	6.274685
2166.000000	6.277783
2164.000000	6.279894
2162.000000	6.281105
2160.000000	6.283288
2158.000000	6.285100
2156.000000	6.286070
2154.000000	6.286086
2152.000000	6.287898
2150.000000	6.289563
2148.000000	6.292274
2146.000000	6.295118
2144.000000	6.297031
2142.000000	6.298162
2140.000000	6.300886
2138.000000	6.305727
2136.000000	6.308841
2134.000000	6.309770
2132.000000	6.310182
2130.000000	6.311305
2128.000000	6.313653
2126.000000	6.317999
2124.000000	6.322876
2122.000000	6.326474
2120.000000	6.329050
2118.000000	6.333239
2116.000000	6.337322
2114.000000	6.340843
2112.000000	6.344387
2110.000000	6.346412
2108.000000	6.351335
2106.000000	6.357581
2104.000000	6.362790
2102.000000	6.366265
2100.000000	6.370298
2098.000000	6.375798
2096.000000	6.381412
2094.000000	6.385896
2092.000000	6.390555
2090.000000	6.396053
2088.000000	6.402389
2086.000000	6.408198
2084.000000	6.413315
2082.000000	6.418390
2080.000000	6.423943
2078.000000	6.429230
2076.000000	6.435470
2074.000000	6.440903
2072.000000	6.446906
2070.000000	6.452979
2068.000000	6.458516
2066.000000	6.463299
2064.000000	6.469383
2062.000000	6.476820
2060.000000	6.483781
2058.000000	6.489462
2056.000000	6.496486
2054.000000	6.501806
2052.000000	6.505692
2050.000000	6.512105
2048.000000	6.519987
2046.000000	6.524850
2044.000000	6.529082
2042.000000	6.533396
2040.000000	6.540006
2038.000000	6.548590
2036.000000	6.554318
2034.000000	6.558312
2032.000000	6.564007
2030.000000	6.568092
2028.000000	6.571903
2026.000000	6.577324
2024.000000	6.584381
2022.000000	6.589624
2020.000000	6.592289
2018.000000	6.595980
2016.000000	6.603319
2014.000000	6.610132
2012.000000	6.614652
2010.000000	6.618470
2008.000000	6.622574
2006.000000	6.626860
2004.000000	6.631332
2002.000000	6.635309
2000.000000	6.638225
1998.000000	6.640148
1996.000000	6.643690
1994.000000	6.644511
1992.000000	6.645884
1990.000000	6.651012
1988.000000	6.654605
1986.000000	6.657315
1984.000000	6.659760
1982.000000	6.661712
1980.000000	6.663484
1978.000000	6.665343
1976.000000	6.667323
1974.000000	6.668528
1972.000000	6.668720
1970.000000	6.666652
1968.000000	6.663605
1966.000000	6.664013
1964.000000	6.665907
1962.000000	6.663701
1960.000000	6.656886
1958.000000	6.656852
1956.000000	6.663505
1954.000000	6.666501
1952.000000	6.667003
1950.000000	6.665388
1948.000000	6.664544
1946.000000	6.662446
1944.000000	6.656442
1942.000000	6.655735
1940.000000	6.659807
1938.000000	6.659889
1936.000000	6.659163
1934.000000	6.656815
1932.000000	6.654649
1930.000000	6.653452
1928.000000	6.651810
1926.000000	6.647846
1924.000000	6.641097
1922.000000	6.636894
1920.000000	6.629408
1918.000000	6.623391
1916.000000	6.630152
1914.000000	6.631958
1912.000000	6.626474
1910.000000	6.619928
1908.000000	6.615899
1906.000000	6.613293
1904.000000	6.610678
1902.000000	6.606833
1900.000000	6.603683
1898.000000	6.597472
1896.000000	6.591271
1894.000000	6.589176
1892.000000	6.584785
1890.000000	6.576806
1888.000000	6.577654
1886.000000	6.579121
1884.000000	6.576708
1882.000000	6.572788
1880.000000	6.569097
1878.000000	6.565599
1876.000000	6.563588
1874.000000	6.561603
1872.000000	6.550938
1870.000000	6.531337
1868.000000	6.529613
1866.000000	6.540691
1864.000000	6.543433
1862.000000	6.539030
1860.000000	6.534278
1858.000000	6.528738
1856.000000	6.525132
1854.000000	6.520912
1852.000000	6.515223
1850.000000	6.507984
1848.000000	6.496596
1846.000000	6.469550
1844.000000	6.456355
1842.000000	6.472533
1840.000000	6.478511
1838.000000	6.474344
1836.000000	6.469252
1834.000000	6.458836
1832.000000	6.438014
1830.000000	6.422208
1828.000000	6.421963
1826.000000	6.414818
1824.000000	6.412871
1822.000000	6.412260
1820.000000	6.402820
1818.000000	6.391072
1816.000000	6.382924
1814.000000	6.373537
1812.000000	6.359589
1810.000000	6.349020
1808.000000	6.343526
1806.000000	6.335321
1804.000000	6.319245
1802.000000	6.297231
1800.000000	6.284054
1798.000000	6.278988
1796.000000	6.264857
1794.000000	6.227763
1792.000000	6.210073
1790.000000	6.221641
1788.000000	6.218955
1786.000000	6.199575
1784.000000	6.187733
1782.000000	6.175405
1780.000000	6.162760
1778.000000	6.152700
1776.000000	6.127473
1774.000000	6.079078
1772.000000	6.058576
1770.000000	6.070263
1768.000000	6.072734
1766.000000	6.075219
1764.000000	6.056468
1762.000000	6.031813
1760.000000	6.026513
1758.000000	6.014023
1756.000000	5.999348
1754.000000	5.975213
1752.000000	5.934043
1750.000000	5.919822
1748.000000	5.921278
1746.000000	5.913559
1744.000000	5.897644
1742.000000	5.872736
1740.000000	5.851492
1738.000000	5.842512
1736.000000	5.788168
1734.000000	5.748714
1732.000000	5.787737
1730.000000	5.815099
1728.000000	5.818340
1726.000000	5.813540
1724.000000	5.804335
1722.000000	5.789272
1720.000000	5.738791
1718.000000	5.682161
1716.000000	5.695786
1714.000000	5.732367
1712.000000	5.747884
1710.000000	5.741351
1708.000000	5.722117
1706.000000	5.699638
1704.000000	5.683814
1702.000000	5.623301
1700.000000	5.593521
1698.000000	5.604566
1696.000000	5.600947
1694.000000	5.653857
1692.000000	5.686217
1690.000000	5.678888
1688.000000	5.649187
1686.000000	5.572985
1684.000000	5.561755
1682.000000	5.626502
1680.000000	5.651881
1678.000000	5.638041
1676.000000	5.608929
1674.000000	5.613049
1672.000000	5.608203
1670.000000	5.588224
1668.000000	5.601217
1666.000000	5.610757
1664.000000	5.591661
1662.000000	5.585832
1660.000000	5.594770
1658.000000	5.585544
1656.000000	5.515317
1654.000000	5.408946
1652.000000	5.435056
1650.000000	5.512180
1648.000000	5.496258
1646.000000	5.487182
1644.000000	5.520293
1642.000000	5.531352
1640.000000	5.515480
1638.000000	5.470206
1636.000000	5.426943
1634.000000	5.453286
1632.000000	5.480710
1630.000000	5.466549
1628.000000	5.444042
1626.000000	5.419741
1624.000000	5.385559
1622.000000	5.367721
1620.000000	5.341949
1618.000000	5.280346
1616.000000	5.259619
1614.000000	5.269552
1612.000000	5.241498
1610.000000	5.205367
1608.000000	5.187278
1606.000000	5.191089
1604.000000	5.204053
1602.000000	5.218379
1600.000000	5.231106
1598.000000	5.242788
1596.000000	5.251893
1594.000000	5.261269
1592.000000	5.265612
1590.000000	5.264614
1588.000000	5.261191
1586.000000	5.256907
1584.000000	5.253001
1582.000000	5.249769
1580.000000	5.238347
1578.000000	5.191212
1576.000000	5.168385
1574.000000	5.210255
1572.000000	5.213998
1570.000000	5.191469
1568.000000	5.194700
1566.000000	5.193546
1564.000000	5.173907
1562.000000	5.106223
1560.000000	5.012830
1558.000000	5.028349
1556.000000	5.094325
1554.000000	5.130273
1552.000000	5.159718
1550.000000	5.176573
1548.000000	5.186274
1546.000000	5.179136
1544.000000	5.156856
1542.000000	5.117921
1540.000000	5.107645
1538.000000	5.179361
1536.000000	5.232843
1534.000000	5.232612
1532.000000	5.253106
1530.000000	5.266080
1528.000000	5.255038
1526.000000	5.241419
1524.000000	5.219854
1522.000000	5.185549
1520.000000	5.195068
1518.000000	5.208853
1516.000000	5.207428
1514.000000	5.204904
1512.000000	5.191603
1510.000000	5.156072
1508.000000	5.080167
1506.000000	5.049545
1504.000000	5.067800
1502.000000	5.008331
1500.000000	4.852435
1498.000000	4.655618
1496.000000	4.519366
1494.000000	4.510760
1492.000000	4.580886
1490.000000	4.687603
1488.000000	4.802953
1486.000000	4.895507
1484.000000	4.955019
1482.000000	4.982830
1480.000000	4.994819
1478.000000	4.989103
1476.000000	4.967257
1474.000000	4.934805
1472.000000	4.926752
1470.000000	4.941633
1468.000000	4.930740
1466.000000	4.896760
1464.000000	4.876606
1462.000000	4.858689
1460.000000	4.794582
1458.000000	4.694106
1456.000000	4.642975
1454.000000	4.627749
1452.000000	4.600937
1450.000000	4.610588
1448.000000	4.662603
1446.000000	4.719817
1444.000000	4.746210
1442.000000	4.752173
1440.000000	4.744524
1438.000000	4.718707
1436.000000	4.720619
1434.000000	4.750387
1432.000000	4.755969
1430.000000	4.752797
1428.000000	4.755844
1426.000000	4.755678
1424.000000	4.750155
1422.000000	4.735422
1420.000000	4.704166
1418.000000	4.705372
1416.000000	4.716499
1414.000000	4.709055
1412.000000	4.688081
1410.000000	4.656926
1408.000000	4.612283
1406.000000	4.564827
1404.000000	4.539991
1402.000000	4.543767
1400.000000	4.558674
1398.000000	4.584488
1396.000000	4.605326
1394.000000	4.627208
1392.000000	4.647763
1390.000000	4.645687
1388.000000	4.626457
1386.000000	4.612134
1384.000000	4.608685
1382.000000	4.617395
1380.000000	4.624717
1378.000000	4.620814
1376.000000	4.609675
1374.000000	4.602222
1372.000000	4.602730
1370.000000	4.598323
1368.000000	4.589369
1366.000000	4.580205
1364.000000	4.568356
1362.000000	4.561321
1360.000000	4.556277
1358.000000	4.547474
1356.000000	4.537258
1354.000000	4.525545
1352.000000	4.512846
1350.000000	4.500106
1348.000000	4.487281
1346.000000	4.474039
1344.000000	4.460415
1342.000000	4.444505
1340.000000	4.430281
1338.000000	4.424082
1336.000000	4.420708
1334.000000	4.414231
1332.000000	4.405026
1330.000000	4.394437
1328.000000	4.380460
1326.000000	4.367016
1324.000000	4.352786
1322.000000	4.336401
1320.000000	4.318136
1318.000000	4.301275
1316.000000	4.284455
1314.000000	4.266366
1312.000000	4.247861
1310.000000	4.229830
1308.000000	4.210480
1306.000000	4.190311
1304.000000	4.169483
1302.000000	4.148720
1300.000000	4.129239
1298.000000	4.109664
1296.000000	4.089001
1294.000000	4.067708
1292.000000	4.043242
1290.000000	4.018760
1288.000000	3.995108
1286.000000	3.970940
1284.000000	3.946675
1282.000000	3.921932
1280.000000	3.894648
1278.000000	3.865799
1276.000000	3.833130
1274.000000	3.795138
1272.000000	3.750583
1270.000000	3.694499
1268.000000	3.622154
1266.000000	3.536728
1264.000000	3.449883
1262.000000	3.381089
1260.000000	3.349299
1258.000000	3.355147
1256.000000	3.378714
1254.000000	3.398085
1252.000000	3.401979
1250.000000	3.388620
1248.000000	3.364819
1246.000000	3.337653
1244.000000	3.309511
1242.000000	3.279999
1240.000000	3.250314
1238.000000	3.222048
1236.000000	3.194223
1234.000000	3.167981
1232.000000	3.142086
1230.000000	3.115636
1228.000000	3.088629
1226.000000	3.061505
1224.000000	3.034230
1222.000000	3.006530
1220.000000	2.977355
1218.000000	2.947400
1216.000000	2.916686
1214.000000	2.886976
1212.000000	2.858353
1210.000000	2.831947
1208.000000	2.807596
1206.000000	2.783334
1204.000000	2.757817
1202.000000	2.733614
1200.000000	2.711559
1198.000000	2.689556
1196.000000	2.666843
1194.000000	2.642079
1192.000000	2.615765
1190.000000	2.589866
1188.000000	2.563445
1186.000000	2.535464
1184.000000	2.499993
1182.000000	2.454786
1180.000000	2.421142
1178.000000	2.407498
1176.000000	2.393395
1174.000000	2.370780
1172.000000	2.343760
1170.000000	2.316845
1168.000000	2.289525
1166.000000	2.260196
1164.000000	2.230030
1162.000000	2.201327
1160.000000	2.174060
1158.000000	2.148798
1156.000000	2.124438
1154.000000	2.100190
1152.000000	2.074413
1150.000000	2.048724
1148.000000	2.024143
1146.000000	1.997997
1144.000000	1.972006
1142.000000	1.950285
1140.000000	1.931357
1138.000000	1.912384
1136.000000	1.890550
1134.000000	1.868529
1132.000000	1.846349
1130.000000	1.819809
1128.000000	1.792323
1126.000000	1.767488
1124.000000	1.742350
1122.000000	1.716524
1120.000000	1.690270
1118.000000	1.663082
1116.000000	1.633777
1114.000000	1.605750
1112.000000	1.577775
1110.000000	1.548639
1108.000000	1.520957
1106.000000	1.493147
1104.000000	1.465961
1102.000000	1.440993
1100.000000	1.416207
1098.000000	1.392816
1096.000000	1.369569
1094.000000	1.345379
1092.000000	1.322696
1090.000000	1.303670
1088.000000	1.285547
1086.000000	1.266067
1084.000000	1.246279
1082.000000	1.227189
1080.000000	1.207635
1078.000000	1.189924
1076.000000	1.173497
1074.000000	1.159776
1072.000000	1.148966
1070.000000	1.136713
1068.000000	1.122644
1066.000000	1.109719
1064.000000	1.097053
1062.000000	1.084354
1060.000000	1.070201
1058.000000	1.054193
1056.000000	1.033153
1054.000000	1.003559
1052.000000	0.973957
1050.000000	0.957245
1048.000000	0.956459
1046.000000	0.962081
1044.000000	0.963837
1042.000000	0.957556
1040.000000	0.944945
1038.000000	0.933827
1036.000000	0.922497
1034.000000	0.909738
1032.000000	0.894140
1030.000000	0.877428
1028.000000	0.861067
1026.000000	0.844910
1024.000000	0.829384
1022.000000	0.815043
1020.000000	0.800586
1018.000000	0.787026
1016.000000	0.774003
1014.000000	0.763853
1012.000000	0.754546
1010.000000	0.743689
1008.000000	0.731344
1006.000000	0.721654
1004.000000	0.711093
1002.000000	0.697278
1000.000000	0.680661
