PE IR       SUBTECH     SPECTRUM    ASCII       PEDS        4.00        
   -1
TE109A_026_100K_SB.ASC
20/04/21
13:20:10.00
20/04/21
13:20:10.00
Administrator
TE109A, Tuesday, April 21 2020, 026.
1000.000000
#HDR
-1
-1
#GR
cm-1
EGY
1.0
0.0
6000.000000
-2.000000
2501
8
6.640382
0.691301
#DATA
6000.000000	1.068679
5998.000000	1.069537
5996.000000	1.071595
5994.000000	1.075379
5992.000000	1.078244
5990.000000	1.078575
5988.000000	1.077856
5986.000000	1.079353
5984.000000	1.083257
5982.000000	1.086717
5980.000000	1.089614
5978.000000	1.092583
5976.000000	1.095023
5974.000000	1.097241
5972.000000	1.100069
5970.000000	1.102311
5968.000000	1.104017
5966.000000	1.106257
5964.000000	1.108430
5962.000000	1.110476
5960.000000	1.112545
5958.000000	1.115813
5956.000000	1.120051
5954.000000	1.122693
5952.000000	1.123900
5950.000000	1.124959
5948.000000	1.126940
5946.000000	1.129055
5944.000000	1.131525
5942.000000	1.134022
5940.000000	1.135452
5938.000000	1.136773
5936.000000	1.138920
5934.000000	1.142099
5932.000000	1.144402
5930.000000	1.145705
5928.000000	1.148578
5926.000000	1.151480
5924.000000	1.154015
5922.000000	1.154851
5920.000000	1.157304
5918.000000	1.161295
5916.000000	1.163692
5914.000000	1.166311
5912.000000	1.169831
5910.000000	1.173093
5908.000000	1.175482
5906.000000	1.177150
5904.000000	1.179352
5902.000000	1.181977
5900.000000	1.183861
5898.000000	1.185369
5896.000000	1.187967
5894.000000	1.188793
5892.000000	1.190118
5890.000000	1.194248
5888.000000	1.198221
5886.000000	1.200204
5884.000000	1.199779
5882.000000	1.200973
5880.000000	1.204624
5878.000000	1.209085
5876.000000	1.212894
5874.000000	1.216017
5872.000000	1.217859
5870.000000	1.220015
5868.000000	1.223647
5866.000000	1.227590
5864.000000	1.229220
5862.000000	1.230231
5860.000000	1.232215
5858.000000	1.235114
5856.000000	1.236519
5854.000000	1.237761
5852.000000	1.240331
5850.000000	1.244192
5848.000000	1.247689
5846.000000	1.249607
5844.000000	1.252599
5842.000000	1.255030
5840.000000	1.256960
5838.000000	1.258021
5836.000000	1.260371
5834.000000	1.264899
5832.000000	1.268167
5830.000000	1.269932
5828.000000	1.272064
5826.000000	1.274437
5824.000000	1.277082
5822.000000	1.279740
5820.000000	1.284004
5818.000000	1.289646
5816.000000	1.293130
5814.000000	1.294835
5812.000000	1.295818
5810.000000	1.297671
5808.000000	1.300629
5806.000000	1.303631
5804.000000	1.306266
5802.000000	1.307649
5800.000000	1.309436
5798.000000	1.312430
5796.000000	1.316365
5794.000000	1.320030
5792.000000	1.322449
5790.000000	1.324754
5788.000000	1.327105
5786.000000	1.328972
5784.000000	1.330622
5782.000000	1.332439
5780.000000	1.334373
5778.000000	1.337148
5776.000000	1.340217
5774.000000	1.344500
5772.000000	1.347760
5770.000000	1.351804
5768.000000	1.355503
5766.000000	1.358519
5764.000000	1.360822
5762.000000	1.361609
5760.000000	1.363002
5758.000000	1.365329
5756.000000	1.369356
5754.000000	1.374828
5752.000000	1.377704
5750.000000	1.379066
5748.000000	1.379990
5746.000000	1.382546
5744.000000	1.385770
5742.000000	1.388555
5740.000000	1.391280
5738.000000	1.394553
5736.000000	1.397108
5734.000000	1.399287
5732.000000	1.401826
5730.000000	1.405665
5728.000000	1.410051
5726.000000	1.413422
5724.000000	1.415053
5722.000000	1.417431
5720.000000	1.420600
5718.000000	1.423840
5716.000000	1.425531
5714.000000	1.427559
5712.000000	1.430830
5710.000000	1.434882
5708.000000	1.437742
5706.000000	1.439292
5704.000000	1.441000
5702.000000	1.443791
5700.000000	1.447210
5698.000000	1.451692
5696.000000	1.454747
5694.000000	1.457792
5692.000000	1.461246
5690.000000	1.463742
5688.000000	1.466669
5686.000000	1.469245
5684.000000	1.472534
5682.000000	1.475815
5680.000000	1.477751
5678.000000	1.480933
5676.000000	1.484219
5674.000000	1.486994
5672.000000	1.488502
5670.000000	1.490796
5668.000000	1.494907
5666.000000	1.499200
5664.000000	1.502125
5662.000000	1.505011
5660.000000	1.507997
5658.000000	1.509754
5656.000000	1.511677
5654.000000	1.514007
5652.000000	1.517681
5650.000000	1.520736
5648.000000	1.523479
5646.000000	1.527525
5644.000000	1.531445
5642.000000	1.535619
5640.000000	1.539376
5638.000000	1.541799
5636.000000	1.544395
5634.000000	1.546103
5632.000000	1.549765
5630.000000	1.553534
5628.000000	1.556893
5626.000000	1.560931
5624.000000	1.564928
5622.000000	1.567649
5620.000000	1.568651
5618.000000	1.571197
5616.000000	1.574845
5614.000000	1.578031
5612.000000	1.580569
5610.000000	1.583723
5608.000000	1.586875
5606.000000	1.588701
5604.000000	1.591430
5602.000000	1.595318
5600.000000	1.598606
5598.000000	1.601901
5596.000000	1.606893
5594.000000	1.610874
5592.000000	1.612820
5590.000000	1.613792
5588.000000	1.615040
5586.000000	1.617702
5584.000000	1.620601
5582.000000	1.624029
5580.000000	1.627692
5578.000000	1.630640
5576.000000	1.634223
5574.000000	1.638865
5572.000000	1.643557
5570.000000	1.647601
5568.000000	1.649670
5566.000000	1.652259
5564.000000	1.655320
5562.000000	1.658068
5560.000000	1.660443
5558.000000	1.663283
5556.000000	1.666358
5554.000000	1.669353
5552.000000	1.672864
5550.000000	1.677369
5548.000000	1.682267
5546.000000	1.686396
5544.000000	1.689087
5542.000000	1.690955
5540.000000	1.692727
5538.000000	1.695669
5536.000000	1.698347
5534.000000	1.701273
5532.000000	1.704406
5530.000000	1.708137
5528.000000	1.712173
5526.000000	1.716142
5524.000000	1.720117
5522.000000	1.724366
5520.000000	1.728191
5518.000000	1.731484
5516.000000	1.733934
5514.000000	1.737349
5512.000000	1.740828
5510.000000	1.742767
5508.000000	1.743246
5506.000000	1.746153
5504.000000	1.751226
5502.000000	1.755679
5500.000000	1.757972
5498.000000	1.760440
5496.000000	1.764570
5494.000000	1.768830
5492.000000	1.771327
5490.000000	1.772920
5488.000000	1.774694
5486.000000	1.778098
5484.000000	1.782527
5482.000000	1.786033
5480.000000	1.788243
5478.000000	1.791541
5476.000000	1.795641
5474.000000	1.798881
5472.000000	1.800839
5470.000000	1.804526
5468.000000	1.810321
5466.000000	1.814891
5464.000000	1.817966
5462.000000	1.822300
5460.000000	1.826909
5458.000000	1.828835
5456.000000	1.828334
5454.000000	1.830566
5452.000000	1.835814
5450.000000	1.840894
5448.000000	1.843975
5446.000000	1.847090
5444.000000	1.849655
5442.000000	1.851662
5440.000000	1.855032
5438.000000	1.859941
5436.000000	1.864288
5434.000000	1.865965
5432.000000	1.867734
5430.000000	1.870686
5428.000000	1.875519
5426.000000	1.880951
5424.000000	1.885755
5422.000000	1.889942
5420.000000	1.893439
5418.000000	1.895452
5416.000000	1.896054
5414.000000	1.897745
5412.000000	1.902200
5410.000000	1.906755
5408.000000	1.909814
5406.000000	1.912574
5404.000000	1.916644
5402.000000	1.921452
5400.000000	1.926150
5398.000000	1.929841
5396.000000	1.932485
5394.000000	1.934658
5392.000000	1.936041
5390.000000	1.937444
5388.000000	1.939632
5386.000000	1.944719
5384.000000	1.951154
5382.000000	1.955345
5380.000000	1.957485
5378.000000	1.959665
5376.000000	1.962441
5374.000000	1.965590
5372.000000	1.969307
5370.000000	1.974316
5368.000000	1.979338
5366.000000	1.983636
5364.000000	1.987523
5362.000000	1.991329
5360.000000	1.995073
5358.000000	1.997335
5356.000000	1.998580
5354.000000	2.000085
5352.000000	2.003487
5350.000000	2.007406
5348.000000	2.010175
5346.000000	2.012941
5344.000000	2.015510
5342.000000	2.018017
5340.000000	2.021530
5338.000000	2.025361
5336.000000	2.029297
5334.000000	2.033005
5332.000000	2.037803
5330.000000	2.041339
5328.000000	2.042529
5326.000000	2.044969
5324.000000	2.049748
5322.000000	2.054243
5320.000000	2.056517
5318.000000	2.058691
5316.000000	2.061617
5314.000000	2.064514
5312.000000	2.066200
5310.000000	2.068789
5308.000000	2.072564
5306.000000	2.076118
5304.000000	2.078606
5302.000000	2.082448
5300.000000	2.087371
5298.000000	2.090906
5296.000000	2.092865
5294.000000	2.095391
5292.000000	2.098157
5290.000000	2.100057
5288.000000	2.102047
5286.000000	2.105074
5284.000000	2.108546
5282.000000	2.111260
5280.000000	2.113767
5278.000000	2.116400
5276.000000	2.118842
5274.000000	2.121378
5272.000000	2.123636
5270.000000	2.126258
5268.000000	2.128380
5266.000000	2.130368
5264.000000	2.131278
5262.000000	2.132977
5260.000000	2.136468
5258.000000	2.141611
5256.000000	2.145502
5254.000000	2.146888
5252.000000	2.145936
5250.000000	2.145058
5248.000000	2.146106
5246.000000	2.148477
5244.000000	2.152647
5242.000000	2.156941
5240.000000	2.160103
5238.000000	2.160792
5236.000000	2.161681
5234.000000	2.164211
5232.000000	2.166216
5230.000000	2.166413
5228.000000	2.166289
5226.000000	2.168305
5224.000000	2.171737
5222.000000	2.174583
5220.000000	2.176262
5218.000000	2.177959
5216.000000	2.179254
5214.000000	2.179749
5212.000000	2.179544
5210.000000	2.180305
5208.000000	2.182131
5206.000000	2.184017
5204.000000	2.185622
5202.000000	2.187467
5200.000000	2.189604
5198.000000	2.192069
5196.000000	2.194236
5194.000000	2.195395
5192.000000	2.196250
5190.000000	2.196795
5188.000000	2.197488
5186.000000	2.198911
5184.000000	2.200776
5182.000000	2.202789
5180.000000	2.204365
5178.000000	2.206723
5176.000000	2.208134
5174.000000	2.208305
5172.000000	2.209013
5170.000000	2.212500
5168.000000	2.216417
5166.000000	2.217496
5164.000000	2.217099
5162.000000	2.217844
5160.000000	2.221024
5158.000000	2.223489
5156.000000	2.225354
5154.000000	2.226777
5152.000000	2.229249
5150.000000	2.232023
5148.000000	2.233480
5146.000000	2.234790
5144.000000	2.236281
5142.000000	2.236917
5140.000000	2.237545
5138.000000	2.239719
5136.000000	2.243261
5134.000000	2.245460
5132.000000	2.248442
5130.000000	2.252464
5128.000000	2.255485
5126.000000	2.256646
5124.000000	2.258363
5122.000000	2.262430
5120.000000	2.266207
5118.000000	2.268465
5116.000000	2.271438
5114.000000	2.275002
5112.000000	2.277415
5110.000000	2.278810
5108.000000	2.281186
5106.000000	2.284013
5104.000000	2.285554
5102.000000	2.287485
5100.000000	2.292095
5098.000000	2.298079
5096.000000	2.302070
5094.000000	2.304018
5092.000000	2.306711
5090.000000	2.311289
5088.000000	2.314622
5086.000000	2.317070
5084.000000	2.319652
5082.000000	2.322812
5080.000000	2.326259
5078.000000	2.330077
5076.000000	2.334453
5074.000000	2.338416
5072.000000	2.342307
5070.000000	2.346690
5068.000000	2.350440
5066.000000	2.353079
5064.000000	2.355643
5062.000000	2.359625
5060.000000	2.364052
5058.000000	2.368876
5056.000000	2.373203
5054.000000	2.375367
5052.000000	2.377402
5050.000000	2.382504
5048.000000	2.388790
5046.000000	2.391837
5044.000000	2.393039
5042.000000	2.395046
5040.000000	2.397772
5038.000000	2.402730
5036.000000	2.409075
5034.000000	2.414689
5032.000000	2.417497
5030.000000	2.418953
5028.000000	2.421558
5026.000000	2.426641
5024.000000	2.432190
5022.000000	2.434995
5020.000000	2.437130
5018.000000	2.442393
5016.000000	2.448596
5014.000000	2.452126
5012.000000	2.455251
5010.000000	2.460204
5008.000000	2.465605
5006.000000	2.469639
5004.000000	2.473290
5002.000000	2.476968
5000.000000	2.480568
4998.000000	2.484279
4996.000000	2.489033
4994.000000	2.494260
4992.000000	2.498579
4990.000000	2.501693
4988.000000	2.504592
4986.000000	2.509437
4984.000000	2.515625
4982.000000	2.521032
4980.000000	2.524577
4978.000000	2.528700
4976.000000	2.533274
4974.000000	2.538097
4972.000000	2.543411
4970.000000	2.548007
4968.000000	2.551437
4966.000000	2.555688
4964.000000	2.560892
4962.000000	2.564908
4960.000000	2.568773
4958.000000	2.573759
4956.000000	2.578321
4954.000000	2.582424
4952.000000	2.586132
4950.000000	2.590012
4948.000000	2.592523
4946.000000	2.596626
4944.000000	2.603352
4942.000000	2.610095
4940.000000	2.614627
4938.000000	2.618415
4936.000000	2.623198
4934.000000	2.628020
4932.000000	2.632211
4930.000000	2.636404
4928.000000	2.641610
4926.000000	2.647628
4924.000000	2.651382
4922.000000	2.655520
4920.000000	2.661922
4918.000000	2.668339
4916.000000	2.672425
4914.000000	2.676771
4912.000000	2.681902
4910.000000	2.685713
4908.000000	2.688802
4906.000000	2.693481
4904.000000	2.699220
4902.000000	2.704523
4900.000000	2.709024
4898.000000	2.713180
4896.000000	2.718215
4894.000000	2.724947
4892.000000	2.732817
4890.000000	2.738733
4888.000000	2.742634
4886.000000	2.747100
4884.000000	2.753295
4882.000000	2.759667
4880.000000	2.764764
4878.000000	2.768078
4876.000000	2.770607
4874.000000	2.775520
4872.000000	2.781988
4870.000000	2.787971
4868.000000	2.793978
4866.000000	2.801370
4864.000000	2.806745
4862.000000	2.811025
4860.000000	2.816311
4858.000000	2.821704
4856.000000	2.825495
4854.000000	2.829580
4852.000000	2.836508
4850.000000	2.844193
4848.000000	2.850238
4846.000000	2.855259
4844.000000	2.859211
4842.000000	2.862114
4840.000000	2.866003
4838.000000	2.872777
4836.000000	2.878599
4834.000000	2.883310
4832.000000	2.889054
4830.000000	2.894676
4828.000000	2.899422
4826.000000	2.904767
4824.000000	2.912361
4822.000000	2.920011
4820.000000	2.925690
4818.000000	2.928952
4816.000000	2.932553
4814.000000	2.938316
4812.000000	2.945010
4810.000000	2.951238
4808.000000	2.957091
4806.000000	2.962574
4804.000000	2.967412
4802.000000	2.972318
4800.000000	2.978110
4798.000000	2.984044
4796.000000	2.990683
4794.000000	2.997833
4792.000000	3.003794
4790.000000	3.008263
4788.000000	3.013110
4786.000000	3.018322
4784.000000	3.023265
4782.000000	3.029622
4780.000000	3.037693
4778.000000	3.045136
4776.000000	3.050573
4774.000000	3.055631
4772.000000	3.061258
4770.000000	3.066543
4768.000000	3.071191
4766.000000	3.076669
4764.000000	3.083648
4762.000000	3.090714
4760.000000	3.096537
4758.000000	3.100918
4756.000000	3.105393
4754.000000	3.111044
4752.000000	3.117371
4750.000000	3.123180
4748.000000	3.129125
4746.000000	3.135423
4744.000000	3.141526
4742.000000	3.147295
4740.000000	3.151582
4738.000000	3.155548
4736.000000	3.161297
4734.000000	3.168312
4732.000000	3.174250
4730.000000	3.178843
4728.000000	3.183961
4726.000000	3.190457
4724.000000	3.197476
4722.000000	3.203932
4720.000000	3.210387
4718.000000	3.216099
4716.000000	3.221166
4714.000000	3.226882
4712.000000	3.232946
4710.000000	3.238034
4708.000000	3.242835
4706.000000	3.248126
4704.000000	3.253223
4702.000000	3.258062
4700.000000	3.262884
4698.000000	3.268646
4696.000000	3.275852
4694.000000	3.283465
4692.000000	3.290885
4690.000000	3.297760
4688.000000	3.304034
4686.000000	3.309014
4684.000000	3.313607
4682.000000	3.317619
4680.000000	3.322631
4678.000000	3.328617
4676.000000	3.334516
4674.000000	3.341649
4672.000000	3.349497
4670.000000	3.353894
4668.000000	3.356151
4666.000000	3.361040
4664.000000	3.368306
4662.000000	3.374711
4660.000000	3.379973
4658.000000	3.384402
4656.000000	3.388728
4654.000000	3.394405
4652.000000	3.401492
4650.000000	3.407135
4648.000000	3.410688
4646.000000	3.415266
4644.000000	3.421175
4642.000000	3.426323
4640.000000	3.431887
4638.000000	3.439623
4636.000000	3.447122
4634.000000	3.452083
4632.000000	3.455399
4630.000000	3.458481
4628.000000	3.462591
4626.000000	3.469277
4624.000000	3.476773
4622.000000	3.482837
4620.000000	3.487671
4618.000000	3.493256
4616.000000	3.498822
4614.000000	3.503769
4612.000000	3.508829
4610.000000	3.514876
4608.000000	3.520829
4606.000000	3.525786
4604.000000	3.529959
4602.000000	3.534165
4600.000000	3.538705
4598.000000	3.544834
4596.000000	3.552724
4594.000000	3.559164
4592.000000	3.563616
4590.000000	3.569394
4588.000000	3.576139
4586.000000	3.582410
4584.000000	3.588545
4582.000000	3.593402
4580.000000	3.596553
4578.000000	3.600792
4576.000000	3.606890
4574.000000	3.612623
4572.000000	3.618066
4570.000000	3.624218
4568.000000	3.630050
4566.000000	3.635196
4564.000000	3.640250
4562.000000	3.645021
4560.000000	3.649406
4558.000000	3.654423
4556.000000	3.659137
4554.000000	3.663857
4552.000000	3.669926
4550.000000	3.676577
4548.000000	3.682725
4546.000000	3.690139
4544.000000	3.697589
4542.000000	3.701944
4540.000000	3.704710
4538.000000	3.709095
4536.000000	3.714702
4534.000000	3.718497
4532.000000	3.721345
4530.000000	3.725922
4528.000000	3.731833
4526.000000	3.737595
4524.000000	3.743129
4522.000000	3.748569
4520.000000	3.753868
4518.000000	3.758809
4516.000000	3.764036
4514.000000	3.771072
4512.000000	3.777535
4510.000000	3.781711
4508.000000	3.786749
4506.000000	3.794647
4504.000000	3.801441
4502.000000	3.805358
4500.000000	3.809319
4498.000000	3.815186
4496.000000	3.821647
4494.000000	3.827365
4492.000000	3.831482
4490.000000	3.835329
4488.000000	3.839495
4486.000000	3.845084
4484.000000	3.851262
4482.000000	3.856453
4480.000000	3.861147
4478.000000	3.867046
4476.000000	3.873275
4474.000000	3.879594
4472.000000	3.885159
4470.000000	3.888537
4468.000000	3.891899
4466.000000	3.897547
4464.000000	3.903286
4462.000000	3.906372
4460.000000	3.909350
4458.000000	3.914899
4456.000000	3.921342
4454.000000	3.926366
4452.000000	3.929541
4450.000000	3.933949
4448.000000	3.941245
4446.000000	3.948511
4444.000000	3.953700
4442.000000	3.958258
4440.000000	3.961998
4438.000000	3.965919
4436.000000	3.969986
4434.000000	3.974121
4432.000000	3.977866
4430.000000	3.981888
4428.000000	3.987918
4426.000000	3.996641
4424.000000	4.002964
4422.000000	4.005439
4420.000000	4.007800
4418.000000	4.012642
4416.000000	4.018850
4414.000000	4.025175
4412.000000	4.029654
4410.000000	4.033170
4408.000000	4.037082
4406.000000	4.041160
4404.000000	4.045716
4402.000000	4.051359
4400.000000	4.056504
4398.000000	4.061493
4396.000000	4.066106
4394.000000	4.071270
4392.000000	4.077768
4390.000000	4.084009
4388.000000	4.088521
4386.000000	4.091745
4384.000000	4.094286
4382.000000	4.098037
4380.000000	4.102398
4378.000000	4.106416
4376.000000	4.110584
4374.000000	4.114547
4372.000000	4.117778
4370.000000	4.122368
4368.000000	4.128120
4366.000000	4.132764
4364.000000	4.137531
4362.000000	4.142250
4360.000000	4.144728
4358.000000	4.147042
4356.000000	4.151500
4354.000000	4.155527
4352.000000	4.159046
4350.000000	4.163229
4348.000000	4.168257
4346.000000	4.173600
4344.000000	4.178430
4342.000000	4.182005
4340.000000	4.185809
4338.000000	4.189194
4336.000000	4.191786
4334.000000	4.196092
4332.000000	4.202142
4330.000000	4.207034
4328.000000	4.209991
4326.000000	4.212420
4324.000000	4.217188
4322.000000	4.224185
4320.000000	4.229659
4318.000000	4.232853
4316.000000	4.236375
4314.000000	4.240354
4312.000000	4.243664
4310.000000	4.247265
4308.000000	4.251927
4306.000000	4.256742
4304.000000	4.261829
4302.000000	4.267008
4300.000000	4.271007
4298.000000	4.274115
4296.000000	4.278518
4294.000000	4.283109
4292.000000	4.286208
4290.000000	4.289696
4288.000000	4.294369
4286.000000	4.298899
4284.000000	4.302968
4282.000000	4.305728
4280.000000	4.308065
4278.000000	4.312225
4276.000000	4.316220
4274.000000	4.319284
4272.000000	4.322623
4270.000000	4.326456
4268.000000	4.330089
4266.000000	4.334044
4264.000000	4.337733
4262.000000	4.341288
4260.000000	4.345965
4258.000000	4.351389
4256.000000	4.355734
4254.000000	4.361179
4252.000000	4.366998
4250.000000	4.369631
4248.000000	4.370004
4246.000000	4.371370
4244.000000	4.374954
4242.000000	4.379773
4240.000000	4.384893
4238.000000	4.391354
4236.000000	4.398226
4234.000000	4.402126
4232.000000	4.403394
4230.000000	4.406167
4228.000000	4.410552
4226.000000	4.414703
4224.000000	4.419789
4222.000000	4.425641
4220.000000	4.430317
4218.000000	4.433837
4216.000000	4.438401
4214.000000	4.444499
4212.000000	4.449482
4210.000000	4.453548
4208.000000	4.457989
4206.000000	4.462256
4204.000000	4.466537
4202.000000	4.470702
4200.000000	4.475255
4198.000000	4.480416
4196.000000	4.484694
4194.000000	4.489317
4192.000000	4.495653
4190.000000	4.500900
4188.000000	4.503516
4186.000000	4.507105
4184.000000	4.513894
4182.000000	4.520789
4180.000000	4.524902
4178.000000	4.527796
4176.000000	4.532249
4174.000000	4.536517
4172.000000	4.538945
4170.000000	4.543903
4168.000000	4.552252
4166.000000	4.558307
4164.000000	4.561625
4162.000000	4.565429
4160.000000	4.569035
4158.000000	4.572242
4156.000000	4.577051
4154.000000	4.583457
4152.000000	4.590230
4150.000000	4.595635
4148.000000	4.598557
4146.000000	4.601475
4144.000000	4.606445
4142.000000	4.612513
4140.000000	4.617686
4138.000000	4.621138
4136.000000	4.625016
4134.000000	4.630092
4132.000000	4.634851
4130.000000	4.640748
4128.000000	4.647238
4126.000000	4.651585
4124.000000	4.654579
4122.000000	4.657598
4120.000000	4.661543
4118.000000	4.667238
4116.000000	4.673446
4114.000000	4.678997
4112.000000	4.683036
4110.000000	4.686155
4108.000000	4.690430
4106.000000	4.695570
4104.000000	4.700434
4102.000000	4.705832
4100.000000	4.711906
4098.000000	4.717913
4096.000000	4.722195
4094.000000	4.724881
4092.000000	4.729546
4090.000000	4.735818
4088.000000	4.741179
4086.000000	4.746169
4084.000000	4.749788
4082.000000	4.753717
4080.000000	4.760455
4078.000000	4.766724
4076.000000	4.770279
4074.000000	4.773864
4072.000000	4.779628
4070.000000	4.785176
4068.000000	4.787642
4066.000000	4.789452
4064.000000	4.793682
4062.000000	4.799916
4060.000000	4.806527
4058.000000	4.811562
4056.000000	4.815234
4054.000000	4.819983
4052.000000	4.824803
4050.000000	4.827849
4048.000000	4.830410
4046.000000	4.835518
4044.000000	4.843536
4042.000000	4.849663
4040.000000	4.851898
4038.000000	4.855142
4036.000000	4.861436
4034.000000	4.866475
4032.000000	4.869656
4030.000000	4.875031
4028.000000	4.881109
4026.000000	4.886009
4024.000000	4.891315
4022.000000	4.896292
4020.000000	4.900824
4018.000000	4.905626
4016.000000	4.910536
4014.000000	4.915577
4012.000000	4.920577
4010.000000	4.926215
4008.000000	4.932142
4006.000000	4.938342
4004.000000	4.945788
4002.000000	4.952740
4000.000000	4.957983
3998.000000	4.963348
3996.000000	4.967919
3994.000000	4.971186
3992.000000	4.975843
3990.000000	4.982439
3988.000000	4.989441
3986.000000	4.995150
3984.000000	4.999524
3982.000000	5.004990
3980.000000	5.010883
3978.000000	5.014887
3976.000000	5.019555
3974.000000	5.025915
3972.000000	5.031937
3970.000000	5.039225
3968.000000	5.047589
3966.000000	5.054995
3964.000000	5.061340
3962.000000	5.067618
3960.000000	5.074568
3958.000000	5.080290
3956.000000	5.085322
3954.000000	5.091366
3952.000000	5.096137
3950.000000	5.101613
3948.000000	5.110066
3946.000000	5.116842
3944.000000	5.122084
3942.000000	5.131072
3940.000000	5.142278
3938.000000	5.151912
3936.000000	5.158190
3934.000000	5.161322
3932.000000	5.168638
3930.000000	5.181834
3928.000000	5.191160
3926.000000	5.196330
3924.000000	5.204168
3922.000000	5.211259
3920.000000	5.214787
3918.000000	5.222685
3916.000000	5.238242
3914.000000	5.253201
3912.000000	5.262651
3910.000000	5.268651
3908.000000	5.267350
3906.000000	5.258000
3904.000000	5.254860
3902.000000	5.265818
3900.000000	5.286779
3898.000000	5.310970
3896.000000	5.324734
3894.000000	5.322870
3892.000000	5.325184
3890.000000	5.335993
3888.000000	5.336388
3886.000000	5.338913
3884.000000	5.353623
3882.000000	5.366066
3880.000000	5.381231
3878.000000	5.395694
3876.000000	5.399617
3874.000000	5.393392
3872.000000	5.379281
3870.000000	5.383129
3868.000000	5.404172
3866.000000	5.416075
3864.000000	5.427902
3862.000000	5.447951
3860.000000	5.461815
3858.000000	5.438664
3856.000000	5.376934
3854.000000	5.355516
3852.000000	5.412510
3850.000000	5.480493
3848.000000	5.510316
3846.000000	5.512553
3844.000000	5.507981
3842.000000	5.495948
3840.000000	5.473702
3838.000000	5.475576
3836.000000	5.509302
3834.000000	5.536668
3832.000000	5.551763
3830.000000	5.565043
3828.000000	5.573918
3826.000000	5.576001
3824.000000	5.561789
3822.000000	5.552338
3820.000000	5.559300
3818.000000	5.555266
3816.000000	5.565901
3814.000000	5.606045
3812.000000	5.631502
3810.000000	5.623309
3808.000000	5.610051
3806.000000	5.613184
3804.000000	5.602445
3802.000000	5.595642
3800.000000	5.624327
3798.000000	5.652365
3796.000000	5.668401
3794.000000	5.682815
3792.000000	5.691527
3790.000000	5.696067
3788.000000	5.698587
3786.000000	5.700717
3784.000000	5.703833
3782.000000	5.704908
3780.000000	5.706216
3778.000000	5.714940
3776.000000	5.725504
3774.000000	5.726385
3772.000000	5.717331
3770.000000	5.715831
3768.000000	5.724664
3766.000000	5.733812
3764.000000	5.739608
3762.000000	5.736808
3760.000000	5.734109
3758.000000	5.739037
3756.000000	5.727902
3754.000000	5.687609
3752.000000	5.656291
3750.000000	5.666974
3748.000000	5.675621
3746.000000	5.658287
3744.000000	5.684618
3742.000000	5.741949
3740.000000	5.755311
3738.000000	5.734569
3736.000000	5.723953
3734.000000	5.733770
3732.000000	5.758591
3730.000000	5.783573
3728.000000	5.788781
3726.000000	5.787348
3724.000000	5.790578
3722.000000	5.795259
3720.000000	5.801398
3718.000000	5.806368
3716.000000	5.794837
3714.000000	5.763820
3712.000000	5.749146
3710.000000	5.766393
3708.000000	5.788166
3706.000000	5.792330
3704.000000	5.780766
3702.000000	5.772120
3700.000000	5.770790
3698.000000	5.766119
3696.000000	5.755072
3694.000000	5.732211
3692.000000	5.691132
3690.000000	5.653548
3688.000000	5.658086
3686.000000	5.684191
3684.000000	5.688571
3682.000000	5.671350
3680.000000	5.633286
3678.000000	5.573178
3676.000000	5.534639
3674.000000	5.526771
3672.000000	5.507018
3670.000000	5.497557
3668.000000	5.508611
3666.000000	5.508602
3664.000000	5.492690
3662.000000	5.469989
3660.000000	5.438422
3658.000000	5.400835
3656.000000	5.377245
3654.000000	5.350475
3652.000000	5.298154
3650.000000	5.258922
3648.000000	5.260777
3646.000000	5.275685
3644.000000	5.274217
3642.000000	5.258819
3640.000000	5.241453
3638.000000	5.223440
3636.000000	5.204059
3634.000000	5.180765
3632.000000	5.137512
3630.000000	5.099295
3628.000000	5.104422
3626.000000	5.121506
3624.000000	5.115507
3622.000000	5.089457
3620.000000	5.066592
3618.000000	5.060477
3616.000000	5.054732
3614.000000	5.041466
3612.000000	5.026025
3610.000000	5.012925
3608.000000	5.011852
3606.000000	5.016500
3604.000000	5.014028
3602.000000	5.005108
3600.000000	4.995363
3598.000000	4.985741
3596.000000	4.975513
3594.000000	4.967547
3592.000000	4.957129
3590.000000	4.940876
3588.000000	4.931692
3586.000000	4.935475
3584.000000	4.940313
3582.000000	4.938075
3580.000000	4.934138
3578.000000	4.931357
3576.000000	4.926868
3574.000000	4.922883
3572.000000	4.915807
3570.000000	4.900344
3568.000000	4.889751
3566.000000	4.893813
3564.000000	4.899835
3562.000000	4.900152
3560.000000	4.897916
3558.000000	4.894131
3556.000000	4.887935
3554.000000	4.882571
3552.000000	4.881592
3550.000000	4.878601
3548.000000	4.870831
3546.000000	4.867492
3544.000000	4.869919
3542.000000	4.870983
3540.000000	4.868183
3538.000000	4.863124
3536.000000	4.860111
3534.000000	4.858133
3532.000000	4.853526
3530.000000	4.848055
3528.000000	4.842060
3526.000000	4.835667
3524.000000	4.832159
3522.000000	4.832693
3520.000000	4.832329
3518.000000	4.828786
3516.000000	4.823887
3514.000000	4.818138
3512.000000	4.812399
3510.000000	4.808626
3508.000000	4.804703
3506.000000	4.797946
3504.000000	4.791876
3502.000000	4.789226
3500.000000	4.785325
3498.000000	4.778992
3496.000000	4.773203
3494.000000	4.767620
3492.000000	4.760973
3490.000000	4.754973
3488.000000	4.751477
3486.000000	4.748259
3484.000000	4.743984
3482.000000	4.740279
3480.000000	4.737465
3478.000000	4.734386
3476.000000	4.732401
3474.000000	4.731860
3472.000000	4.731727
3470.000000	4.730618
3468.000000	4.728332
3466.000000	4.727137
3464.000000	4.726729
3462.000000	4.726801
3460.000000	4.726974
3458.000000	4.725956
3456.000000	4.724598
3454.000000	4.724987
3452.000000	4.726630
3450.000000	4.725181
3448.000000	4.722272
3446.000000	4.722160
3444.000000	4.723398
3442.000000	4.726893
3440.000000	4.730353
3438.000000	4.732277
3436.000000	4.737109
3434.000000	4.744776
3432.000000	4.751673
3430.000000	4.757767
3428.000000	4.763626
3426.000000	4.769560
3424.000000	4.775598
3422.000000	4.780962
3420.000000	4.785103
3418.000000	4.789992
3416.000000	4.794689
3414.000000	4.798300
3412.000000	4.802570
3410.000000	4.805499
3408.000000	4.807755
3406.000000	4.810031
3404.000000	4.810413
3402.000000	4.811536
3400.000000	4.815243
3398.000000	4.819702
3396.000000	4.823118
3394.000000	4.825919
3392.000000	4.829633
3390.000000	4.834583
3388.000000	4.838282
3386.000000	4.839466
3384.000000	4.841919
3382.000000	4.846400
3380.000000	4.848757
3378.000000	4.850654
3376.000000	4.854733
3374.000000	4.857138
3372.000000	4.858727
3370.000000	4.860469
3368.000000	4.862112
3366.000000	4.864278
3364.000000	4.866668
3362.000000	4.869008
3360.000000	4.871724
3358.000000	4.875407
3356.000000	4.878068
3354.000000	4.879107
3352.000000	4.881411
3350.000000	4.883893
3348.000000	4.886400
3346.000000	4.889623
3344.000000	4.891388
3342.000000	4.892024
3340.000000	4.893744
3338.000000	4.896255
3336.000000	4.899164
3334.000000	4.902334
3332.000000	4.905160
3330.000000	4.906632
3328.000000	4.906491
3326.000000	4.906650
3324.000000	4.908467
3322.000000	4.911630
3320.000000	4.914596
3318.000000	4.916589
3316.000000	4.918408
3314.000000	4.920553
3312.000000	4.922341
3310.000000	4.924450
3308.000000	4.926157
3306.000000	4.925817
3304.000000	4.925850
3302.000000	4.928727
3300.000000	4.931721
3298.000000	4.932953
3296.000000	4.935049
3294.000000	4.937063
3292.000000	4.937423
3290.000000	4.938533
3288.000000	4.941808
3286.000000	4.943993
3284.000000	4.943980
3282.000000	4.945896
3280.000000	4.948828
3278.000000	4.949999
3276.000000	4.950695
3274.000000	4.952844
3272.000000	4.956454
3270.000000	4.958646
3268.000000	4.959335
3266.000000	4.961120
3264.000000	4.963818
3262.000000	4.966730
3260.000000	4.969149
3258.000000	4.970737
3256.000000	4.972501
3254.000000	4.975683
3252.000000	4.977866
3250.000000	4.979067
3248.000000	4.981041
3246.000000	4.982827
3244.000000	4.985495
3242.000000	4.988270
3240.000000	4.991365
3238.000000	4.995207
3236.000000	4.996928
3234.000000	4.998540
3232.000000	5.002270
3230.000000	5.005958
3228.000000	5.008898
3226.000000	5.010893
3224.000000	5.013341
3222.000000	5.015476
3220.000000	5.017679
3218.000000	5.020997
3216.000000	5.024362
3214.000000	5.028694
3212.000000	5.032551
3210.000000	5.034411
3208.000000	5.036832
3206.000000	5.039821
3204.000000	5.043518
3202.000000	5.048462
3200.000000	5.052152
3198.000000	5.057061
3196.000000	5.062828
3194.000000	5.066164
3192.000000	5.070029
3190.000000	5.074511
3188.000000	5.078481
3186.000000	5.082784
3184.000000	5.088156
3182.000000	5.093079
3180.000000	5.096344
3178.000000	5.099904
3176.000000	5.104490
3174.000000	5.108460
3172.000000	5.113466
3170.000000	5.119032
3168.000000	5.124076
3166.000000	5.128153
3164.000000	5.132019
3162.000000	5.137131
3160.000000	5.142904
3158.000000	5.147484
3156.000000	5.151617
3154.000000	5.155819
3152.000000	5.160085
3150.000000	5.164916
3148.000000	5.169681
3146.000000	5.174814
3144.000000	5.180678
3142.000000	5.185938
3140.000000	5.189839
3138.000000	5.192278
3136.000000	5.195099
3134.000000	5.199195
3132.000000	5.203106
3130.000000	5.206759
3128.000000	5.212420
3126.000000	5.217369
3124.000000	5.220324
3122.000000	5.224124
3120.000000	5.227099
3118.000000	5.229215
3116.000000	5.231624
3114.000000	5.235085
3112.000000	5.240209
3110.000000	5.244307
3108.000000	5.246704
3106.000000	5.249591
3104.000000	5.251919
3102.000000	5.254783
3100.000000	5.259369
3098.000000	5.264241
3096.000000	5.268447
3094.000000	5.272965
3092.000000	5.277568
3090.000000	5.280976
3088.000000	5.284679
3086.000000	5.288013
3084.000000	5.291195
3082.000000	5.294684
3080.000000	5.298433
3078.000000	5.301355
3076.000000	5.302942
3074.000000	5.305024
3072.000000	5.307949
3070.000000	5.309727
3068.000000	5.309277
3066.000000	5.308303
3064.000000	5.311103
3062.000000	5.315842
3060.000000	5.319723
3058.000000	5.324198
3056.000000	5.328259
3054.000000	5.332689
3052.000000	5.336678
3050.000000	5.339662
3048.000000	5.345291
3046.000000	5.351826
3044.000000	5.354099
3042.000000	5.354907
3040.000000	5.357055
3038.000000	5.358369
3036.000000	5.359353
3034.000000	5.361663
3032.000000	5.363505
3030.000000	5.362133
3028.000000	5.358558
3026.000000	5.354920
3024.000000	5.349272
3022.000000	5.342332
3020.000000	5.340593
3018.000000	5.347334
3016.000000	5.359136
3014.000000	5.375311
3012.000000	5.395230
3010.000000	5.413584
3008.000000	5.428093
3006.000000	5.438318
3004.000000	5.446693
3002.000000	5.453513
3000.000000	5.458686
2998.000000	5.464221
2996.000000	5.469538
2994.000000	5.473087
2992.000000	5.475371
2990.000000	5.477651
2988.000000	5.479112
2986.000000	5.479147
2984.000000	5.478816
2982.000000	5.476080
2980.000000	5.470897
2978.000000	5.463146
2976.000000	5.452043
2974.000000	5.435774
2972.000000	5.412147
2970.000000	5.382539
2968.000000	5.353888
2966.000000	5.330195
2964.000000	5.314717
2962.000000	5.311655
2960.000000	5.319168
2958.000000	5.334047
2956.000000	5.351154
2954.000000	5.367678
2952.000000	5.382149
2950.000000	5.392858
2948.000000	5.396831
2946.000000	5.389376
2944.000000	5.374012
2942.000000	5.353424
2940.000000	5.327018
2938.000000	5.300135
2936.000000	5.278252
2934.000000	5.258624
2932.000000	5.238044
2930.000000	5.219868
2928.000000	5.207476
2926.000000	5.205775
2924.000000	5.221092
2922.000000	5.255697
2920.000000	5.303744
2918.000000	5.356815
2916.000000	5.412823
2914.000000	5.466162
2912.000000	5.510561
2910.000000	5.546601
2908.000000	5.576408
2906.000000	5.601886
2904.000000	5.625207
2902.000000	5.648153
2900.000000	5.668930
2898.000000	5.686526
2896.000000	5.704333
2894.000000	5.722496
2892.000000	5.740517
2890.000000	5.757185
2888.000000	5.771901
2886.000000	5.784571
2884.000000	5.794514
2882.000000	5.801764
2880.000000	5.806838
2878.000000	5.807935
2876.000000	5.805113
2874.000000	5.796798
2872.000000	5.782046
2870.000000	5.762521
2868.000000	5.736881
2866.000000	5.706513
2864.000000	5.679997
2862.000000	5.666240
2860.000000	5.670238
2858.000000	5.687164
2856.000000	5.710375
2854.000000	5.737862
2852.000000	5.768671
2850.000000	5.805094
2848.000000	5.848391
2846.000000	5.890858
2844.000000	5.926707
2842.000000	5.956851
2840.000000	5.980375
2838.000000	5.999027
2836.000000	6.015741
2834.000000	6.031937
2832.000000	6.047027
2830.000000	6.058628
2828.000000	6.068412
2826.000000	6.077500
2824.000000	6.086595
2822.000000	6.095888
2820.000000	6.105280
2818.000000	6.114338
2816.000000	6.120443
2814.000000	6.126426
2812.000000	6.133899
2810.000000	6.139642
2808.000000	6.144891
2806.000000	6.151420
2804.000000	6.158224
2802.000000	6.164084
2800.000000	6.169899
2798.000000	6.176010
2796.000000	6.181083
2794.000000	6.185182
2792.000000	6.190090
2790.000000	6.195994
2788.000000	6.202813
2786.000000	6.211962
2784.000000	6.221204
2782.000000	6.226937
2780.000000	6.232592
2778.000000	6.239078
2776.000000	6.244324
2774.000000	6.249357
2772.000000	6.255077
2770.000000	6.260822
2768.000000	6.266441
2766.000000	6.270634
2764.000000	6.275344
2762.000000	6.280969
2760.000000	6.286930
2758.000000	6.291153
2756.000000	6.294825
2754.000000	6.299331
2752.000000	6.303458
2750.000000	6.306667
2748.000000	6.310339
2746.000000	6.313837
2744.000000	6.316654
2742.000000	6.320892
2740.000000	6.323917
2738.000000	6.324409
2736.000000	6.327854
2734.000000	6.333503
2732.000000	6.336918
2730.000000	6.337850
2728.000000	6.340684
2726.000000	6.344386
2724.000000	6.346824
2722.000000	6.349816
2720.000000	6.353597
2718.000000	6.354632
2716.000000	6.354772
2714.000000	6.355969
2712.000000	6.358173
2710.000000	6.360418
2708.000000	6.361430
2706.000000	6.363391
2704.000000	6.366885
2702.000000	6.369918
2700.000000	6.371171
2698.000000	6.372131
2696.000000	6.375726
2694.000000	6.378632
2692.000000	6.380054
2690.000000	6.382416
2688.000000	6.385388
2686.000000	6.387069
2684.000000	6.388367
2682.000000	6.388704
2680.000000	6.389258
2678.000000	6.392048
2676.000000	6.395165
2674.000000	6.395771
2672.000000	6.395309
2670.000000	6.395090
2668.000000	6.395545
2666.000000	6.396662
2664.000000	6.396917
2662.000000	6.396336
2660.000000	6.396560
2658.000000	6.397536
2656.000000	6.397754
2654.000000	6.398209
2652.000000	6.398107
2650.000000	6.397635
2648.000000	6.398821
2646.000000	6.401105
2644.000000	6.401046
2642.000000	6.400134
2640.000000	6.399073
2638.000000	6.398761
2636.000000	6.399874
2634.000000	6.398726
2632.000000	6.396364
2630.000000	6.395098
2628.000000	6.395140
2626.000000	6.395376
2624.000000	6.394758
2622.000000	6.393734
2620.000000	6.393044
2618.000000	6.392535
2616.000000	6.391819
2614.000000	6.389511
2612.000000	6.387628
2610.000000	6.386947
2608.000000	6.385634
2606.000000	6.382915
2604.000000	6.378980
2602.000000	6.376522
2600.000000	6.375490
2598.000000	6.373256
2596.000000	6.370067
2594.000000	6.366436
2592.000000	6.363526
2590.000000	6.363610
2588.000000	6.364960
2586.000000	6.365166
2584.000000	6.364789
2582.000000	6.363679
2580.000000	6.362548
2578.000000	6.363377
2576.000000	6.363638
2574.000000	6.363036
2572.000000	6.363108
2570.000000	6.363541
2568.000000	6.363860
2566.000000	6.361514
2564.000000	6.358248
2562.000000	6.355642
2560.000000	6.353304
2558.000000	6.349610
2556.000000	6.348049
2554.000000	6.347865
2552.000000	6.344168
2550.000000	6.339823
2548.000000	6.337407
2546.000000	6.334835
2544.000000	6.331653
2542.000000	6.328249
2540.000000	6.325598
2538.000000	6.322769
2536.000000	6.319241
2534.000000	6.315817
2532.000000	6.311645
2530.000000	6.306851
2528.000000	6.303160
2526.000000	6.298866
2524.000000	6.295290
2522.000000	6.293041
2520.000000	6.290605
2518.000000	6.287599
2516.000000	6.284657
2514.000000	6.280969
2512.000000	6.276608
2510.000000	6.272304
2508.000000	6.269115
2506.000000	6.266569
2504.000000	6.263019
2502.000000	6.257042
2500.000000	6.253273
2498.000000	6.253013
2496.000000	6.251823
2494.000000	6.247846
2492.000000	6.243088
2490.000000	6.239836
2488.000000	6.238352
2486.000000	6.238180
2484.000000	6.237129
2482.000000	6.234378
2480.000000	6.232609
2478.000000	6.231161
2476.000000	6.228318
2474.000000	6.225430
2472.000000	6.224072
2470.000000	6.222074
2468.000000	6.220485
2466.000000	6.219223
2464.000000	6.217575
2462.000000	6.217883
2460.000000	6.218485
2458.000000	6.217128
2456.000000	6.216050
2454.000000	6.214616
2452.000000	6.213835
2450.000000	6.214967
2448.000000	6.215091
2446.000000	6.214996
2444.000000	6.215798
2442.000000	6.216529
2440.000000	6.216877
2438.000000	6.217344
2436.000000	6.219099
2434.000000	6.222074
2432.000000	6.224462
2430.000000	6.224218
2428.000000	6.226351
2426.000000	6.230955
2424.000000	6.233287
2422.000000	6.235097
2420.000000	6.239941
2418.000000	6.244439
2416.000000	6.245746
2414.000000	6.247397
2412.000000	6.250955
2410.000000	6.254686
2408.000000	6.259413
2406.000000	6.261073
2404.000000	6.262574
2402.000000	6.265911
2400.000000	6.267401
2398.000000	6.270313
2396.000000	6.274912
2394.000000	6.277060
2392.000000	6.277690
2390.000000	6.278697
2388.000000	6.280108
2386.000000	6.280411
2384.000000	6.280180
2382.000000	6.277293
2380.000000	6.272233
2378.000000	6.265038
2376.000000	6.254152
2374.000000	6.239831
2372.000000	6.222012
2370.000000	6.203864
2368.000000	6.187292
2366.000000	6.173124
2364.000000	6.163791
2362.000000	6.161261
2360.000000	6.166378
2358.000000	6.177322
2356.000000	6.193809
2354.000000	6.214951
2352.000000	6.237957
2350.000000	6.249637
2348.000000	6.239179
2346.000000	6.213658
2344.000000	6.185390
2342.000000	6.161025
2340.000000	6.147093
2338.000000	6.151850
2336.000000	6.165954
2334.000000	6.175419
2332.000000	6.179961
2330.000000	6.184614
2328.000000	6.191369
2326.000000	6.197918
2324.000000	6.204212
2322.000000	6.210766
2320.000000	6.216625
2318.000000	6.221367
2316.000000	6.225832
2314.000000	6.231271
2312.000000	6.234191
2310.000000	6.235924
2308.000000	6.239034
2306.000000	6.240145
2304.000000	6.238584
2302.000000	6.236501
2300.000000	6.235848
2298.000000	6.237398
2296.000000	6.238352
2294.000000	6.236303
2292.000000	6.234346
2290.000000	6.234442
2288.000000	6.233306
2286.000000	6.231365
2284.000000	6.230748
2282.000000	6.228670
2280.000000	6.226838
2278.000000	6.224818
2276.000000	6.222811
2274.000000	6.221108
2272.000000	6.219860
2270.000000	6.217569
2268.000000	6.215182
2266.000000	6.212925
2264.000000	6.211441
2262.000000	6.211206
2260.000000	6.209852
2258.000000	6.207943
2256.000000	6.205835
2254.000000	6.203036
2252.000000	6.200992
2250.000000	6.201682
2248.000000	6.201909
2246.000000	6.201745
2244.000000	6.202280
2242.000000	6.200115
2240.000000	6.198268
2238.000000	6.198576
2236.000000	6.199295
2234.000000	6.199144
2232.000000	6.199531
2230.000000	6.200980
2228.000000	6.201267
2226.000000	6.200277
2224.000000	6.200053
2222.000000	6.199504
2220.000000	6.199262
2218.000000	6.199986
2216.000000	6.200606
2214.000000	6.202451
2212.000000	6.202128
2210.000000	6.200955
2208.000000	6.200542
2206.000000	6.199246
2204.000000	6.200401
2202.000000	6.201438
2200.000000	6.201173
2198.000000	6.201019
2196.000000	6.201487
2194.000000	6.202503
2192.000000	6.204552
2190.000000	6.206203
2188.000000	6.206642
2186.000000	6.205824
2184.000000	6.206576
2182.000000	6.208266
2180.000000	6.209671
2178.000000	6.210883
2176.000000	6.211768
2174.000000	6.211170
2172.000000	6.209911
2170.000000	6.210626
2168.000000	6.213700
2166.000000	6.215159
2164.000000	6.217284
2162.000000	6.219726
2160.000000	6.220479
2158.000000	6.223361
2156.000000	6.227339
2154.000000	6.228724
2152.000000	6.229824
2150.000000	6.231278
2148.000000	6.233781
2146.000000	6.235783
2144.000000	6.237701
2142.000000	6.238733
2140.000000	6.240410
2138.000000	6.243405
2136.000000	6.246011
2134.000000	6.249083
2132.000000	6.252874
2130.000000	6.256508
2128.000000	6.261337
2126.000000	6.266127
2124.000000	6.269057
2122.000000	6.270757
2120.000000	6.274364
2118.000000	6.279744
2116.000000	6.284564
2114.000000	6.287229
2112.000000	6.289824
2110.000000	6.293828
2108.000000	6.298084
2106.000000	6.303116
2104.000000	6.308737
2102.000000	6.314857
2100.000000	6.320553
2098.000000	6.326160
2096.000000	6.332221
2094.000000	6.337556
2092.000000	6.342098
2090.000000	6.347627
2088.000000	6.354359
2086.000000	6.360001
2084.000000	6.364976
2082.000000	6.370193
2080.000000	6.375890
2078.000000	6.381950
2076.000000	6.388431
2074.000000	6.394233
2072.000000	6.400551
2070.000000	6.406960
2068.000000	6.412905
2066.000000	6.418109
2064.000000	6.424375
2062.000000	6.432314
2060.000000	6.440722
2058.000000	6.447302
2056.000000	6.452805
2054.000000	6.458136
2052.000000	6.462543
2050.000000	6.468433
2048.000000	6.476502
2046.000000	6.482715
2044.000000	6.488321
2042.000000	6.494738
2040.000000	6.501536
2038.000000	6.507632
2036.000000	6.512943
2034.000000	6.517973
2032.000000	6.522344
2030.000000	6.527107
2028.000000	6.534426
2026.000000	6.540878
2024.000000	6.546075
2022.000000	6.550261
2020.000000	6.553206
2018.000000	6.556681
2016.000000	6.562690
2014.000000	6.569581
2012.000000	6.576787
2010.000000	6.582319
2008.000000	6.586502
2006.000000	6.591343
2004.000000	6.597264
2002.000000	6.601449
2000.000000	6.604645
1998.000000	6.606890
1996.000000	6.608376
1994.000000	6.608049
1992.000000	6.611041
1990.000000	6.617947
1988.000000	6.622265
1986.000000	6.625803
1984.000000	6.629893
1982.000000	6.632872
1980.000000	6.635181
1978.000000	6.635558
1976.000000	6.636011
1974.000000	6.637588
1972.000000	6.638552
1970.000000	6.637781
1968.000000	6.635287
1966.000000	6.636408
1964.000000	6.638918
1962.000000	6.638131
1960.000000	6.632893
1958.000000	6.631597
1956.000000	6.637059
1954.000000	6.640114
1952.000000	6.640382
1950.000000	6.639541
1948.000000	6.637690
1946.000000	6.634452
1944.000000	6.630735
1942.000000	6.631139
1940.000000	6.635397
1938.000000	6.636291
1936.000000	6.634129
1934.000000	6.632145
1932.000000	6.632952
1930.000000	6.632271
1928.000000	6.629755
1926.000000	6.625297
1924.000000	6.619064
1922.000000	6.615870
1920.000000	6.608113
1918.000000	6.601034
1916.000000	6.607894
1914.000000	6.609989
1912.000000	6.604613
1910.000000	6.597730
1908.000000	6.595996
1906.000000	6.595071
1904.000000	6.591955
1902.000000	6.586702
1900.000000	6.582431
1898.000000	6.578196
1896.000000	6.573641
1894.000000	6.570465
1892.000000	6.565411
1890.000000	6.557298
1888.000000	6.558322
1886.000000	6.560454
1884.000000	6.559364
1882.000000	6.556862
1880.000000	6.554626
1878.000000	6.551948
1876.000000	6.550405
1874.000000	6.546135
1872.000000	6.534199
1870.000000	6.514930
1868.000000	6.513885
1866.000000	6.524132
1864.000000	6.525567
1862.000000	6.521009
1860.000000	6.517861
1858.000000	6.515766
1856.000000	6.513763
1854.000000	6.508461
1852.000000	6.502382
1850.000000	6.494785
1848.000000	6.483219
1846.000000	6.452753
1844.000000	6.439226
1842.000000	6.460058
1840.000000	6.468288
1838.000000	6.461231
1836.000000	6.454318
1834.000000	6.446422
1832.000000	6.425870
1830.000000	6.407446
1828.000000	6.406465
1826.000000	6.398757
1824.000000	6.397817
1822.000000	6.400284
1820.000000	6.394034
1818.000000	6.383383
1816.000000	6.374787
1814.000000	6.364372
1812.000000	6.350019
1810.000000	6.339750
1808.000000	6.333921
1806.000000	6.323738
1804.000000	6.309096
1802.000000	6.289386
1800.000000	6.276351
1798.000000	6.269130
1796.000000	6.253713
1794.000000	6.215900
1792.000000	6.197655
1790.000000	6.211213
1788.000000	6.212128
1786.000000	6.194755
1784.000000	6.182438
1782.000000	6.171091
1780.000000	6.158888
1778.000000	6.146224
1776.000000	6.118855
1774.000000	6.067651
1772.000000	6.047175
1770.000000	6.061067
1768.000000	6.065019
1766.000000	6.069534
1764.000000	6.048990
1762.000000	6.022479
1760.000000	6.017913
1758.000000	6.004877
1756.000000	5.992041
1754.000000	5.968597
1752.000000	5.924504
1750.000000	5.911117
1748.000000	5.914218
1746.000000	5.907938
1744.000000	5.891679
1742.000000	5.865940
1740.000000	5.844397
1738.000000	5.835503
1736.000000	5.774093
1734.000000	5.732913
1732.000000	5.780767
1730.000000	5.812004
1728.000000	5.816331
1726.000000	5.809573
1724.000000	5.798945
1722.000000	5.784438
1720.000000	5.730464
1718.000000	5.670801
1716.000000	5.690388
1714.000000	5.730739
1712.000000	5.746398
1710.000000	5.738334
1708.000000	5.718090
1706.000000	5.696381
1704.000000	5.680841
1702.000000	5.613611
1700.000000	5.581360
1698.000000	5.593478
1696.000000	5.590186
1694.000000	5.650814
1692.000000	5.687848
1690.000000	5.680616
1688.000000	5.649613
1686.000000	5.565431
1684.000000	5.551130
1682.000000	5.625227
1680.000000	5.655797
1678.000000	5.640302
1676.000000	5.606020
1674.000000	5.610652
1672.000000	5.607701
1670.000000	5.586132
1668.000000	5.602628
1666.000000	5.617582
1664.000000	5.595702
1662.000000	5.589575
1660.000000	5.602054
1658.000000	5.591786
1656.000000	5.511196
1654.000000	5.392249
1652.000000	5.425551
1650.000000	5.513386
1648.000000	5.495010
1646.000000	5.485665
1644.000000	5.524670
1642.000000	5.539425
1640.000000	5.523042
1638.000000	5.472955
1636.000000	5.426068
1634.000000	5.455611
1632.000000	5.487417
1630.000000	5.474649
1628.000000	5.452138
1626.000000	5.426839
1624.000000	5.391451
1622.000000	5.375177
1620.000000	5.346848
1618.000000	5.278898
1616.000000	5.260272
1614.000000	5.276892
1612.000000	5.249218
1610.000000	5.212820
1608.000000	5.195668
1606.000000	5.201220
1604.000000	5.214703
1602.000000	5.229831
1600.000000	5.244162
1598.000000	5.257432
1596.000000	5.265139
1594.000000	5.269679
1592.000000	5.274080
1590.000000	5.278126
1588.000000	5.277730
1586.000000	5.272609
1584.000000	5.266600
1582.000000	5.262023
1580.000000	5.249546
1578.000000	5.197574
1576.000000	5.173619
1574.000000	5.222452
1572.000000	5.226829
1570.000000	5.202308
1568.000000	5.209307
1566.000000	5.211286
1564.000000	5.190155
1562.000000	5.113365
1560.000000	5.007835
1558.000000	5.025398
1556.000000	5.101033
1554.000000	5.141906
1552.000000	5.172828
1550.000000	5.190106
1548.000000	5.200678
1546.000000	5.191258
1544.000000	5.166095
1542.000000	5.121422
1540.000000	5.107399
1538.000000	5.186963
1536.000000	5.246520
1534.000000	5.245062
1532.000000	5.266769
1530.000000	5.282545
1528.000000	5.269642
1526.000000	5.254254
1524.000000	5.229951
1522.000000	5.190820
1520.000000	5.204612
1518.000000	5.222067
1516.000000	5.221196
1514.000000	5.220613
1512.000000	5.207201
1510.000000	5.167854
1508.000000	5.083839
1506.000000	5.053617
1504.000000	5.082784
1502.000000	5.027961
1500.000000	4.868838
1498.000000	4.667704
1496.000000	4.533919
1494.000000	4.531018
1492.000000	4.600989
1490.000000	4.704604
1488.000000	4.820299
1486.000000	4.915594
1484.000000	4.975762
1482.000000	5.002051
1480.000000	5.014719
1478.000000	5.006856
1476.000000	4.982690
1474.000000	4.949002
1472.000000	4.944420
1470.000000	4.964417
1468.000000	4.952449
1466.000000	4.914638
1464.000000	4.895947
1462.000000	4.881557
1460.000000	4.814542
1458.000000	4.704770
1456.000000	4.654335
1454.000000	4.646552
1452.000000	4.623537
1450.000000	4.634622
1448.000000	4.686203
1446.000000	4.742612
1444.000000	4.769360
1442.000000	4.775832
1440.000000	4.767369
1438.000000	4.738635
1436.000000	4.741917
1434.000000	4.775882
1432.000000	4.780726
1430.000000	4.776303
1428.000000	4.780206
1426.000000	4.781443
1424.000000	4.774743
1422.000000	4.756721
1420.000000	4.723339
1418.000000	4.727087
1416.000000	4.742396
1414.000000	4.735405
1412.000000	4.712120
1410.000000	4.679918
1408.000000	4.635592
1406.000000	4.589047
1404.000000	4.566279
1402.000000	4.570010
1400.000000	4.581558
1398.000000	4.608578
1396.000000	4.630300
1394.000000	4.649640
1392.000000	4.672572
1390.000000	4.672872
1388.000000	4.652316
1386.000000	4.638510
1384.000000	4.636359
1382.000000	4.645534
1380.000000	4.652455
1378.000000	4.648308
1376.000000	4.637746
1374.000000	4.629953
1372.000000	4.630189
1370.000000	4.626056
1368.000000	4.618682
1366.000000	4.609945
1364.000000	4.596061
1362.000000	4.586946
1360.000000	4.583311
1358.000000	4.576998
1356.000000	4.565945
1354.000000	4.552267
1352.000000	4.539866
1350.000000	4.527917
1348.000000	4.515394
1346.000000	4.502193
1344.000000	4.487187
1342.000000	4.470885
1340.000000	4.457092
1338.000000	4.450896
1336.000000	4.448601
1334.000000	4.442929
1332.000000	4.432653
1330.000000	4.422299
1328.000000	4.411531
1326.000000	4.397760
1324.000000	4.379718
1322.000000	4.361959
1320.000000	4.343653
1318.000000	4.326113
1316.000000	4.308579
1314.000000	4.290377
1312.000000	4.272420
1310.000000	4.254007
1308.000000	4.233319
1306.000000	4.214035
1304.000000	4.194282
1302.000000	4.174480
1300.000000	4.153668
1298.000000	4.133081
1296.000000	4.112397
1294.000000	4.090415
1292.000000	4.066832
1290.000000	4.043441
1288.000000	4.019452
1286.000000	3.995724
1284.000000	3.970807
1282.000000	3.945254
1280.000000	3.918461
1278.000000	3.888873
1276.000000	3.855718
1274.000000	3.817762
1272.000000	3.772604
1270.000000	3.717206
1268.000000	3.643970
1266.000000	3.557303
1264.000000	3.470126
1262.000000	3.400283
1260.000000	3.368054
1258.000000	3.375534
1256.000000	3.400945
1254.000000	3.421114
1252.000000	3.423987
1250.000000	3.412462
1248.000000	3.390409
1246.000000	3.361514
1244.000000	3.330996
1242.000000	3.300779
1240.000000	3.271128
1238.000000	3.243018
1236.000000	3.214575
1234.000000	3.185812
1232.000000	3.160452
1230.000000	3.134525
1228.000000	3.107829
1226.000000	3.082406
1224.000000	3.055030
1222.000000	3.025509
1220.000000	2.996660
1218.000000	2.968996
1216.000000	2.938304
1214.000000	2.906027
1212.000000	2.875612
1210.000000	2.849479
1208.000000	2.825567
1206.000000	2.801803
1204.000000	2.778864
1202.000000	2.756348
1200.000000	2.731824
1198.000000	2.707840
1196.000000	2.684279
1194.000000	2.659241
1192.000000	2.632471
1190.000000	2.606659
1188.000000	2.581377
1186.000000	2.552682
1184.000000	2.516077
1182.000000	2.471717
1180.000000	2.439280
1178.000000	2.425986
1176.000000	2.412278
1174.000000	2.389780
1172.000000	2.362975
1170.000000	2.334733
1168.000000	2.305571
1166.000000	2.275603
1164.000000	2.245938
1162.000000	2.218688
1160.000000	2.192008
1158.000000	2.165364
1156.000000	2.140014
1154.000000	2.115468
1152.000000	2.090449
1150.000000	2.066988
1148.000000	2.041888
1146.000000	2.015059
1144.000000	1.989086
1142.000000	1.966302
1140.000000	1.948603
1138.000000	1.930997
1136.000000	1.908205
1134.000000	1.883477
1132.000000	1.858183
1130.000000	1.832283
1128.000000	1.807865
1126.000000	1.784322
1124.000000	1.758303
1122.000000	1.731844
1120.000000	1.703999
1118.000000	1.675618
1116.000000	1.647936
1114.000000	1.618377
1112.000000	1.589530
1110.000000	1.561194
1108.000000	1.532714
1106.000000	1.506256
1104.000000	1.481727
1102.000000	1.458303
1100.000000	1.432558
1098.000000	1.406633
1096.000000	1.382403
1094.000000	1.359098
1092.000000	1.337788
1090.000000	1.318027
1088.000000	1.297384
1086.000000	1.276790
1084.000000	1.255313
1082.000000	1.234240
1080.000000	1.215771
1078.000000	1.199037
1076.000000	1.183461
1074.000000	1.171498
1072.000000	1.159860
1070.000000	1.146550
1068.000000	1.133220
1066.000000	1.120063
1064.000000	1.107553
1062.000000	1.095482
1060.000000	1.082260
1058.000000	1.066008
1056.000000	1.042765
1054.000000	1.011247
1052.000000	0.981072
1050.000000	0.966436
1048.000000	0.966259
1046.000000	0.972383
1044.000000	0.973924
1042.000000	0.966201
1040.000000	0.954807
1038.000000	0.944960
1036.000000	0.933428
1034.000000	0.918730
1032.000000	0.902668
1030.000000	0.885879
1028.000000	0.869431
1026.000000	0.853509
1024.000000	0.837898
1022.000000	0.822676
1020.000000	0.807491
1018.000000	0.792547
1016.000000	0.778762
1014.000000	0.766658
1012.000000	0.755196
1010.000000	0.745972
1008.000000	0.739225
1006.000000	0.730655
1004.000000	0.717650
1002.000000	0.703784
1000.000000	0.691301
