PE IR       SUBTECH     SPECTRUM    ASCII       PEDS        4.00        
   -1
TE109A_070_140K_SB.ASC
20/04/21
19:47:42.00
20/04/21
19:47:42.00
Administrator
TE109A, Tuesday, April 21 2020, 070.
1000.000000
#HDR
-1
-1
#GR
cm-1
EGY
1.0
0.0
6000.000000
-2.000000
2501
8
11.499970
1.198331
#DATA
6000.000000	1.994865
5998.000000	1.999309
5996.000000	2.003135
5994.000000	2.005068
5992.000000	2.007937
5990.000000	2.012790
5988.000000	2.019014
5986.000000	2.022849
5984.000000	2.024996
5982.000000	2.027412
5980.000000	2.031605
5978.000000	2.037433
5976.000000	2.042573
5974.000000	2.047431
5972.000000	2.051639
5970.000000	2.056032
5968.000000	2.061272
5966.000000	2.066298
5964.000000	2.070564
5962.000000	2.073241
5960.000000	2.076968
5958.000000	2.081171
5956.000000	2.085287
5954.000000	2.088623
5952.000000	2.091456
5950.000000	2.095965
5948.000000	2.101717
5946.000000	2.107243
5944.000000	2.111416
5942.000000	2.113503
5940.000000	2.117016
5938.000000	2.121027
5936.000000	2.125205
5934.000000	2.128878
5932.000000	2.131377
5930.000000	2.134438
5928.000000	2.137968
5926.000000	2.143317
5924.000000	2.150024
5922.000000	2.156326
5920.000000	2.160615
5918.000000	2.164215
5916.000000	2.167839
5914.000000	2.171415
5912.000000	2.176550
5910.000000	2.182295
5908.000000	2.187290
5906.000000	2.190825
5904.000000	2.193068
5902.000000	2.197070
5900.000000	2.201918
5898.000000	2.206547
5896.000000	2.211046
5894.000000	2.214885
5892.000000	2.220172
5890.000000	2.225669
5888.000000	2.230059
5886.000000	2.233234
5884.000000	2.236419
5882.000000	2.241242
5880.000000	2.245908
5878.000000	2.248650
5876.000000	2.250790
5874.000000	2.255507
5872.000000	2.262595
5870.000000	2.267885
5868.000000	2.271757
5866.000000	2.276041
5864.000000	2.280934
5862.000000	2.286697
5860.000000	2.290484
5858.000000	2.294324
5856.000000	2.298753
5854.000000	2.302688
5852.000000	2.307917
5850.000000	2.314285
5848.000000	2.321805
5846.000000	2.327540
5844.000000	2.331353
5842.000000	2.334499
5840.000000	2.338985
5838.000000	2.344481
5836.000000	2.349335
5834.000000	2.354597
5832.000000	2.359584
5830.000000	2.363555
5828.000000	2.367266
5826.000000	2.372311
5824.000000	2.379464
5822.000000	2.385250
5820.000000	2.389445
5818.000000	2.393050
5816.000000	2.398379
5814.000000	2.403161
5812.000000	2.407794
5810.000000	2.412448
5808.000000	2.417442
5806.000000	2.421239
5804.000000	2.425881
5802.000000	2.431598
5800.000000	2.436672
5798.000000	2.440800
5796.000000	2.444706
5794.000000	2.449967
5792.000000	2.455231
5790.000000	2.459470
5788.000000	2.463451
5786.000000	2.468956
5784.000000	2.475515
5782.000000	2.481486
5780.000000	2.486529
5778.000000	2.490670
5776.000000	2.494380
5774.000000	2.499596
5772.000000	2.504352
5770.000000	2.509454
5768.000000	2.514097
5766.000000	2.518622
5764.000000	2.524765
5762.000000	2.530719
5760.000000	2.537087
5758.000000	2.542783
5756.000000	2.546868
5754.000000	2.550446
5752.000000	2.554955
5750.000000	2.561504
5748.000000	2.566338
5746.000000	2.570614
5744.000000	2.575197
5742.000000	2.580608
5740.000000	2.585344
5738.000000	2.590135
5736.000000	2.595297
5734.000000	2.601077
5732.000000	2.605666
5730.000000	2.610461
5728.000000	2.615649
5726.000000	2.621127
5724.000000	2.626676
5722.000000	2.632638
5720.000000	2.636950
5718.000000	2.640146
5716.000000	2.642861
5714.000000	2.647063
5712.000000	2.652333
5710.000000	2.658771
5708.000000	2.666591
5706.000000	2.673001
5704.000000	2.677455
5702.000000	2.680599
5700.000000	2.685396
5698.000000	2.691081
5696.000000	2.697053
5694.000000	2.702752
5692.000000	2.706982
5690.000000	2.711372
5688.000000	2.715748
5686.000000	2.720595
5684.000000	2.725596
5682.000000	2.730806
5680.000000	2.737593
5678.000000	2.744044
5676.000000	2.750161
5674.000000	2.756596
5672.000000	2.761422
5670.000000	2.766563
5668.000000	2.771742
5666.000000	2.777429
5664.000000	2.782396
5662.000000	2.787658
5660.000000	2.795604
5658.000000	2.802075
5656.000000	2.806177
5654.000000	2.808841
5652.000000	2.813860
5650.000000	2.821881
5648.000000	2.830172
5646.000000	2.836204
5644.000000	2.840811
5642.000000	2.845814
5640.000000	2.851102
5638.000000	2.855987
5636.000000	2.860255
5634.000000	2.865279
5632.000000	2.871731
5630.000000	2.878416
5628.000000	2.884035
5626.000000	2.888516
5624.000000	2.892345
5622.000000	2.897073
5620.000000	2.903469
5618.000000	2.909647
5616.000000	2.915365
5614.000000	2.919634
5612.000000	2.923888
5610.000000	2.928924
5608.000000	2.934615
5606.000000	2.940299
5604.000000	2.946311
5602.000000	2.952816
5600.000000	2.959026
5598.000000	2.964507
5596.000000	2.968506
5594.000000	2.972507
5592.000000	2.978258
5590.000000	2.984960
5588.000000	2.992012
5586.000000	2.997889
5584.000000	3.003113
5582.000000	3.008348
5580.000000	3.013478
5578.000000	3.018017
5576.000000	3.022485
5574.000000	3.028558
5572.000000	3.034824
5570.000000	3.041761
5568.000000	3.047966
5566.000000	3.053763
5564.000000	3.058981
5562.000000	3.064037
5560.000000	3.071088
5558.000000	3.077679
5556.000000	3.083208
5554.000000	3.089385
5552.000000	3.096511
5550.000000	3.102801
5548.000000	3.107051
5546.000000	3.111794
5544.000000	3.118338
5542.000000	3.124574
5540.000000	3.129484
5538.000000	3.133870
5536.000000	3.139023
5534.000000	3.144283
5532.000000	3.151137
5530.000000	3.158233
5528.000000	3.164620
5526.000000	3.168800
5524.000000	3.172583
5522.000000	3.178069
5520.000000	3.184487
5518.000000	3.191119
5516.000000	3.196222
5514.000000	3.200885
5512.000000	3.206625
5510.000000	3.212084
5508.000000	3.218178
5506.000000	3.226017
5504.000000	3.233915
5502.000000	3.239679
5500.000000	3.244075
5498.000000	3.250334
5496.000000	3.256537
5494.000000	3.259672
5492.000000	3.263200
5490.000000	3.268955
5488.000000	3.276318
5486.000000	3.282864
5484.000000	3.289081
5482.000000	3.295928
5480.000000	3.301730
5478.000000	3.305832
5476.000000	3.311255
5474.000000	3.319234
5472.000000	3.327269
5470.000000	3.331565
5468.000000	3.334961
5466.000000	3.341243
5464.000000	3.349525
5462.000000	3.357278
5460.000000	3.363348
5458.000000	3.367853
5456.000000	3.373520
5454.000000	3.379041
5452.000000	3.385243
5450.000000	3.389760
5448.000000	3.394588
5446.000000	3.400141
5444.000000	3.405891
5442.000000	3.412541
5440.000000	3.420037
5438.000000	3.427341
5436.000000	3.433292
5434.000000	3.437523
5432.000000	3.441152
5430.000000	3.445135
5428.000000	3.450322
5426.000000	3.457991
5424.000000	3.466571
5422.000000	3.474202
5420.000000	3.480099
5418.000000	3.484754
5416.000000	3.488824
5414.000000	3.492900
5412.000000	3.498441
5410.000000	3.504337
5408.000000	3.510128
5406.000000	3.516834
5404.000000	3.523613
5402.000000	3.529323
5400.000000	3.534094
5398.000000	3.541022
5396.000000	3.548151
5394.000000	3.553320
5392.000000	3.559117
5390.000000	3.565641
5388.000000	3.572445
5386.000000	3.577296
5384.000000	3.583531
5382.000000	3.590565
5380.000000	3.596583
5378.000000	3.601311
5376.000000	3.606734
5374.000000	3.615152
5372.000000	3.623390
5370.000000	3.630078
5368.000000	3.635758
5366.000000	3.642165
5364.000000	3.649070
5362.000000	3.655530
5360.000000	3.660997
5358.000000	3.665358
5356.000000	3.668802
5354.000000	3.674002
5352.000000	3.680963
5350.000000	3.688245
5348.000000	3.693514
5346.000000	3.698694
5344.000000	3.705991
5342.000000	3.712827
5340.000000	3.716769
5338.000000	3.720798
5336.000000	3.727607
5334.000000	3.735384
5332.000000	3.741882
5330.000000	3.746533
5328.000000	3.751915
5326.000000	3.758950
5324.000000	3.766540
5322.000000	3.772515
5320.000000	3.778089
5318.000000	3.785492
5316.000000	3.793166
5314.000000	3.798012
5312.000000	3.801201
5310.000000	3.806125
5308.000000	3.812456
5306.000000	3.819369
5304.000000	3.825271
5302.000000	3.830599
5300.000000	3.836276
5298.000000	3.842161
5296.000000	3.847627
5294.000000	3.850713
5292.000000	3.853852
5290.000000	3.859587
5288.000000	3.867594
5286.000000	3.875061
5284.000000	3.881839
5282.000000	3.888565
5280.000000	3.895778
5278.000000	3.901678
5276.000000	3.907007
5274.000000	3.912720
5272.000000	3.919123
5270.000000	3.925677
5268.000000	3.930081
5266.000000	3.934504
5264.000000	3.939801
5262.000000	3.946500
5260.000000	3.953328
5258.000000	3.958140
5256.000000	3.963009
5254.000000	3.966638
5252.000000	3.971320
5250.000000	3.977815
5248.000000	3.984649
5246.000000	3.989566
5244.000000	3.994935
5242.000000	4.003296
5240.000000	4.012010
5238.000000	4.017319
5236.000000	4.020605
5234.000000	4.024450
5232.000000	4.030109
5230.000000	4.036517
5228.000000	4.041404
5226.000000	4.045584
5224.000000	4.051120
5222.000000	4.057462
5220.000000	4.062588
5218.000000	4.067007
5216.000000	4.073319
5214.000000	4.079989
5212.000000	4.085250
5210.000000	4.088654
5208.000000	4.091274
5206.000000	4.095965
5204.000000	4.102479
5202.000000	4.109836
5200.000000	4.114826
5198.000000	4.118659
5196.000000	4.123572
5194.000000	4.129678
5192.000000	4.136060
5190.000000	4.141888
5188.000000	4.147660
5186.000000	4.153123
5184.000000	4.159126
5182.000000	4.165531
5180.000000	4.171161
5178.000000	4.176295
5176.000000	4.180694
5174.000000	4.184285
5172.000000	4.188766
5170.000000	4.195418
5168.000000	4.202399
5166.000000	4.208228
5164.000000	4.212524
5162.000000	4.215902
5160.000000	4.220270
5158.000000	4.227159
5156.000000	4.234114
5154.000000	4.239800
5152.000000	4.244727
5150.000000	4.250007
5148.000000	4.255287
5146.000000	4.261604
5144.000000	4.267892
5142.000000	4.273394
5140.000000	4.278571
5138.000000	4.283588
5136.000000	4.289000
5134.000000	4.294665
5132.000000	4.300289
5130.000000	4.305175
5128.000000	4.309231
5126.000000	4.313998
5124.000000	4.319437
5122.000000	4.325220
5120.000000	4.330217
5118.000000	4.335409
5116.000000	4.340696
5114.000000	4.345485
5112.000000	4.350458
5110.000000	4.357058
5108.000000	4.364166
5106.000000	4.368972
5104.000000	4.373680
5102.000000	4.380263
5100.000000	4.387166
5098.000000	4.392437
5096.000000	4.398893
5094.000000	4.405085
5092.000000	4.409779
5090.000000	4.415182
5088.000000	4.421551
5086.000000	4.428269
5084.000000	4.436165
5082.000000	4.444181
5080.000000	4.449883
5078.000000	4.454259
5076.000000	4.460482
5074.000000	4.467008
5072.000000	4.473894
5070.000000	4.481276
5068.000000	4.487865
5066.000000	4.493706
5064.000000	4.499387
5062.000000	4.506455
5060.000000	4.512003
5058.000000	4.515901
5056.000000	4.520976
5054.000000	4.528142
5052.000000	4.535699
5050.000000	4.541880
5048.000000	4.547200
5046.000000	4.552860
5044.000000	4.559774
5042.000000	4.567220
5040.000000	4.572168
5038.000000	4.576358
5036.000000	4.582606
5034.000000	4.590609
5032.000000	4.597622
5030.000000	4.603148
5028.000000	4.609307
5026.000000	4.616768
5024.000000	4.623837
5022.000000	4.629921
5020.000000	4.635719
5018.000000	4.641482
5016.000000	4.647414
5014.000000	4.654010
5012.000000	4.660460
5010.000000	4.666318
5008.000000	4.672111
5006.000000	4.678074
5004.000000	4.684773
5002.000000	4.691540
5000.000000	4.699112
4998.000000	4.708141
4996.000000	4.717287
4994.000000	4.723522
4992.000000	4.727866
4990.000000	4.734590
4988.000000	4.742864
4986.000000	4.750240
4984.000000	4.756526
4982.000000	4.762677
4980.000000	4.769207
4978.000000	4.776294
4976.000000	4.784566
4974.000000	4.793325
4972.000000	4.801014
4970.000000	4.807277
4968.000000	4.812911
4966.000000	4.819325
4964.000000	4.827002
4962.000000	4.834551
4960.000000	4.841345
4958.000000	4.848374
4956.000000	4.855831
4954.000000	4.862232
4952.000000	4.867621
4950.000000	4.872624
4948.000000	4.879612
4946.000000	4.887932
4944.000000	4.896605
4942.000000	4.904473
4940.000000	4.912189
4938.000000	4.917448
4936.000000	4.921322
4934.000000	4.928376
4932.000000	4.937882
4930.000000	4.945283
4928.000000	4.950818
4926.000000	4.957691
4924.000000	4.964962
4922.000000	4.972126
4920.000000	4.979359
4918.000000	4.986156
4916.000000	4.991899
4914.000000	4.998726
4912.000000	5.006599
4910.000000	5.014199
4908.000000	5.021691
4906.000000	5.029384
4904.000000	5.036471
4902.000000	5.043887
4900.000000	5.052252
4898.000000	5.060997
4896.000000	5.069031
4894.000000	5.077430
4892.000000	5.085748
4890.000000	5.093221
4888.000000	5.099486
4886.000000	5.105847
4884.000000	5.113165
4882.000000	5.121444
4880.000000	5.130094
4878.000000	5.138274
4876.000000	5.145173
4874.000000	5.151580
4872.000000	5.158870
4870.000000	5.167032
4868.000000	5.174039
4866.000000	5.179964
4864.000000	5.186382
4862.000000	5.195091
4860.000000	5.204775
4858.000000	5.212534
4856.000000	5.218958
4854.000000	5.226312
4852.000000	5.234924
4850.000000	5.241856
4848.000000	5.247453
4846.000000	5.253672
4844.000000	5.262181
4842.000000	5.271751
4840.000000	5.280038
4838.000000	5.287094
4836.000000	5.295428
4834.000000	5.304339
4832.000000	5.311421
4830.000000	5.317504
4828.000000	5.324786
4826.000000	5.333071
4824.000000	5.340953
4822.000000	5.349280
4820.000000	5.357788
4818.000000	5.365708
4816.000000	5.373249
4814.000000	5.381154
4812.000000	5.389627
4810.000000	5.398653
4808.000000	5.407688
4806.000000	5.415401
4804.000000	5.423011
4802.000000	5.430850
4800.000000	5.439007
4798.000000	5.448091
4796.000000	5.456551
4794.000000	5.463838
4792.000000	5.471459
4790.000000	5.480619
4788.000000	5.490569
4786.000000	5.500046
4784.000000	5.507229
4782.000000	5.514644
4780.000000	5.524440
4778.000000	5.534190
4776.000000	5.542606
4774.000000	5.552067
4772.000000	5.560823
4770.000000	5.567366
4768.000000	5.574047
4766.000000	5.583452
4764.000000	5.593100
4762.000000	5.601145
4760.000000	5.609003
4758.000000	5.617595
4756.000000	5.625990
4754.000000	5.633406
4752.000000	5.640485
4750.000000	5.648170
4748.000000	5.656915
4746.000000	5.665806
4744.000000	5.673974
4742.000000	5.681954
4740.000000	5.689935
4738.000000	5.697785
4736.000000	5.705871
4734.000000	5.714785
4732.000000	5.723135
4730.000000	5.730866
4728.000000	5.738273
4726.000000	5.745414
4724.000000	5.753723
4722.000000	5.763662
4720.000000	5.773033
4718.000000	5.781837
4716.000000	5.790394
4714.000000	5.797751
4712.000000	5.804743
4710.000000	5.812921
4708.000000	5.821427
4706.000000	5.830811
4704.000000	5.840076
4702.000000	5.848927
4700.000000	5.858173
4698.000000	5.867696
4696.000000	5.876532
4694.000000	5.885596
4692.000000	5.895325
4690.000000	5.904477
4688.000000	5.912725
4686.000000	5.920776
4684.000000	5.928365
4682.000000	5.936630
4680.000000	5.946552
4678.000000	5.955655
4676.000000	5.962399
4674.000000	5.969592
4672.000000	5.977963
4670.000000	5.986028
4668.000000	5.994001
4666.000000	6.002349
4664.000000	6.010415
4662.000000	6.019187
4660.000000	6.028386
4658.000000	6.037546
4656.000000	6.045958
4654.000000	6.053693
4652.000000	6.060448
4650.000000	6.067182
4648.000000	6.075037
4646.000000	6.083862
4644.000000	6.092169
4642.000000	6.098840
4640.000000	6.105199
4638.000000	6.113626
4636.000000	6.122846
4634.000000	6.131057
4632.000000	6.139248
4630.000000	6.147505
4628.000000	6.154636
4626.000000	6.162104
4624.000000	6.169814
4622.000000	6.177571
4620.000000	6.187406
4618.000000	6.198160
4616.000000	6.206365
4614.000000	6.212679
4612.000000	6.219378
4610.000000	6.226278
4608.000000	6.233999
4606.000000	6.243520
4604.000000	6.254403
4602.000000	6.263584
4600.000000	6.269984
4598.000000	6.276010
4596.000000	6.284038
4594.000000	6.293686
4592.000000	6.303809
4590.000000	6.314812
4588.000000	6.324438
4586.000000	6.330787
4584.000000	6.337161
4582.000000	6.346492
4580.000000	6.356062
4578.000000	6.364348
4576.000000	6.372768
4574.000000	6.380232
4572.000000	6.387256
4570.000000	6.396246
4568.000000	6.405563
4566.000000	6.413237
4564.000000	6.420644
4562.000000	6.428062
4560.000000	6.435156
4558.000000	6.443221
4556.000000	6.450865
4554.000000	6.457887
4552.000000	6.466090
4550.000000	6.475396
4548.000000	6.483720
4546.000000	6.491965
4544.000000	6.500136
4542.000000	6.508079
4540.000000	6.515161
4538.000000	6.522525
4536.000000	6.529829
4534.000000	6.537391
4532.000000	6.544589
4530.000000	6.551981
4528.000000	6.560337
4526.000000	6.569974
4524.000000	6.579151
4522.000000	6.587199
4520.000000	6.595642
4518.000000	6.605116
4516.000000	6.613654
4514.000000	6.619976
4512.000000	6.626608
4510.000000	6.634275
4508.000000	6.641647
4506.000000	6.649567
4504.000000	6.658771
4502.000000	6.667958
4500.000000	6.676998
4498.000000	6.686203
4496.000000	6.694573
4494.000000	6.703143
4492.000000	6.711398
4490.000000	6.719615
4488.000000	6.728669
4486.000000	6.737272
4484.000000	6.744249
4482.000000	6.752554
4480.000000	6.761184
4478.000000	6.769717
4476.000000	6.778938
4474.000000	6.787006
4472.000000	6.792568
4470.000000	6.798490
4468.000000	6.806269
4466.000000	6.815455
4464.000000	6.824096
4462.000000	6.831630
4460.000000	6.839008
4458.000000	6.847004
4456.000000	6.854911
4454.000000	6.862221
4452.000000	6.869434
4450.000000	6.877439
4448.000000	6.885425
4446.000000	6.891939
4444.000000	6.898036
4442.000000	6.906455
4440.000000	6.916672
4438.000000	6.925772
4436.000000	6.933132
4434.000000	6.940434
4432.000000	6.948041
4430.000000	6.955987
4428.000000	6.963587
4426.000000	6.969321
4424.000000	6.974504
4422.000000	6.982446
4420.000000	6.992295
4418.000000	7.001331
4416.000000	7.008647
4414.000000	7.015784
4412.000000	7.024379
4410.000000	7.033081
4408.000000	7.040444
4406.000000	7.048487
4404.000000	7.056915
4402.000000	7.064930
4400.000000	7.073767
4398.000000	7.082833
4396.000000	7.089853
4394.000000	7.096259
4392.000000	7.102889
4390.000000	7.109132
4388.000000	7.116073
4386.000000	7.123910
4384.000000	7.131156
4382.000000	7.138552
4380.000000	7.147084
4378.000000	7.155282
4376.000000	7.163515
4374.000000	7.171636
4372.000000	7.178028
4370.000000	7.183175
4368.000000	7.188981
4366.000000	7.195480
4364.000000	7.201943
4362.000000	7.209540
4360.000000	7.218251
4358.000000	7.225697
4356.000000	7.232722
4354.000000	7.240880
4352.000000	7.248205
4350.000000	7.254670
4348.000000	7.261412
4346.000000	7.268206
4344.000000	7.275865
4342.000000	7.284506
4340.000000	7.292671
4338.000000	7.300109
4336.000000	7.307402
4334.000000	7.313997
4332.000000	7.320078
4330.000000	7.327238
4328.000000	7.334949
4326.000000	7.342347
4324.000000	7.350644
4322.000000	7.360567
4320.000000	7.369053
4318.000000	7.374338
4316.000000	7.379325
4314.000000	7.386584
4312.000000	7.395447
4310.000000	7.404410
4308.000000	7.412100
4306.000000	7.419373
4304.000000	7.427836
4302.000000	7.436639
4300.000000	7.444002
4298.000000	7.451270
4296.000000	7.458839
4294.000000	7.466217
4292.000000	7.473886
4290.000000	7.482090
4288.000000	7.490002
4286.000000	7.496606
4284.000000	7.502114
4282.000000	7.508882
4280.000000	7.516694
4278.000000	7.524732
4276.000000	7.532747
4274.000000	7.539581
4272.000000	7.545189
4270.000000	7.551151
4268.000000	7.557864
4266.000000	7.564607
4264.000000	7.572258
4262.000000	7.580580
4260.000000	7.587100
4258.000000	7.593601
4256.000000	7.601360
4254.000000	7.609316
4252.000000	7.616527
4250.000000	7.622694
4248.000000	7.630197
4246.000000	7.639893
4244.000000	7.647498
4242.000000	7.653126
4240.000000	7.659925
4238.000000	7.667847
4236.000000	7.675211
4234.000000	7.683229
4232.000000	7.692331
4230.000000	7.699880
4228.000000	7.705815
4226.000000	7.712144
4224.000000	7.719149
4222.000000	7.727450
4220.000000	7.736069
4218.000000	7.743620
4216.000000	7.751031
4214.000000	7.759037
4212.000000	7.766697
4210.000000	7.774106
4208.000000	7.783054
4206.000000	7.793711
4204.000000	7.802768
4202.000000	7.810051
4200.000000	7.818023
4198.000000	7.827254
4196.000000	7.835913
4194.000000	7.843833
4192.000000	7.852869
4190.000000	7.863411
4188.000000	7.871828
4186.000000	7.877877
4184.000000	7.883972
4182.000000	7.890798
4180.000000	7.898350
4178.000000	7.907934
4176.000000	7.916913
4174.000000	7.923949
4172.000000	7.931436
4170.000000	7.939788
4168.000000	7.947345
4166.000000	7.954815
4164.000000	7.962998
4162.000000	7.971375
4160.000000	7.978202
4158.000000	7.985180
4156.000000	7.993704
4154.000000	8.001867
4152.000000	8.009308
4150.000000	8.017248
4148.000000	8.025555
4146.000000	8.034295
4144.000000	8.042965
4142.000000	8.051375
4140.000000	8.060452
4138.000000	8.069853
4136.000000	8.078165
4134.000000	8.085067
4132.000000	8.091744
4130.000000	8.099829
4128.000000	8.108896
4126.000000	8.116940
4124.000000	8.123683
4122.000000	8.131832
4120.000000	8.141493
4118.000000	8.150310
4116.000000	8.158790
4114.000000	8.167971
4112.000000	8.176661
4110.000000	8.185189
4108.000000	8.194169
4106.000000	8.202682
4104.000000	8.209720
4102.000000	8.216983
4100.000000	8.224982
4098.000000	8.232639
4096.000000	8.239740
4094.000000	8.247653
4092.000000	8.257427
4090.000000	8.267651
4088.000000	8.275865
4086.000000	8.283611
4084.000000	8.291824
4082.000000	8.299841
4080.000000	8.307481
4078.000000	8.315125
4076.000000	8.323270
4074.000000	8.332498
4072.000000	8.341485
4070.000000	8.350289
4068.000000	8.359772
4066.000000	8.368965
4064.000000	8.376235
4062.000000	8.381519
4060.000000	8.387753
4058.000000	8.397839
4056.000000	8.408138
4054.000000	8.415505
4052.000000	8.421457
4050.000000	8.428489
4048.000000	8.437688
4046.000000	8.448249
4044.000000	8.458178
4042.000000	8.466059
4040.000000	8.473379
4038.000000	8.481557
4036.000000	8.490127
4034.000000	8.500170
4032.000000	8.509875
4030.000000	8.517579
4028.000000	8.525597
4026.000000	8.533445
4024.000000	8.540556
4022.000000	8.548520
4020.000000	8.557595
4018.000000	8.567327
4016.000000	8.577011
4014.000000	8.586345
4012.000000	8.594835
4010.000000	8.602921
4008.000000	8.611805
4006.000000	8.620478
4004.000000	8.629445
4002.000000	8.639717
4000.000000	8.649197
3998.000000	8.657422
3996.000000	8.666339
3994.000000	8.675707
3992.000000	8.683528
3990.000000	8.691257
3988.000000	8.700474
3986.000000	8.709333
3984.000000	8.718029
3982.000000	8.726829
3980.000000	8.734819
3978.000000	8.742284
3976.000000	8.749450
3974.000000	8.757496
3972.000000	8.765806
3970.000000	8.774158
3968.000000	8.783609
3966.000000	8.792876
3964.000000	8.800558
3962.000000	8.808323
3960.000000	8.818062
3958.000000	8.827661
3956.000000	8.835471
3954.000000	8.841997
3952.000000	8.847474
3950.000000	8.854524
3948.000000	8.865231
3946.000000	8.875145
3944.000000	8.880815
3942.000000	8.890094
3940.000000	8.904815
3938.000000	8.916006
3936.000000	8.921681
3934.000000	8.926084
3932.000000	8.933319
3930.000000	8.944984
3928.000000	8.956703
3926.000000	8.965499
3924.000000	8.975194
3922.000000	8.984507
3920.000000	8.988955
3918.000000	8.995296
3916.000000	9.011270
3914.000000	9.032031
3912.000000	9.047064
3910.000000	9.053832
3908.000000	9.051153
3906.000000	9.038863
3904.000000	9.032525
3902.000000	9.042796
3900.000000	9.065870
3898.000000	9.093805
3896.000000	9.112292
3894.000000	9.113966
3892.000000	9.115951
3890.000000	9.128801
3888.000000	9.130477
3886.000000	9.129487
3884.000000	9.145434
3882.000000	9.159475
3880.000000	9.173441
3878.000000	9.191034
3876.000000	9.197416
3874.000000	9.192748
3872.000000	9.179580
3870.000000	9.180487
3868.000000	9.202614
3866.000000	9.219910
3864.000000	9.236334
3862.000000	9.260224
3860.000000	9.277264
3858.000000	9.254743
3856.000000	9.182564
3854.000000	9.148670
3852.000000	9.212330
3850.000000	9.298047
3848.000000	9.338888
3846.000000	9.345605
3844.000000	9.342375
3842.000000	9.330739
3840.000000	9.306085
3838.000000	9.302621
3836.000000	9.337411
3834.000000	9.373877
3832.000000	9.397773
3830.000000	9.417594
3828.000000	9.429731
3826.000000	9.433983
3824.000000	9.421274
3822.000000	9.408927
3820.000000	9.419065
3818.000000	9.420209
3816.000000	9.431850
3814.000000	9.480769
3812.000000	9.515865
3810.000000	9.510788
3808.000000	9.496228
3806.000000	9.501865
3804.000000	9.496912
3802.000000	9.487437
3800.000000	9.518592
3798.000000	9.557150
3796.000000	9.580412
3794.000000	9.602435
3792.000000	9.618514
3790.000000	9.626481
3788.000000	9.630291
3786.000000	9.636207
3784.000000	9.644268
3782.000000	9.647082
3780.000000	9.650020
3778.000000	9.664130
3776.000000	9.681127
3774.000000	9.686301
3772.000000	9.678084
3770.000000	9.676729
3768.000000	9.689280
3766.000000	9.704318
3764.000000	9.717646
3762.000000	9.720748
3760.000000	9.719663
3758.000000	9.727163
3756.000000	9.720265
3754.000000	9.676522
3752.000000	9.636394
3750.000000	9.647613
3748.000000	9.667675
3746.000000	9.651453
3744.000000	9.673779
3742.000000	9.746882
3740.000000	9.776153
3738.000000	9.755965
3736.000000	9.744593
3734.000000	9.758895
3732.000000	9.788257
3730.000000	9.818855
3728.000000	9.830920
3726.000000	9.834022
3724.000000	9.840098
3722.000000	9.847689
3720.000000	9.859367
3718.000000	9.870577
3716.000000	9.865117
3714.000000	9.838641
3712.000000	9.826612
3710.000000	9.849388
3708.000000	9.881295
3706.000000	9.897231
3704.000000	9.892447
3702.000000	9.887197
3700.000000	9.896608
3698.000000	9.907130
3696.000000	9.907802
3694.000000	9.892891
3692.000000	9.856211
3690.000000	9.820781
3688.000000	9.833154
3686.000000	9.877482
3684.000000	9.899464
3682.000000	9.894605
3680.000000	9.869089
3678.000000	9.818328
3676.000000	9.785839
3674.000000	9.795267
3672.000000	9.793956
3670.000000	9.797918
3668.000000	9.832713
3666.000000	9.856377
3664.000000	9.856436
3662.000000	9.847221
3660.000000	9.827491
3658.000000	9.797692
3656.000000	9.782070
3654.000000	9.770761
3652.000000	9.727671
3650.000000	9.684954
3648.000000	9.690292
3646.000000	9.719724
3644.000000	9.731606
3642.000000	9.724187
3640.000000	9.711615
3638.000000	9.698520
3636.000000	9.680892
3634.000000	9.655078
3632.000000	9.607399
3630.000000	9.556958
3628.000000	9.558069
3626.000000	9.585926
3624.000000	9.585026
3622.000000	9.553704
3620.000000	9.522272
3618.000000	9.512915
3616.000000	9.506277
3614.000000	9.487828
3612.000000	9.466083
3610.000000	9.446812
3608.000000	9.440282
3606.000000	9.442905
3604.000000	9.436014
3602.000000	9.418380
3600.000000	9.401659
3598.000000	9.387103
3596.000000	9.372390
3594.000000	9.361199
3592.000000	9.346329
3590.000000	9.319222
3588.000000	9.298583
3586.000000	9.299777
3584.000000	9.305237
3582.000000	9.302140
3580.000000	9.293235
3578.000000	9.282887
3576.000000	9.273308
3574.000000	9.264303
3572.000000	9.252758
3570.000000	9.231729
3568.000000	9.212011
3566.000000	9.211639
3564.000000	9.219982
3562.000000	9.219569
3560.000000	9.212592
3558.000000	9.208056
3556.000000	9.204322
3554.000000	9.197523
3552.000000	9.191406
3550.000000	9.184846
3548.000000	9.174339
3546.000000	9.166560
3544.000000	9.166163
3542.000000	9.167493
3540.000000	9.163994
3538.000000	9.156163
3536.000000	9.150070
3534.000000	9.146475
3532.000000	9.141431
3530.000000	9.134925
3528.000000	9.126761
3526.000000	9.117167
3524.000000	9.109868
3522.000000	9.105855
3520.000000	9.100380
3518.000000	9.093797
3516.000000	9.087822
3514.000000	9.079930
3512.000000	9.069867
3510.000000	9.058833
3508.000000	9.048704
3506.000000	9.038784
3504.000000	9.026815
3502.000000	9.015615
3500.000000	9.005467
3498.000000	8.994108
3496.000000	8.983190
3494.000000	8.973408
3492.000000	8.962249
3490.000000	8.950738
3488.000000	8.940771
3486.000000	8.932208
3484.000000	8.924115
3482.000000	8.917350
3480.000000	8.910510
3478.000000	8.902651
3476.000000	8.896129
3474.000000	8.891144
3472.000000	8.886483
3470.000000	8.883144
3468.000000	8.881369
3466.000000	8.879868
3464.000000	8.877307
3462.000000	8.877031
3460.000000	8.879183
3458.000000	8.879787
3456.000000	8.877996
3454.000000	8.875058
3452.000000	8.873751
3450.000000	8.871837
3448.000000	8.867664
3446.000000	8.867011
3444.000000	8.868779
3442.000000	8.871595
3440.000000	8.877115
3438.000000	8.884424
3436.000000	8.891954
3434.000000	8.901850
3432.000000	8.915075
3430.000000	8.928856
3428.000000	8.942152
3426.000000	8.953132
3424.000000	8.962139
3422.000000	8.970242
3420.000000	8.978469
3418.000000	8.987810
3416.000000	8.995735
3414.000000	9.002112
3412.000000	9.008294
3410.000000	9.013158
3408.000000	9.017456
3406.000000	9.021755
3404.000000	9.025762
3402.000000	9.030361
3400.000000	9.035203
3398.000000	9.042029
3396.000000	9.050796
3394.000000	9.055659
3392.000000	9.059695
3390.000000	9.066723
3388.000000	9.073900
3386.000000	9.080579
3384.000000	9.087064
3382.000000	9.091953
3380.000000	9.095857
3378.000000	9.101657
3376.000000	9.107532
3374.000000	9.110468
3372.000000	9.112467
3370.000000	9.115263
3368.000000	9.119033
3366.000000	9.124410
3364.000000	9.129240
3362.000000	9.132307
3360.000000	9.135279
3358.000000	9.139311
3356.000000	9.143430
3354.000000	9.146690
3352.000000	9.150313
3350.000000	9.155096
3348.000000	9.158900
3346.000000	9.162150
3344.000000	9.165846
3342.000000	9.169337
3340.000000	9.173103
3338.000000	9.176809
3336.000000	9.180479
3334.000000	9.184109
3332.000000	9.187914
3330.000000	9.192515
3328.000000	9.197148
3326.000000	9.200141
3324.000000	9.201804
3322.000000	9.203993
3320.000000	9.207164
3318.000000	9.209813
3316.000000	9.212010
3314.000000	9.216091
3312.000000	9.219643
3310.000000	9.220912
3308.000000	9.223852
3306.000000	9.227756
3304.000000	9.230149
3302.000000	9.232192
3300.000000	9.234237
3298.000000	9.237557
3296.000000	9.241203
3294.000000	9.243468
3292.000000	9.246976
3290.000000	9.251194
3288.000000	9.254455
3286.000000	9.257595
3284.000000	9.259977
3282.000000	9.262258
3280.000000	9.266133
3278.000000	9.270583
3276.000000	9.273758
3274.000000	9.275917
3272.000000	9.279183
3270.000000	9.284292
3268.000000	9.288705
3266.000000	9.290557
3264.000000	9.292634
3262.000000	9.296552
3260.000000	9.301824
3258.000000	9.305464
3256.000000	9.308704
3254.000000	9.313218
3252.000000	9.316061
3250.000000	9.319381
3248.000000	9.323761
3246.000000	9.327728
3244.000000	9.332160
3242.000000	9.336236
3240.000000	9.341173
3238.000000	9.348418
3236.000000	9.354246
3234.000000	9.357227
3232.000000	9.360344
3230.000000	9.364946
3228.000000	9.370729
3226.000000	9.375227
3224.000000	9.378696
3222.000000	9.383694
3220.000000	9.390362
3218.000000	9.396695
3216.000000	9.400439
3214.000000	9.404295
3212.000000	9.409635
3210.000000	9.415024
3208.000000	9.419696
3206.000000	9.425266
3204.000000	9.431183
3202.000000	9.437312
3200.000000	9.445718
3198.000000	9.454364
3196.000000	9.461001
3194.000000	9.467805
3192.000000	9.475506
3190.000000	9.483252
3188.000000	9.490193
3186.000000	9.497166
3184.000000	9.503655
3182.000000	9.509624
3180.000000	9.516250
3178.000000	9.524044
3176.000000	9.533171
3174.000000	9.541702
3172.000000	9.549273
3170.000000	9.556017
3168.000000	9.562955
3166.000000	9.569075
3164.000000	9.575644
3162.000000	9.583958
3160.000000	9.592426
3158.000000	9.601578
3156.000000	9.610146
3154.000000	9.617064
3152.000000	9.623525
3150.000000	9.632620
3148.000000	9.642602
3146.000000	9.651271
3144.000000	9.658508
3142.000000	9.664355
3140.000000	9.671197
3138.000000	9.679019
3136.000000	9.685427
3134.000000	9.691257
3132.000000	9.697974
3130.000000	9.705059
3128.000000	9.712190
3126.000000	9.718778
3124.000000	9.723871
3122.000000	9.728607
3120.000000	9.734042
3118.000000	9.739850
3116.000000	9.745377
3114.000000	9.750646
3112.000000	9.756883
3110.000000	9.762653
3108.000000	9.766323
3106.000000	9.769880
3104.000000	9.774463
3102.000000	9.780502
3100.000000	9.788106
3098.000000	9.795419
3096.000000	9.802499
3094.000000	9.808812
3092.000000	9.814029
3090.000000	9.820287
3088.000000	9.827069
3086.000000	9.832816
3084.000000	9.836582
3082.000000	9.840891
3080.000000	9.846106
3078.000000	9.848745
3076.000000	9.851059
3074.000000	9.854055
3072.000000	9.855281
3070.000000	9.856869
3068.000000	9.858466
3066.000000	9.858854
3064.000000	9.862229
3062.000000	9.868566
3060.000000	9.874973
3058.000000	9.880711
3056.000000	9.885342
3054.000000	9.890139
3052.000000	9.897107
3050.000000	9.902540
3048.000000	9.905925
3046.000000	9.910053
3044.000000	9.914775
3042.000000	9.918443
3040.000000	9.920568
3038.000000	9.923777
3036.000000	9.926614
3034.000000	9.925785
3032.000000	9.921912
3030.000000	9.917161
3028.000000	9.909595
3026.000000	9.897191
3024.000000	9.882510
3022.000000	9.870905
3020.000000	9.864466
3018.000000	9.868849
3016.000000	9.886677
3014.000000	9.914035
3012.000000	9.945901
3010.000000	9.975044
3008.000000	9.997894
3006.000000	10.014982
3004.000000	10.026788
3002.000000	10.035211
3000.000000	10.041517
2998.000000	10.046506
2996.000000	10.050492
2994.000000	10.052681
2992.000000	10.052396
2990.000000	10.052204
2988.000000	10.050520
2986.000000	10.045805
2984.000000	10.039040
2982.000000	10.029631
2980.000000	10.015756
2978.000000	9.995145
2976.000000	9.967537
2974.000000	9.932501
2972.000000	9.887447
2970.000000	9.831816
2968.000000	9.770921
2966.000000	9.714548
2964.000000	9.675146
2962.000000	9.660261
2960.000000	9.667855
2958.000000	9.690525
2956.000000	9.718020
2954.000000	9.742768
2952.000000	9.763560
2950.000000	9.773802
2948.000000	9.768455
2946.000000	9.752506
2944.000000	9.723332
2942.000000	9.677612
2940.000000	9.622847
2938.000000	9.569328
2936.000000	9.523220
2934.000000	9.482220
2932.000000	9.440573
2930.000000	9.398293
2928.000000	9.364812
2926.000000	9.351635
2924.000000	9.369692
2922.000000	9.421169
2920.000000	9.499292
2918.000000	9.591264
2916.000000	9.685618
2914.000000	9.772433
2912.000000	9.845859
2910.000000	9.907119
2908.000000	9.956544
2906.000000	9.995722
2904.000000	10.028751
2902.000000	10.060924
2900.000000	10.093278
2898.000000	10.122744
2896.000000	10.148850
2894.000000	10.174963
2892.000000	10.200492
2890.000000	10.223864
2888.000000	10.245267
2886.000000	10.262081
2884.000000	10.273015
2882.000000	10.278656
2880.000000	10.281346
2878.000000	10.279381
2876.000000	10.269624
2874.000000	10.253219
2872.000000	10.227582
2870.000000	10.189012
2868.000000	10.137453
2866.000000	10.078350
2864.000000	10.024357
2862.000000	9.993176
2860.000000	9.992605
2858.000000	10.015775
2856.000000	10.052793
2854.000000	10.095577
2852.000000	10.144488
2850.000000	10.204219
2848.000000	10.275243
2846.000000	10.346900
2844.000000	10.408217
2842.000000	10.459152
2840.000000	10.498987
2838.000000	10.529751
2836.000000	10.555336
2834.000000	10.577947
2832.000000	10.597901
2830.000000	10.614762
2828.000000	10.630412
2826.000000	10.645225
2824.000000	10.658659
2822.000000	10.672989
2820.000000	10.686509
2818.000000	10.697856
2816.000000	10.708608
2814.000000	10.718716
2812.000000	10.727868
2810.000000	10.735903
2808.000000	10.742239
2806.000000	10.748358
2804.000000	10.757241
2802.000000	10.766491
2800.000000	10.773425
2798.000000	10.779128
2796.000000	10.785594
2794.000000	10.793471
2792.000000	10.802488
2790.000000	10.811392
2788.000000	10.820628
2786.000000	10.830927
2784.000000	10.843003
2782.000000	10.853252
2780.000000	10.861542
2778.000000	10.869196
2776.000000	10.877281
2774.000000	10.884916
2772.000000	10.891630
2770.000000	10.900002
2768.000000	10.908206
2766.000000	10.916347
2764.000000	10.923563
2762.000000	10.929619
2760.000000	10.936322
2758.000000	10.942980
2756.000000	10.949077
2754.000000	10.954974
2752.000000	10.959572
2750.000000	10.963864
2748.000000	10.969687
2746.000000	10.975345
2744.000000	10.980256
2742.000000	10.985342
2740.000000	10.990668
2738.000000	10.994959
2736.000000	10.996594
2734.000000	10.998627
2732.000000	11.003266
2730.000000	11.009007
2728.000000	11.014396
2726.000000	11.018543
2724.000000	11.021797
2722.000000	11.024642
2720.000000	11.028857
2718.000000	11.032798
2716.000000	11.035786
2714.000000	11.038987
2712.000000	11.042948
2710.000000	11.045689
2708.000000	11.046677
2706.000000	11.047641
2704.000000	11.050615
2702.000000	11.055296
2700.000000	11.059571
2698.000000	11.063926
2696.000000	11.069909
2694.000000	11.074828
2692.000000	11.078777
2690.000000	11.081486
2688.000000	11.084143
2686.000000	11.087195
2684.000000	11.089894
2682.000000	11.093197
2680.000000	11.095879
2678.000000	11.098335
2676.000000	11.101131
2674.000000	11.102148
2672.000000	11.103941
2670.000000	11.106765
2668.000000	11.107854
2666.000000	11.109146
2664.000000	11.110650
2662.000000	11.112607
2660.000000	11.115029
2658.000000	11.117272
2656.000000	11.119550
2654.000000	11.120421
2652.000000	11.121489
2650.000000	11.124060
2648.000000	11.126080
2646.000000	11.128262
2644.000000	11.131381
2642.000000	11.133835
2640.000000	11.135361
2638.000000	11.136374
2636.000000	11.137527
2634.000000	11.138550
2632.000000	11.140333
2630.000000	11.142473
2628.000000	11.143343
2626.000000	11.142472
2624.000000	11.142803
2622.000000	11.144705
2620.000000	11.145462
2618.000000	11.146413
2616.000000	11.147388
2614.000000	11.147771
2612.000000	11.148227
2610.000000	11.147100
2608.000000	11.146169
2606.000000	11.146393
2604.000000	11.145223
2602.000000	11.143265
2600.000000	11.142357
2598.000000	11.141744
2596.000000	11.140738
2594.000000	11.139289
2592.000000	11.137768
2590.000000	11.138985
2588.000000	11.142725
2586.000000	11.146562
2584.000000	11.151827
2582.000000	11.157199
2580.000000	11.161771
2578.000000	11.165670
2576.000000	11.169500
2574.000000	11.171976
2572.000000	11.174408
2570.000000	11.177576
2568.000000	11.180038
2566.000000	11.180923
2564.000000	11.182427
2562.000000	11.183435
2560.000000	11.183347
2558.000000	11.184785
2556.000000	11.187006
2554.000000	11.187920
2552.000000	11.188254
2550.000000	11.187810
2548.000000	11.187576
2546.000000	11.187635
2544.000000	11.189008
2542.000000	11.189898
2540.000000	11.189770
2538.000000	11.188925
2536.000000	11.189312
2534.000000	11.191096
2532.000000	11.191483
2530.000000	11.191838
2528.000000	11.193036
2526.000000	11.193049
2524.000000	11.193864
2522.000000	11.195645
2520.000000	11.195709
2518.000000	11.193748
2516.000000	11.192906
2514.000000	11.193389
2512.000000	11.193544
2510.000000	11.193672
2508.000000	11.194804
2506.000000	11.195200
2504.000000	11.194358
2502.000000	11.193578
2500.000000	11.193914
2498.000000	11.193008
2496.000000	11.192045
2494.000000	11.191228
2492.000000	11.189473
2490.000000	11.187702
2488.000000	11.187029
2486.000000	11.186468
2484.000000	11.185915
2482.000000	11.184473
2480.000000	11.182814
2478.000000	11.182172
2476.000000	11.181661
2474.000000	11.178864
2472.000000	11.176644
2470.000000	11.176572
2468.000000	11.175263
2466.000000	11.170814
2464.000000	11.166435
2462.000000	11.163867
2460.000000	11.162782
2458.000000	11.160345
2456.000000	11.157311
2454.000000	11.156539
2452.000000	11.155341
2450.000000	11.153342
2448.000000	11.151593
2446.000000	11.149721
2444.000000	11.148093
2442.000000	11.146811
2440.000000	11.145775
2438.000000	11.143947
2436.000000	11.143065
2434.000000	11.142304
2432.000000	11.140253
2430.000000	11.138596
2428.000000	11.139371
2426.000000	11.141378
2424.000000	11.142927
2422.000000	11.146082
2420.000000	11.150355
2418.000000	11.155461
2416.000000	11.161641
2414.000000	11.166099
2412.000000	11.169771
2410.000000	11.173929
2408.000000	11.177735
2406.000000	11.182196
2404.000000	11.185563
2402.000000	11.187684
2400.000000	11.190382
2398.000000	11.193312
2396.000000	11.195138
2394.000000	11.197820
2392.000000	11.201032
2390.000000	11.203338
2388.000000	11.206471
2386.000000	11.207025
2384.000000	11.204909
2382.000000	11.201429
2380.000000	11.196026
2378.000000	11.186321
2376.000000	11.171366
2374.000000	11.151921
2372.000000	11.129825
2370.000000	11.106424
2368.000000	11.083596
2366.000000	11.065437
2364.000000	11.054919
2362.000000	11.052007
2360.000000	11.055215
2358.000000	11.066351
2356.000000	11.087695
2354.000000	11.116443
2352.000000	11.145618
2350.000000	11.165294
2348.000000	11.160359
2346.000000	11.133469
2344.000000	11.103719
2342.000000	11.079412
2340.000000	11.065805
2338.000000	11.067132
2336.000000	11.074115
2334.000000	11.078918
2332.000000	11.085000
2330.000000	11.092894
2328.000000	11.101714
2326.000000	11.110262
2324.000000	11.120390
2322.000000	11.131165
2320.000000	11.139975
2318.000000	11.146117
2316.000000	11.151968
2314.000000	11.158009
2312.000000	11.161651
2310.000000	11.163481
2308.000000	11.166267
2306.000000	11.169354
2304.000000	11.171042
2302.000000	11.171639
2300.000000	11.173659
2298.000000	11.174121
2296.000000	11.171720
2294.000000	11.170313
2292.000000	11.170758
2290.000000	11.170871
2288.000000	11.170553
2286.000000	11.169392
2284.000000	11.168104
2282.000000	11.165969
2280.000000	11.164251
2278.000000	11.162114
2276.000000	11.160097
2274.000000	11.157100
2272.000000	11.155816
2270.000000	11.154839
2268.000000	11.150845
2266.000000	11.146589
2264.000000	11.144896
2262.000000	11.144683
2260.000000	11.145251
2258.000000	11.144249
2256.000000	11.142956
2254.000000	11.141698
2252.000000	11.140118
2250.000000	11.138061
2248.000000	11.137539
2246.000000	11.138614
2244.000000	11.140235
2242.000000	11.140412
2240.000000	11.139710
2238.000000	11.139783
2236.000000	11.140479
2234.000000	11.141596
2232.000000	11.143621
2230.000000	11.144266
2228.000000	11.144497
2226.000000	11.144464
2224.000000	11.143820
2222.000000	11.144308
2220.000000	11.146223
2218.000000	11.145880
2216.000000	11.144721
2214.000000	11.145373
2212.000000	11.148581
2210.000000	11.149712
2208.000000	11.148975
2206.000000	11.147909
2204.000000	11.149436
2202.000000	11.151423
2200.000000	11.151699
2198.000000	11.151811
2196.000000	11.152821
2194.000000	11.154713
2192.000000	11.156619
2190.000000	11.157633
2188.000000	11.157997
2186.000000	11.159323
2184.000000	11.160371
2182.000000	11.160876
2180.000000	11.161859
2178.000000	11.162745
2176.000000	11.164322
2174.000000	11.165364
2172.000000	11.163027
2170.000000	11.160093
2168.000000	11.163269
2166.000000	11.167324
2164.000000	11.168580
2162.000000	11.171386
2160.000000	11.175519
2158.000000	11.176852
2156.000000	11.177141
2154.000000	11.178884
2152.000000	11.182561
2150.000000	11.184904
2148.000000	11.187314
2146.000000	11.189081
2144.000000	11.190012
2142.000000	11.191899
2140.000000	11.194086
2138.000000	11.196860
2136.000000	11.198852
2134.000000	11.200356
2132.000000	11.203856
2130.000000	11.207001
2128.000000	11.208458
2126.000000	11.210571
2124.000000	11.213982
2122.000000	11.216943
2120.000000	11.220189
2118.000000	11.223683
2116.000000	11.226331
2114.000000	11.229420
2112.000000	11.233426
2110.000000	11.237308
2108.000000	11.241383
2106.000000	11.247140
2104.000000	11.252370
2102.000000	11.255848
2100.000000	11.259605
2098.000000	11.263486
2096.000000	11.267029
2094.000000	11.271857
2092.000000	11.277877
2090.000000	11.282999
2088.000000	11.287221
2086.000000	11.291185
2084.000000	11.295070
2082.000000	11.299572
2080.000000	11.305823
2078.000000	11.310880
2076.000000	11.316238
2074.000000	11.321810
2072.000000	11.327775
2070.000000	11.331438
2068.000000	11.334606
2066.000000	11.338380
2064.000000	11.345241
2062.000000	11.352671
2060.000000	11.358348
2058.000000	11.363259
2056.000000	11.368200
2054.000000	11.373001
2052.000000	11.378699
2050.000000	11.384992
2048.000000	11.389992
2046.000000	11.394454
2044.000000	11.399513
2042.000000	11.402938
2040.000000	11.408103
2038.000000	11.414684
2036.000000	11.419548
2034.000000	11.421892
2032.000000	11.423495
2030.000000	11.424379
2028.000000	11.429025
2026.000000	11.435954
2024.000000	11.441779
2022.000000	11.447647
2020.000000	11.452713
2018.000000	11.454627
2016.000000	11.458565
2014.000000	11.462232
2012.000000	11.466027
2010.000000	11.470412
2008.000000	11.474317
2006.000000	11.478287
2004.000000	11.481619
2002.000000	11.483645
2000.000000	11.486210
1998.000000	11.489178
1996.000000	11.490338
1994.000000	11.489182
1992.000000	11.490440
1990.000000	11.494665
1988.000000	11.497515
1986.000000	11.498193
1984.000000	11.499426
1982.000000	11.499970
1980.000000	11.499227
1978.000000	11.499065
1976.000000	11.499104
1974.000000	11.499264
1972.000000	11.499302
1970.000000	11.495028
1968.000000	11.488473
1966.000000	11.485860
1964.000000	11.485630
1962.000000	11.479989
1960.000000	11.467527
1958.000000	11.466158
1956.000000	11.474801
1954.000000	11.477053
1952.000000	11.475493
1950.000000	11.472623
1948.000000	11.470631
1946.000000	11.465543
1944.000000	11.458284
1942.000000	11.455767
1940.000000	11.459589
1938.000000	11.459505
1936.000000	11.456806
1934.000000	11.453183
1932.000000	11.450987
1930.000000	11.445888
1928.000000	11.441013
1926.000000	11.435451
1924.000000	11.425808
1922.000000	11.419229
1920.000000	11.409772
1918.000000	11.398423
1916.000000	11.404429
1914.000000	11.406398
1912.000000	11.396338
1910.000000	11.384150
1908.000000	11.377706
1906.000000	11.373284
1904.000000	11.368602
1902.000000	11.361572
1900.000000	11.355739
1898.000000	11.348053
1896.000000	11.339475
1894.000000	11.333384
1892.000000	11.326859
1890.000000	11.317752
1888.000000	11.318274
1886.000000	11.319052
1884.000000	11.316676
1882.000000	11.313906
1880.000000	11.309989
1878.000000	11.305068
1876.000000	11.301264
1874.000000	11.296192
1872.000000	11.282789
1870.000000	11.258564
1868.000000	11.254496
1866.000000	11.266956
1864.000000	11.272198
1862.000000	11.269228
1860.000000	11.262334
1858.000000	11.253712
1856.000000	11.249668
1854.000000	11.245747
1852.000000	11.239735
1850.000000	11.229267
1848.000000	11.213430
1846.000000	11.177964
1844.000000	11.159689
1842.000000	11.184655
1840.000000	11.196546
1838.000000	11.187527
1836.000000	11.177789
1834.000000	11.167103
1832.000000	11.144931
1830.000000	11.123964
1828.000000	11.121421
1826.000000	11.109705
1824.000000	11.106732
1822.000000	11.110612
1820.000000	11.103337
1818.000000	11.090790
1816.000000	11.080761
1814.000000	11.067731
1812.000000	11.048673
1810.000000	11.034924
1808.000000	11.028441
1806.000000	11.017298
1804.000000	10.996353
1802.000000	10.969231
1800.000000	10.953722
1798.000000	10.945933
1796.000000	10.928052
1794.000000	10.884968
1792.000000	10.860411
1790.000000	10.876242
1788.000000	10.877347
1786.000000	10.854138
1784.000000	10.837948
1782.000000	10.822749
1780.000000	10.807759
1778.000000	10.795853
1776.000000	10.765957
1774.000000	10.704931
1772.000000	10.676967
1770.000000	10.694146
1768.000000	10.697685
1766.000000	10.704009
1764.000000	10.684177
1762.000000	10.653209
1760.000000	10.647359
1758.000000	10.630143
1756.000000	10.612010
1754.000000	10.585646
1752.000000	10.529466
1750.000000	10.506934
1748.000000	10.509632
1746.000000	10.502488
1744.000000	10.482191
1742.000000	10.448639
1740.000000	10.418915
1738.000000	10.409470
1736.000000	10.340204
1734.000000	10.280610
1732.000000	10.334571
1730.000000	10.377677
1728.000000	10.384174
1726.000000	10.377536
1724.000000	10.364566
1722.000000	10.345922
1720.000000	10.281783
1718.000000	10.203147
1716.000000	10.219304
1714.000000	10.269483
1712.000000	10.287642
1710.000000	10.274114
1708.000000	10.245689
1706.000000	10.214907
1704.000000	10.195946
1702.000000	10.116399
1700.000000	10.067440
1698.000000	10.082546
1696.000000	10.072886
1694.000000	10.142716
1692.000000	10.193656
1690.000000	10.182551
1688.000000	10.144416
1686.000000	10.040667
1684.000000	10.010918
1682.000000	10.099787
1680.000000	10.141221
1678.000000	10.121171
1676.000000	10.075959
1674.000000	10.075615
1672.000000	10.071498
1670.000000	10.042093
1668.000000	10.056244
1666.000000	10.072912
1664.000000	10.044251
1662.000000	10.029196
1660.000000	10.039188
1658.000000	10.024212
1656.000000	9.930557
1654.000000	9.777709
1652.000000	9.801112
1650.000000	9.911731
1648.000000	9.889270
1646.000000	9.865966
1644.000000	9.907400
1642.000000	9.923671
1640.000000	9.900450
1638.000000	9.836167
1636.000000	9.769116
1634.000000	9.797953
1632.000000	9.833859
1630.000000	9.809127
1628.000000	9.770925
1626.000000	9.730955
1624.000000	9.675277
1622.000000	9.637736
1620.000000	9.592553
1618.000000	9.497637
1616.000000	9.452023
1614.000000	9.452338
1612.000000	9.397957
1610.000000	9.332032
1608.000000	9.299433
1606.000000	9.305214
1604.000000	9.326450
1602.000000	9.351810
1600.000000	9.374904
1598.000000	9.395433
1596.000000	9.411932
1594.000000	9.424238
1592.000000	9.429129
1590.000000	9.427391
1588.000000	9.422404
1586.000000	9.416189
1584.000000	9.407538
1582.000000	9.401553
1580.000000	9.387063
1578.000000	9.323877
1576.000000	9.287861
1574.000000	9.341865
1572.000000	9.346654
1570.000000	9.309287
1568.000000	9.308870
1566.000000	9.305373
1564.000000	9.273877
1562.000000	9.177547
1560.000000	9.038578
1558.000000	9.047433
1556.000000	9.142108
1554.000000	9.197699
1552.000000	9.243407
1550.000000	9.269409
1548.000000	9.285464
1546.000000	9.279662
1544.000000	9.255811
1542.000000	9.208537
1540.000000	9.191732
1538.000000	9.290214
1536.000000	9.375747
1534.000000	9.379011
1532.000000	9.404129
1530.000000	9.427759
1528.000000	9.416610
1526.000000	9.395702
1524.000000	9.364316
1522.000000	9.311949
1520.000000	9.319514
1518.000000	9.335404
1516.000000	9.323722
1514.000000	9.312028
1512.000000	9.290176
1510.000000	9.242786
1508.000000	9.133401
1506.000000	9.072123
1504.000000	9.077645
1502.000000	8.969500
1500.000000	8.703687
1498.000000	8.358615
1496.000000	8.104105
1494.000000	8.071548
1492.000000	8.194897
1490.000000	8.387614
1488.000000	8.591098
1486.000000	8.752075
1484.000000	8.854990
1482.000000	8.905979
1480.000000	8.931281
1478.000000	8.924970
1476.000000	8.892329
1474.000000	8.845033
1472.000000	8.829354
1470.000000	8.844858
1468.000000	8.821618
1466.000000	8.763879
1464.000000	8.726048
1462.000000	8.692422
1460.000000	8.592983
1458.000000	8.429906
1456.000000	8.325307
1454.000000	8.281167
1452.000000	8.229393
1450.000000	8.242782
1448.000000	8.335907
1446.000000	8.438252
1444.000000	8.485396
1442.000000	8.495349
1440.000000	8.486684
1438.000000	8.453407
1436.000000	8.456638
1434.000000	8.498915
1432.000000	8.504352
1430.000000	8.498702
1428.000000	8.502687
1426.000000	8.503390
1424.000000	8.493318
1422.000000	8.468484
1420.000000	8.420218
1418.000000	8.417308
1416.000000	8.431802
1414.000000	8.416771
1412.000000	8.378874
1410.000000	8.322826
1408.000000	8.243002
1406.000000	8.157033
1404.000000	8.111240
1402.000000	8.116350
1400.000000	8.143776
1398.000000	8.192184
1396.000000	8.233904
1394.000000	8.270970
1392.000000	8.304755
1390.000000	8.303738
1388.000000	8.270680
1386.000000	8.240981
1384.000000	8.232326
1382.000000	8.246905
1380.000000	8.259248
1378.000000	8.254818
1376.000000	8.239940
1374.000000	8.227385
1372.000000	8.224763
1370.000000	8.216450
1368.000000	8.202461
1366.000000	8.187693
1364.000000	8.165176
1362.000000	8.147112
1360.000000	8.137535
1358.000000	8.124746
1356.000000	8.105530
1354.000000	8.085432
1352.000000	8.065218
1350.000000	8.043284
1348.000000	8.020262
1346.000000	7.996706
1344.000000	7.971935
1342.000000	7.944212
1340.000000	7.919081
1338.000000	7.907054
1336.000000	7.899934
1334.000000	7.890513
1332.000000	7.875398
1330.000000	7.854802
1328.000000	7.831328
1326.000000	7.807305
1324.000000	7.781054
1322.000000	7.751097
1320.000000	7.719301
1318.000000	7.689555
1316.000000	7.659959
1314.000000	7.628006
1312.000000	7.595446
1310.000000	7.564201
1308.000000	7.532789
1306.000000	7.499148
1304.000000	7.462020
1302.000000	7.424643
1300.000000	7.388697
1298.000000	7.352930
1296.000000	7.314417
1294.000000	7.275629
1292.000000	7.236127
1290.000000	7.195867
1288.000000	7.153397
1286.000000	7.110451
1284.000000	7.066429
1282.000000	7.020999
1280.000000	6.972350
1278.000000	6.921351
1276.000000	6.864792
1274.000000	6.797623
1272.000000	6.716830
1270.000000	6.616501
1268.000000	6.486047
1266.000000	6.329258
1264.000000	6.170393
1262.000000	6.044715
1260.000000	5.985038
1258.000000	5.994226
1256.000000	6.039094
1254.000000	6.077312
1252.000000	6.084565
1250.000000	6.063031
1248.000000	6.022967
1246.000000	5.974216
1244.000000	5.920914
1242.000000	5.864743
1240.000000	5.809030
1238.000000	5.758123
1236.000000	5.707884
1234.000000	5.656980
1232.000000	5.607280
1230.000000	5.559861
1228.000000	5.513755
1226.000000	5.466132
1224.000000	5.416319
1222.000000	5.364313
1220.000000	5.310869
1218.000000	5.256233
1216.000000	5.200049
1214.000000	5.144080
1212.000000	5.091075
1210.000000	5.043368
1208.000000	4.999132
1206.000000	4.957197
1204.000000	4.914637
1202.000000	4.870703
1200.000000	4.826439
1198.000000	4.784387
1196.000000	4.742003
1194.000000	4.697056
1192.000000	4.651459
1190.000000	4.605535
1188.000000	4.557244
1186.000000	4.504251
1184.000000	4.439731
1182.000000	4.362018
1180.000000	4.301607
1178.000000	4.273433
1176.000000	4.246199
1174.000000	4.205062
1172.000000	4.156110
1170.000000	4.107001
1168.000000	4.056646
1166.000000	4.005653
1164.000000	3.956031
1162.000000	3.904051
1160.000000	3.852653
1158.000000	3.806476
1156.000000	3.762982
1154.000000	3.718189
1152.000000	3.673052
1150.000000	3.627974
1148.000000	3.579709
1146.000000	3.531274
1144.000000	3.485712
1142.000000	3.447519
1140.000000	3.416229
1138.000000	3.382189
1136.000000	3.341684
1134.000000	3.300400
1132.000000	3.256817
1130.000000	3.210608
1128.000000	3.163883
1126.000000	3.118492
1124.000000	3.073368
1122.000000	3.026257
1120.000000	2.977188
1118.000000	2.926491
1116.000000	2.875414
1114.000000	2.825352
1112.000000	2.772751
1110.000000	2.720313
1108.000000	2.671842
1106.000000	2.627825
1104.000000	2.583104
1102.000000	2.537150
1100.000000	2.491450
1098.000000	2.447827
1096.000000	2.405324
1094.000000	2.365074
1092.000000	2.326995
1090.000000	2.291586
1088.000000	2.256732
1086.000000	2.221091
1084.000000	2.185160
1082.000000	2.148162
1080.000000	2.114102
1078.000000	2.084894
1076.000000	2.058382
1074.000000	2.036541
1072.000000	2.015481
1070.000000	1.993689
1068.000000	1.971537
1066.000000	1.949831
1064.000000	1.928355
1062.000000	1.906258
1060.000000	1.881511
1058.000000	1.852399
1056.000000	1.811938
1054.000000	1.758490
1052.000000	1.706780
1050.000000	1.679315
1048.000000	1.677969
1046.000000	1.687992
1044.000000	1.690335
1042.000000	1.680033
1040.000000	1.661516
1038.000000	1.639029
1036.000000	1.615907
1034.000000	1.592232
1032.000000	1.565491
1030.000000	1.537314
1028.000000	1.508964
1026.000000	1.481008
1024.000000	1.451976
1022.000000	1.424326
1020.000000	1.398807
1018.000000	1.374952
1016.000000	1.352859
1014.000000	1.332904
1012.000000	1.315448
1010.000000	1.299844
1008.000000	1.283753
1006.000000	1.264623
1004.000000	1.244751
1002.000000	1.223546
1000.000000	1.198331
