PE IR       SUBTECH     SPECTRUM    ASCII       PEDS        4.00        
   -1
TE109A_083_160K_SB.ASC
20/04/21
21:39:53.00
20/04/21
21:39:53.00
Administrator
TE109A, Tuesday, April 21 2020, 083.
1000.000000
#HDR
-1
-1
#GR
cm-1
EGY
1.0
0.0
6000.000000
-2.000000
2501
8
11.485410
1.206017
#DATA
6000.000000	2.001689
5998.000000	2.005361
5996.000000	2.010447
5994.000000	2.015891
5992.000000	2.020557
5990.000000	2.024309
5988.000000	2.027139
5986.000000	2.031146
5984.000000	2.034322
5982.000000	2.038376
5980.000000	2.043821
5978.000000	2.049039
5976.000000	2.053620
5974.000000	2.056989
5972.000000	2.060135
5970.000000	2.063860
5968.000000	2.067142
5966.000000	2.071489
5964.000000	2.076729
5962.000000	2.080810
5960.000000	2.084951
5958.000000	2.089126
5956.000000	2.093389
5954.000000	2.097884
5952.000000	2.100877
5950.000000	2.104163
5948.000000	2.108244
5946.000000	2.112412
5944.000000	2.116878
5942.000000	2.121058
5940.000000	2.125003
5938.000000	2.129458
5936.000000	2.133799
5934.000000	2.137153
5932.000000	2.141576
5930.000000	2.145724
5928.000000	2.149663
5926.000000	2.154035
5924.000000	2.158636
5922.000000	2.163731
5920.000000	2.168259
5918.000000	2.171185
5916.000000	2.174861
5914.000000	2.180245
5912.000000	2.185810
5910.000000	2.190443
5908.000000	2.194644
5906.000000	2.198807
5904.000000	2.203443
5902.000000	2.208060
5900.000000	2.213466
5898.000000	2.218417
5896.000000	2.223229
5894.000000	2.228362
5892.000000	2.231961
5890.000000	2.234834
5888.000000	2.236830
5886.000000	2.240732
5884.000000	2.246175
5882.000000	2.250740
5880.000000	2.254780
5878.000000	2.259718
5876.000000	2.263396
5874.000000	2.267878
5872.000000	2.272336
5870.000000	2.277179
5868.000000	2.281423
5866.000000	2.285618
5864.000000	2.290116
5862.000000	2.293997
5860.000000	2.297395
5858.000000	2.300973
5856.000000	2.306169
5854.000000	2.312260
5852.000000	2.318674
5850.000000	2.325096
5848.000000	2.330098
5846.000000	2.334940
5844.000000	2.338412
5842.000000	2.341829
5840.000000	2.346306
5838.000000	2.352137
5836.000000	2.358336
5834.000000	2.364436
5832.000000	2.370522
5830.000000	2.377018
5828.000000	2.382553
5826.000000	2.385889
5824.000000	2.389306
5822.000000	2.393371
5820.000000	2.398495
5818.000000	2.403224
5816.000000	2.407729
5814.000000	2.412677
5812.000000	2.417792
5810.000000	2.422696
5808.000000	2.427467
5806.000000	2.432032
5804.000000	2.436909
5802.000000	2.442183
5800.000000	2.447930
5798.000000	2.453466
5796.000000	2.458034
5794.000000	2.461448
5792.000000	2.464291
5790.000000	2.466831
5788.000000	2.471874
5786.000000	2.479472
5784.000000	2.486802
5782.000000	2.492459
5780.000000	2.496585
5778.000000	2.500768
5776.000000	2.505336
5774.000000	2.510250
5772.000000	2.514532
5770.000000	2.519799
5768.000000	2.526185
5766.000000	2.532782
5764.000000	2.537848
5762.000000	2.541307
5760.000000	2.545837
5758.000000	2.551930
5756.000000	2.557779
5754.000000	2.561936
5752.000000	2.565364
5750.000000	2.569457
5748.000000	2.575055
5746.000000	2.580634
5744.000000	2.585035
5742.000000	2.589282
5740.000000	2.594010
5738.000000	2.600362
5736.000000	2.607559
5734.000000	2.613797
5732.000000	2.618374
5730.000000	2.622272
5728.000000	2.626759
5726.000000	2.631019
5724.000000	2.634155
5722.000000	2.638231
5720.000000	2.644879
5718.000000	2.652808
5716.000000	2.659178
5714.000000	2.663571
5712.000000	2.666280
5710.000000	2.669495
5708.000000	2.674052
5706.000000	2.680298
5704.000000	2.687613
5702.000000	2.694431
5700.000000	2.699069
5698.000000	2.703622
5696.000000	2.709732
5694.000000	2.716694
5692.000000	2.721714
5690.000000	2.725383
5688.000000	2.730773
5686.000000	2.738104
5684.000000	2.742712
5682.000000	2.745628
5680.000000	2.749528
5678.000000	2.756336
5676.000000	2.764204
5674.000000	2.770435
5672.000000	2.775325
5670.000000	2.779328
5668.000000	2.783325
5666.000000	2.788433
5664.000000	2.794184
5662.000000	2.799614
5660.000000	2.805224
5658.000000	2.811520
5656.000000	2.817877
5654.000000	2.822694
5652.000000	2.827598
5650.000000	2.833507
5648.000000	2.841182
5646.000000	2.848200
5644.000000	2.853884
5642.000000	2.859396
5640.000000	2.864446
5638.000000	2.869971
5636.000000	2.875602
5634.000000	2.881047
5632.000000	2.886369
5630.000000	2.891353
5628.000000	2.895968
5626.000000	2.901366
5624.000000	2.906889
5622.000000	2.912847
5620.000000	2.918984
5618.000000	2.923643
5616.000000	2.928598
5614.000000	2.934662
5612.000000	2.941148
5610.000000	2.945717
5608.000000	2.948947
5606.000000	2.954525
5604.000000	2.961891
5602.000000	2.967599
5600.000000	2.971126
5598.000000	2.974714
5596.000000	2.980522
5594.000000	2.985945
5592.000000	2.991491
5590.000000	2.997901
5588.000000	3.005685
5586.000000	3.012863
5584.000000	3.017822
5582.000000	3.022776
5580.000000	3.028942
5578.000000	3.035194
5576.000000	3.040092
5574.000000	3.044178
5572.000000	3.048759
5570.000000	3.054275
5568.000000	3.060487
5566.000000	3.068112
5564.000000	3.075156
5562.000000	3.080832
5560.000000	3.085301
5558.000000	3.091026
5556.000000	3.097068
5554.000000	3.103490
5552.000000	3.109069
5550.000000	3.115233
5548.000000	3.122401
5546.000000	3.128623
5544.000000	3.133777
5542.000000	3.138575
5540.000000	3.144566
5538.000000	3.150382
5536.000000	3.155377
5534.000000	3.160820
5532.000000	3.167769
5530.000000	3.173673
5528.000000	3.178601
5526.000000	3.183297
5524.000000	3.188341
5522.000000	3.194443
5520.000000	3.200524
5518.000000	3.207359
5516.000000	3.213791
5514.000000	3.219319
5512.000000	3.224131
5510.000000	3.229442
5508.000000	3.235324
5506.000000	3.239821
5504.000000	3.243867
5502.000000	3.249747
5500.000000	3.256149
5498.000000	3.262686
5496.000000	3.268386
5494.000000	3.274490
5492.000000	3.280656
5490.000000	3.286793
5488.000000	3.292977
5486.000000	3.299182
5484.000000	3.305697
5482.000000	3.312713
5480.000000	3.318054
5478.000000	3.322599
5476.000000	3.328676
5474.000000	3.336086
5472.000000	3.342809
5470.000000	3.347605
5468.000000	3.353842
5466.000000	3.360185
5464.000000	3.365313
5462.000000	3.370083
5460.000000	3.376642
5458.000000	3.384169
5456.000000	3.390404
5454.000000	3.395512
5452.000000	3.401258
5450.000000	3.406162
5448.000000	3.411104
5446.000000	3.417331
5444.000000	3.423273
5442.000000	3.429638
5440.000000	3.436333
5438.000000	3.443392
5436.000000	3.449190
5434.000000	3.453964
5432.000000	3.458143
5430.000000	3.463001
5428.000000	3.469897
5426.000000	3.478108
5424.000000	3.486053
5422.000000	3.492469
5420.000000	3.499200
5418.000000	3.503416
5416.000000	3.506010
5414.000000	3.510151
5412.000000	3.517317
5410.000000	3.526451
5408.000000	3.533125
5406.000000	3.538988
5404.000000	3.543838
5402.000000	3.549502
5400.000000	3.555426
5398.000000	3.559996
5396.000000	3.565320
5394.000000	3.571169
5392.000000	3.577948
5390.000000	3.584860
5388.000000	3.590739
5386.000000	3.596946
5384.000000	3.603109
5382.000000	3.609602
5380.000000	3.615769
5378.000000	3.622645
5376.000000	3.629707
5374.000000	3.635952
5372.000000	3.642041
5370.000000	3.648676
5368.000000	3.654713
5366.000000	3.660040
5364.000000	3.665586
5362.000000	3.672242
5360.000000	3.679140
5358.000000	3.684877
5356.000000	3.689124
5354.000000	3.693613
5352.000000	3.700133
5350.000000	3.707812
5348.000000	3.713714
5346.000000	3.718931
5344.000000	3.723458
5342.000000	3.727231
5340.000000	3.731233
5338.000000	3.737344
5336.000000	3.745979
5334.000000	3.754839
5332.000000	3.761575
5330.000000	3.766290
5328.000000	3.770618
5326.000000	3.775976
5324.000000	3.782445
5322.000000	3.789937
5320.000000	3.797346
5318.000000	3.803717
5316.000000	3.808357
5314.000000	3.813224
5312.000000	3.818433
5310.000000	3.823928
5308.000000	3.830145
5306.000000	3.836904
5304.000000	3.843305
5302.000000	3.848998
5300.000000	3.854297
5298.000000	3.860600
5296.000000	3.866759
5294.000000	3.871653
5292.000000	3.876733
5290.000000	3.882511
5288.000000	3.889035
5286.000000	3.895425
5284.000000	3.901891
5282.000000	3.908316
5280.000000	3.913992
5278.000000	3.920875
5276.000000	3.928030
5274.000000	3.934361
5272.000000	3.939717
5270.000000	3.945055
5268.000000	3.950613
5266.000000	3.955787
5264.000000	3.960777
5262.000000	3.967144
5260.000000	3.974079
5258.000000	3.979808
5256.000000	3.984378
5254.000000	3.990901
5252.000000	3.998615
5250.000000	4.003841
5248.000000	4.007582
5246.000000	4.012330
5244.000000	4.019379
5242.000000	4.025938
5240.000000	4.031580
5238.000000	4.036665
5236.000000	4.042122
5234.000000	4.047826
5232.000000	4.052965
5230.000000	4.057275
5228.000000	4.060648
5226.000000	4.065437
5224.000000	4.072752
5222.000000	4.080695
5220.000000	4.085930
5218.000000	4.090152
5216.000000	4.096007
5214.000000	4.101639
5212.000000	4.105377
5210.000000	4.109610
5208.000000	4.115628
5206.000000	4.122654
5204.000000	4.129006
5202.000000	4.134690
5200.000000	4.139479
5198.000000	4.143455
5196.000000	4.149053
5194.000000	4.155215
5192.000000	4.161457
5190.000000	4.167240
5188.000000	4.172517
5186.000000	4.177001
5184.000000	4.181841
5182.000000	4.188488
5180.000000	4.195471
5178.000000	4.200898
5176.000000	4.207009
5174.000000	4.212523
5172.000000	4.217168
5170.000000	4.222060
5168.000000	4.228761
5166.000000	4.236531
5164.000000	4.243440
5162.000000	4.249063
5160.000000	4.253294
5158.000000	4.258034
5156.000000	4.264299
5154.000000	4.270051
5152.000000	4.274867
5150.000000	4.279221
5148.000000	4.284354
5146.000000	4.290640
5144.000000	4.296690
5142.000000	4.301945
5140.000000	4.306532
5138.000000	4.311657
5136.000000	4.316152
5134.000000	4.320895
5132.000000	4.327502
5130.000000	4.334707
5128.000000	4.340527
5126.000000	4.345789
5124.000000	4.351013
5122.000000	4.356126
5120.000000	4.361213
5118.000000	4.367217
5116.000000	4.373286
5114.000000	4.378464
5112.000000	4.383174
5110.000000	4.388201
5108.000000	4.394633
5106.000000	4.401232
5104.000000	4.406976
5102.000000	4.412316
5100.000000	4.418385
5098.000000	4.424275
5096.000000	4.429343
5094.000000	4.435165
5092.000000	4.441498
5090.000000	4.446437
5088.000000	4.450171
5086.000000	4.456543
5084.000000	4.464699
5082.000000	4.471611
5080.000000	4.476098
5078.000000	4.480726
5076.000000	4.487043
5074.000000	4.493735
5072.000000	4.499060
5070.000000	4.503922
5068.000000	4.511708
5066.000000	4.520837
5064.000000	4.528395
5062.000000	4.533300
5060.000000	4.538068
5058.000000	4.544147
5056.000000	4.550732
5054.000000	4.556746
5052.000000	4.561421
5050.000000	4.567304
5048.000000	4.574120
5046.000000	4.580176
5044.000000	4.585773
5042.000000	4.591676
5040.000000	4.597191
5038.000000	4.602112
5036.000000	4.608504
5034.000000	4.615957
5032.000000	4.622943
5030.000000	4.628646
5028.000000	4.633099
5026.000000	4.638347
5024.000000	4.645775
5022.000000	4.653536
5020.000000	4.659673
5018.000000	4.665913
5016.000000	4.673476
5014.000000	4.680984
5012.000000	4.686466
5010.000000	4.691051
5008.000000	4.697120
5006.000000	4.704273
5004.000000	4.710837
5002.000000	4.717914
5000.000000	4.725402
4998.000000	4.731712
4996.000000	4.736961
4994.000000	4.743504
4992.000000	4.750452
4990.000000	4.756364
4988.000000	4.762463
4986.000000	4.770244
4984.000000	4.778870
4982.000000	4.786614
4980.000000	4.793877
4978.000000	4.801456
4976.000000	4.808792
4974.000000	4.815553
4972.000000	4.822727
4970.000000	4.830192
4968.000000	4.836112
4966.000000	4.841257
4964.000000	4.848124
4962.000000	4.855417
4960.000000	4.862072
4958.000000	4.868634
4956.000000	4.876008
4954.000000	4.883378
4952.000000	4.890035
4950.000000	4.896330
4948.000000	4.902580
4946.000000	4.909430
4944.000000	4.915520
4942.000000	4.922352
4940.000000	4.931480
4938.000000	4.940830
4936.000000	4.948091
4934.000000	4.954341
4932.000000	4.959841
4930.000000	4.963914
4928.000000	4.968622
4926.000000	4.976942
4924.000000	4.986371
4922.000000	4.994012
4920.000000	5.000556
4918.000000	5.007493
4916.000000	5.014663
4914.000000	5.021463
4912.000000	5.027892
4910.000000	5.034058
4908.000000	5.039938
4906.000000	5.045974
4904.000000	5.053693
4902.000000	5.063975
4900.000000	5.074091
4898.000000	5.081875
4896.000000	5.088561
4894.000000	5.095457
4892.000000	5.102080
4890.000000	5.107648
4888.000000	5.114599
4886.000000	5.122499
4884.000000	5.130449
4882.000000	5.137544
4880.000000	5.145554
4878.000000	5.153857
4876.000000	5.161798
4874.000000	5.168620
4872.000000	5.174665
4870.000000	5.181922
4868.000000	5.190617
4866.000000	5.199464
4864.000000	5.206951
4862.000000	5.214401
4860.000000	5.222104
4858.000000	5.229662
4856.000000	5.236666
4854.000000	5.244153
4852.000000	5.251444
4850.000000	5.256620
4848.000000	5.261440
4846.000000	5.268793
4844.000000	5.277454
4842.000000	5.286154
4840.000000	5.295182
4838.000000	5.304158
4836.000000	5.311121
4834.000000	5.316832
4832.000000	5.323649
4830.000000	5.333159
4828.000000	5.342937
4826.000000	5.351084
4824.000000	5.358333
4822.000000	5.365514
4820.000000	5.371718
4818.000000	5.377884
4816.000000	5.386096
4814.000000	5.395987
4812.000000	5.405387
4810.000000	5.412851
4808.000000	5.420160
4806.000000	5.427890
4804.000000	5.435057
4802.000000	5.442489
4800.000000	5.451880
4798.000000	5.462651
4796.000000	5.472670
4794.000000	5.480834
4792.000000	5.489359
4790.000000	5.498380
4788.000000	5.507759
4786.000000	5.517209
4784.000000	5.527103
4782.000000	5.534944
4780.000000	5.541770
4778.000000	5.548905
4776.000000	5.556441
4774.000000	5.564687
4772.000000	5.574865
4770.000000	5.585323
4768.000000	5.594106
4766.000000	5.601398
4764.000000	5.610350
4762.000000	5.620956
4760.000000	5.630273
4758.000000	5.638392
4756.000000	5.647275
4754.000000	5.655655
4752.000000	5.662721
4750.000000	5.669231
4748.000000	5.676745
4746.000000	5.685817
4744.000000	5.694747
4742.000000	5.701981
4740.000000	5.709624
4738.000000	5.718618
4736.000000	5.727292
4734.000000	5.735009
4732.000000	5.742439
4730.000000	5.751617
4728.000000	5.762082
4726.000000	5.771833
4724.000000	5.779927
4722.000000	5.787806
4720.000000	5.796389
4718.000000	5.806164
4716.000000	5.814700
4714.000000	5.822659
4712.000000	5.831539
4710.000000	5.840751
4708.000000	5.848634
4706.000000	5.857241
4704.000000	5.866828
4702.000000	5.876542
4700.000000	5.885311
4698.000000	5.893338
4696.000000	5.901877
4694.000000	5.911050
4692.000000	5.919602
4690.000000	5.927942
4688.000000	5.937157
4686.000000	5.946699
4684.000000	5.955788
4682.000000	5.964320
4680.000000	5.972257
4678.000000	5.980371
4676.000000	5.989266
4674.000000	5.998108
4672.000000	6.006095
4670.000000	6.014028
4668.000000	6.022716
4666.000000	6.031369
4664.000000	6.039392
4662.000000	6.047624
4660.000000	6.056510
4658.000000	6.065235
4656.000000	6.073161
4654.000000	6.080740
4652.000000	6.088681
4650.000000	6.097142
4648.000000	6.106135
4646.000000	6.114057
4644.000000	6.120914
4642.000000	6.128149
4640.000000	6.136870
4638.000000	6.145074
4636.000000	6.151768
4634.000000	6.159072
4632.000000	6.168812
4630.000000	6.179309
4628.000000	6.187977
4626.000000	6.194763
4624.000000	6.201871
4622.000000	6.210311
4620.000000	6.217995
4618.000000	6.225503
4616.000000	6.234262
4614.000000	6.243019
4612.000000	6.249858
4610.000000	6.257126
4608.000000	6.265594
4606.000000	6.275085
4604.000000	6.284525
4602.000000	6.293051
4600.000000	6.301114
4598.000000	6.310038
4596.000000	6.318889
4594.000000	6.327272
4592.000000	6.335746
4590.000000	6.344114
4588.000000	6.352520
4586.000000	6.362656
4584.000000	6.372668
4582.000000	6.380530
4580.000000	6.387187
4578.000000	6.394970
4576.000000	6.403862
4574.000000	6.412546
4572.000000	6.420275
4570.000000	6.427415
4568.000000	6.435127
4566.000000	6.443918
4564.000000	6.452513
4562.000000	6.459691
4560.000000	6.465558
4558.000000	6.473333
4556.000000	6.483589
4554.000000	6.493402
4552.000000	6.501799
4550.000000	6.510675
4548.000000	6.518907
4546.000000	6.526348
4544.000000	6.534392
4542.000000	6.542615
4540.000000	6.549257
4538.000000	6.555649
4536.000000	6.564922
4534.000000	6.575647
4532.000000	6.583143
4530.000000	6.588575
4528.000000	6.596060
4526.000000	6.604711
4524.000000	6.612518
4522.000000	6.619948
4520.000000	6.628024
4518.000000	6.638169
4516.000000	6.648928
4514.000000	6.656666
4512.000000	6.662597
4510.000000	6.670825
4508.000000	6.680100
4506.000000	6.688869
4504.000000	6.696783
4502.000000	6.704892
4500.000000	6.712803
4498.000000	6.720619
4496.000000	6.728737
4494.000000	6.738011
4492.000000	6.746890
4490.000000	6.755625
4488.000000	6.764275
4486.000000	6.771157
4484.000000	6.777346
4482.000000	6.785068
4480.000000	6.793689
4478.000000	6.802398
4476.000000	6.811323
4474.000000	6.819585
4472.000000	6.827558
4470.000000	6.836014
4468.000000	6.845229
4466.000000	6.853790
4464.000000	6.859621
4462.000000	6.864841
4460.000000	6.873270
4458.000000	6.883243
4456.000000	6.892108
4454.000000	6.900180
4452.000000	6.907645
4450.000000	6.914171
4448.000000	6.921049
4446.000000	6.929501
4444.000000	6.937666
4442.000000	6.945150
4440.000000	6.952657
4438.000000	6.960612
4436.000000	6.968653
4434.000000	6.976958
4432.000000	6.984882
4430.000000	6.993143
4428.000000	7.000297
4426.000000	7.006523
4424.000000	7.015009
4422.000000	7.025759
4420.000000	7.034410
4418.000000	7.040988
4416.000000	7.047455
4414.000000	7.054103
4412.000000	7.060794
4410.000000	7.068125
4408.000000	7.075313
4406.000000	7.083615
4404.000000	7.093670
4402.000000	7.102717
4400.000000	7.110051
4398.000000	7.118555
4396.000000	7.126890
4394.000000	7.133554
4392.000000	7.140846
4390.000000	7.149806
4388.000000	7.158233
4386.000000	7.165432
4384.000000	7.172530
4382.000000	7.179426
4380.000000	7.185986
4378.000000	7.193317
4376.000000	7.200796
4374.000000	7.207207
4372.000000	7.213832
4370.000000	7.221051
4368.000000	7.228400
4366.000000	7.236121
4364.000000	7.243132
4362.000000	7.249536
4360.000000	7.256411
4358.000000	7.263451
4356.000000	7.270125
4354.000000	7.277911
4352.000000	7.286974
4350.000000	7.295798
4348.000000	7.302557
4346.000000	7.308242
4344.000000	7.314806
4342.000000	7.322699
4340.000000	7.331188
4338.000000	7.339056
4336.000000	7.344885
4334.000000	7.350646
4332.000000	7.358861
4330.000000	7.368128
4328.000000	7.375517
4326.000000	7.382389
4324.000000	7.390145
4322.000000	7.398002
4320.000000	7.404920
4318.000000	7.412693
4316.000000	7.421082
4314.000000	7.429311
4312.000000	7.436676
4310.000000	7.443993
4308.000000	7.451974
4306.000000	7.460464
4304.000000	7.468908
4302.000000	7.477943
4300.000000	7.486223
4298.000000	7.493621
4296.000000	7.501617
4294.000000	7.509149
4292.000000	7.515387
4290.000000	7.522613
4288.000000	7.530034
4286.000000	7.535867
4284.000000	7.541556
4282.000000	7.549104
4280.000000	7.557570
4278.000000	7.565474
4276.000000	7.572528
4274.000000	7.579299
4272.000000	7.585220
4270.000000	7.591742
4268.000000	7.599320
4266.000000	7.606289
4264.000000	7.612890
4262.000000	7.619807
4260.000000	7.625947
4258.000000	7.633367
4256.000000	7.642670
4254.000000	7.651040
4252.000000	7.657669
4250.000000	7.663813
4248.000000	7.669484
4246.000000	7.676274
4244.000000	7.684875
4242.000000	7.693449
4240.000000	7.701331
4238.000000	7.708981
4236.000000	7.716300
4234.000000	7.724689
4232.000000	7.733990
4230.000000	7.742647
4228.000000	7.749965
4226.000000	7.757278
4224.000000	7.764991
4222.000000	7.772149
4220.000000	7.778903
4218.000000	7.786873
4216.000000	7.795336
4214.000000	7.803059
4212.000000	7.810391
4210.000000	7.818352
4208.000000	7.826260
4206.000000	7.834607
4204.000000	7.844024
4202.000000	7.853230
4200.000000	7.861228
4198.000000	7.869372
4196.000000	7.878948
4194.000000	7.888765
4192.000000	7.896532
4190.000000	7.903640
4188.000000	7.912129
4186.000000	7.920991
4184.000000	7.929787
4182.000000	7.938230
4180.000000	7.946136
4178.000000	7.954530
4176.000000	7.962565
4174.000000	7.970130
4172.000000	7.977276
4170.000000	7.984203
4168.000000	7.992357
4166.000000	8.001807
4164.000000	8.011093
4162.000000	8.019130
4160.000000	8.026384
4158.000000	8.033666
4156.000000	8.041187
4154.000000	8.050565
4152.000000	8.059919
4150.000000	8.066469
4148.000000	8.071908
4146.000000	8.079412
4144.000000	8.088802
4142.000000	8.098569
4140.000000	8.108569
4138.000000	8.117824
4136.000000	8.125505
4134.000000	8.132838
4132.000000	8.140304
4130.000000	8.148520
4128.000000	8.156798
4126.000000	8.164658
4124.000000	8.173287
4122.000000	8.181725
4120.000000	8.188828
4118.000000	8.197229
4116.000000	8.207351
4114.000000	8.216587
4112.000000	8.224130
4110.000000	8.231379
4108.000000	8.239865
4106.000000	8.248889
4104.000000	8.256304
4102.000000	8.263883
4100.000000	8.272522
4098.000000	8.281033
4096.000000	8.289710
4094.000000	8.298367
4092.000000	8.306291
4090.000000	8.315134
4088.000000	8.325392
4086.000000	8.335053
4084.000000	8.341955
4082.000000	8.348282
4080.000000	8.356360
4078.000000	8.364931
4076.000000	8.372644
4074.000000	8.380584
4072.000000	8.389674
4070.000000	8.399067
4068.000000	8.406961
4066.000000	8.414069
4064.000000	8.421594
4062.000000	8.431407
4060.000000	8.442407
4058.000000	8.450384
4056.000000	8.456986
4054.000000	8.464880
4052.000000	8.472368
4050.000000	8.480803
4048.000000	8.490247
4046.000000	8.498149
4044.000000	8.505526
4042.000000	8.514612
4040.000000	8.524305
4038.000000	8.533543
4036.000000	8.543102
4034.000000	8.551618
4032.000000	8.557888
4030.000000	8.564993
4028.000000	8.574292
4026.000000	8.583709
4024.000000	8.591525
4022.000000	8.599140
4020.000000	8.608036
4018.000000	8.617474
4016.000000	8.625873
4014.000000	8.634978
4012.000000	8.645815
4010.000000	8.656271
4008.000000	8.665050
4006.000000	8.672814
4004.000000	8.681305
4002.000000	8.690852
4000.000000	8.699778
3998.000000	8.709454
3996.000000	8.720259
3994.000000	8.729495
3992.000000	8.736138
3990.000000	8.743398
3988.000000	8.752587
3986.000000	8.761249
3984.000000	8.768686
3982.000000	8.777246
3980.000000	8.786303
3978.000000	8.794208
3976.000000	8.802205
3974.000000	8.810881
3972.000000	8.819479
3970.000000	8.828403
3968.000000	8.837396
3966.000000	8.844727
3964.000000	8.850175
3962.000000	8.856951
3960.000000	8.867419
3958.000000	8.878934
3956.000000	8.887142
3954.000000	8.892030
3952.000000	8.896209
3950.000000	8.902895
3948.000000	8.913404
3946.000000	8.924106
3944.000000	8.931804
3942.000000	8.940539
3940.000000	8.952968
3938.000000	8.964998
3936.000000	8.973108
3934.000000	8.979134
3932.000000	8.987911
3930.000000	8.999207
3928.000000	9.008056
3926.000000	9.015422
3924.000000	9.023953
3922.000000	9.031556
3920.000000	9.036782
3918.000000	9.045328
3916.000000	9.061849
3914.000000	9.078844
3912.000000	9.091010
3910.000000	9.100496
3908.000000	9.100449
3906.000000	9.089569
3904.000000	9.083975
3902.000000	9.092983
3900.000000	9.113263
3898.000000	9.140006
3896.000000	9.159575
3894.000000	9.160870
3892.000000	9.161394
3890.000000	9.173813
3888.000000	9.177396
3886.000000	9.179223
3884.000000	9.195778
3882.000000	9.208457
3880.000000	9.221744
3878.000000	9.240935
3876.000000	9.247136
3874.000000	9.240947
3872.000000	9.229951
3870.000000	9.233503
3868.000000	9.254698
3866.000000	9.268201
3864.000000	9.281007
3862.000000	9.304222
3860.000000	9.322140
3858.000000	9.304551
3856.000000	9.240039
3854.000000	9.207812
3852.000000	9.267836
3850.000000	9.350131
3848.000000	9.388486
3846.000000	9.393718
3844.000000	9.391407
3842.000000	9.382675
3840.000000	9.360191
3838.000000	9.356581
3836.000000	9.391166
3834.000000	9.427682
3832.000000	9.450635
3830.000000	9.470795
3828.000000	9.483995
3826.000000	9.487578
3824.000000	9.474861
3822.000000	9.462616
3820.000000	9.471735
3818.000000	9.474344
3816.000000	9.486723
3814.000000	9.534220
3812.000000	9.569286
3810.000000	9.564791
3808.000000	9.551626
3806.000000	9.559292
3804.000000	9.555514
3802.000000	9.545531
3800.000000	9.573969
3798.000000	9.610351
3796.000000	9.634257
3794.000000	9.657403
3792.000000	9.673303
3790.000000	9.681035
3788.000000	9.684893
3786.000000	9.690777
3784.000000	9.699858
3782.000000	9.704837
3780.000000	9.709674
3778.000000	9.724114
3776.000000	9.740553
3774.000000	9.747508
3772.000000	9.742960
3770.000000	9.741466
3768.000000	9.752484
3766.000000	9.768834
3764.000000	9.782823
3762.000000	9.784997
3760.000000	9.783987
3758.000000	9.793044
3756.000000	9.788855
3754.000000	9.750280
3752.000000	9.715519
3750.000000	9.729056
3748.000000	9.748886
3746.000000	9.731946
3744.000000	9.752240
3742.000000	9.820921
3740.000000	9.847179
3738.000000	9.827745
3736.000000	9.818830
3734.000000	9.833267
3732.000000	9.860818
3730.000000	9.891279
3728.000000	9.904226
3726.000000	9.906942
3724.000000	9.912593
3722.000000	9.921372
3720.000000	9.933203
3718.000000	9.942371
3716.000000	9.935275
3714.000000	9.908193
3712.000000	9.895020
3710.000000	9.915682
3708.000000	9.945660
3706.000000	9.960979
3704.000000	9.956901
3702.000000	9.952505
3700.000000	9.961496
3698.000000	9.970830
3696.000000	9.971018
3694.000000	9.957663
3692.000000	9.925141
3690.000000	9.890915
3688.000000	9.897861
3686.000000	9.938514
3684.000000	9.961240
3682.000000	9.955898
3680.000000	9.930181
3678.000000	9.882195
3676.000000	9.850810
3674.000000	9.858697
3672.000000	9.856938
3670.000000	9.858717
3668.000000	9.889914
3666.000000	9.912617
3664.000000	9.913088
3662.000000	9.903733
3660.000000	9.884454
3658.000000	9.855034
3656.000000	9.839490
3654.000000	9.830266
3652.000000	9.790465
3650.000000	9.751450
3648.000000	9.759572
3646.000000	9.788494
3644.000000	9.799578
3642.000000	9.794505
3640.000000	9.784091
3638.000000	9.770324
3636.000000	9.752984
3634.000000	9.730432
3632.000000	9.688045
3630.000000	9.641759
3628.000000	9.642887
3626.000000	9.668292
3624.000000	9.665125
3622.000000	9.634083
3620.000000	9.605305
3618.000000	9.597338
3616.000000	9.590505
3614.000000	9.570149
3612.000000	9.545827
3610.000000	9.526469
3608.000000	9.520426
3606.000000	9.520596
3604.000000	9.511627
3602.000000	9.495499
3600.000000	9.478305
3598.000000	9.460131
3596.000000	9.441970
3594.000000	9.429274
3592.000000	9.413601
3590.000000	9.385484
3588.000000	9.364660
3586.000000	9.362951
3584.000000	9.363111
3582.000000	9.355925
3580.000000	9.345909
3578.000000	9.335714
3576.000000	9.325094
3574.000000	9.314183
3572.000000	9.300464
3570.000000	9.278666
3568.000000	9.258166
3566.000000	9.254403
3564.000000	9.258792
3562.000000	9.256240
3560.000000	9.249117
3558.000000	9.242962
3556.000000	9.235323
3554.000000	9.227512
3552.000000	9.221637
3550.000000	9.214777
3548.000000	9.204991
3546.000000	9.197137
3544.000000	9.194508
3542.000000	9.192872
3540.000000	9.188810
3538.000000	9.182815
3536.000000	9.176824
3534.000000	9.171918
3532.000000	9.166937
3530.000000	9.159314
3528.000000	9.149904
3526.000000	9.141738
3524.000000	9.135132
3522.000000	9.129655
3520.000000	9.124564
3518.000000	9.118230
3516.000000	9.110339
3514.000000	9.103725
3512.000000	9.095408
3510.000000	9.085009
3508.000000	9.075369
3506.000000	9.063711
3504.000000	9.051276
3502.000000	9.042206
3500.000000	9.034360
3498.000000	9.024458
3496.000000	9.013276
3494.000000	9.002390
3492.000000	8.992271
3490.000000	8.981886
3488.000000	8.970717
3486.000000	8.959738
3484.000000	8.949992
3482.000000	8.941355
3480.000000	8.933449
3478.000000	8.926701
3476.000000	8.921517
3474.000000	8.918343
3472.000000	8.914885
3470.000000	8.910298
3468.000000	8.906980
3466.000000	8.907413
3464.000000	8.908018
3462.000000	8.905340
3460.000000	8.902223
3458.000000	8.900673
3456.000000	8.900166
3454.000000	8.899239
3452.000000	8.896118
3450.000000	8.892985
3448.000000	8.890829
3446.000000	8.889800
3444.000000	8.887856
3442.000000	8.888838
3440.000000	8.896572
3438.000000	8.904770
3436.000000	8.912407
3434.000000	8.921875
3432.000000	8.933259
3430.000000	8.944914
3428.000000	8.956206
3426.000000	8.968107
3424.000000	8.980289
3422.000000	8.990682
3420.000000	8.999414
3418.000000	9.007785
3416.000000	9.016352
3414.000000	9.024460
3412.000000	9.030125
3410.000000	9.033775
3408.000000	9.037883
3406.000000	9.042061
3404.000000	9.045815
3402.000000	9.049798
3400.000000	9.054674
3398.000000	9.061411
3396.000000	9.069556
3394.000000	9.076844
3392.000000	9.082612
3390.000000	9.089510
3388.000000	9.096954
3386.000000	9.101276
3384.000000	9.105266
3382.000000	9.112161
3380.000000	9.116439
3378.000000	9.117706
3376.000000	9.122438
3374.000000	9.129211
3372.000000	9.132887
3370.000000	9.134737
3368.000000	9.137662
3366.000000	9.141584
3364.000000	9.146253
3362.000000	9.151166
3360.000000	9.155546
3358.000000	9.158346
3356.000000	9.161006
3354.000000	9.166134
3352.000000	9.171024
3350.000000	9.173441
3348.000000	9.177354
3346.000000	9.183021
3344.000000	9.187560
3342.000000	9.190760
3340.000000	9.193307
3338.000000	9.196397
3336.000000	9.200626
3334.000000	9.205032
3332.000000	9.208873
3330.000000	9.211967
3328.000000	9.214683
3326.000000	9.217400
3324.000000	9.221488
3322.000000	9.226132
3320.000000	9.231105
3318.000000	9.234241
3316.000000	9.235689
3314.000000	9.237801
3312.000000	9.240074
3310.000000	9.242122
3308.000000	9.243559
3306.000000	9.246426
3304.000000	9.250853
3302.000000	9.255672
3300.000000	9.258737
3298.000000	9.259989
3296.000000	9.262382
3294.000000	9.264672
3292.000000	9.267149
3290.000000	9.271885
3288.000000	9.277824
3286.000000	9.281304
3284.000000	9.284349
3282.000000	9.288350
3280.000000	9.290179
3278.000000	9.291980
3276.000000	9.296890
3274.000000	9.301106
3272.000000	9.302996
3270.000000	9.306280
3268.000000	9.310918
3266.000000	9.315016
3264.000000	9.318127
3262.000000	9.320493
3260.000000	9.323925
3258.000000	9.328352
3256.000000	9.330072
3254.000000	9.332842
3252.000000	9.339351
3250.000000	9.345753
3248.000000	9.349636
3246.000000	9.353751
3244.000000	9.359056
3242.000000	9.362134
3240.000000	9.365360
3238.000000	9.370462
3236.000000	9.375103
3234.000000	9.379150
3232.000000	9.384033
3230.000000	9.389462
3228.000000	9.394214
3226.000000	9.399043
3224.000000	9.405323
3222.000000	9.409848
3220.000000	9.413205
3218.000000	9.417705
3216.000000	9.421505
3214.000000	9.425212
3212.000000	9.430032
3210.000000	9.434929
3208.000000	9.441175
3206.000000	9.449109
3204.000000	9.454927
3202.000000	9.461232
3200.000000	9.468969
3198.000000	9.476698
3196.000000	9.484920
3194.000000	9.492278
3192.000000	9.499880
3190.000000	9.508671
3188.000000	9.516004
3186.000000	9.523117
3184.000000	9.531407
3182.000000	9.538767
3180.000000	9.544987
3178.000000	9.550457
3176.000000	9.557226
3174.000000	9.566291
3172.000000	9.574971
3170.000000	9.582623
3168.000000	9.589326
3166.000000	9.594819
3164.000000	9.602717
3162.000000	9.611731
3160.000000	9.619221
3158.000000	9.625648
3156.000000	9.631639
3154.000000	9.638786
3152.000000	9.647292
3150.000000	9.656077
3148.000000	9.664785
3146.000000	9.673310
3144.000000	9.681783
3142.000000	9.689905
3140.000000	9.697036
3138.000000	9.704056
3136.000000	9.712183
3134.000000	9.719133
3132.000000	9.724284
3130.000000	9.730065
3128.000000	9.737231
3126.000000	9.743784
3124.000000	9.750198
3122.000000	9.756157
3120.000000	9.759760
3118.000000	9.763307
3116.000000	9.769357
3114.000000	9.776756
3112.000000	9.781848
3110.000000	9.784584
3108.000000	9.789802
3106.000000	9.797854
3104.000000	9.804594
3102.000000	9.810186
3100.000000	9.816842
3098.000000	9.823318
3096.000000	9.828747
3094.000000	9.835005
3092.000000	9.842519
3090.000000	9.849208
3088.000000	9.855362
3086.000000	9.860926
3084.000000	9.865527
3082.000000	9.869536
3080.000000	9.871772
3078.000000	9.874220
3076.000000	9.879007
3074.000000	9.883042
3072.000000	9.885043
3070.000000	9.885144
3068.000000	9.884884
3066.000000	9.887507
3064.000000	9.891137
3062.000000	9.894865
3060.000000	9.900048
3058.000000	9.906185
3056.000000	9.912904
3054.000000	9.918989
3052.000000	9.923440
3050.000000	9.928081
3048.000000	9.933921
3046.000000	9.939749
3044.000000	9.944473
3042.000000	9.947535
3040.000000	9.949691
3038.000000	9.951024
3036.000000	9.951844
3034.000000	9.952110
3032.000000	9.949853
3030.000000	9.945219
3028.000000	9.938223
3026.000000	9.926191
3024.000000	9.910854
3022.000000	9.897325
3020.000000	9.890784
3018.000000	9.895804
3016.000000	9.911968
3014.000000	9.937566
3012.000000	9.968841
3010.000000	9.998637
3008.000000	10.021487
3006.000000	10.037308
3004.000000	10.048619
3002.000000	10.056516
3000.000000	10.062777
2998.000000	10.067735
2996.000000	10.070671
2994.000000	10.073384
2992.000000	10.074037
2990.000000	10.072759
2988.000000	10.070838
2986.000000	10.065788
2984.000000	10.058039
2982.000000	10.047251
2980.000000	10.033739
2978.000000	10.015008
2976.000000	9.987319
2974.000000	9.949038
2972.000000	9.899900
2970.000000	9.842058
2968.000000	9.780240
2966.000000	9.724518
2964.000000	9.687658
2962.000000	9.674456
2960.000000	9.682716
2958.000000	9.704396
2956.000000	9.730139
2954.000000	9.753643
2952.000000	9.771391
2950.000000	9.780473
2948.000000	9.777694
2946.000000	9.760351
2944.000000	9.727483
2942.000000	9.680941
2940.000000	9.627595
2938.000000	9.574566
2936.000000	9.525551
2934.000000	9.481203
2932.000000	9.438862
2930.000000	9.397415
2928.000000	9.365011
2926.000000	9.350063
2924.000000	9.365050
2922.000000	9.416193
2920.000000	9.494002
2918.000000	9.585653
2916.000000	9.680592
2914.000000	9.768244
2912.000000	9.842035
2910.000000	9.899371
2908.000000	9.944353
2906.000000	9.982679
2904.000000	10.017275
2902.000000	10.049579
2900.000000	10.079655
2898.000000	10.107945
2896.000000	10.134306
2894.000000	10.158637
2892.000000	10.182713
2890.000000	10.205416
2888.000000	10.223787
2886.000000	10.238425
2884.000000	10.250169
2882.000000	10.256940
2880.000000	10.257946
2878.000000	10.253226
2876.000000	10.243826
2874.000000	10.229407
2872.000000	10.204486
2870.000000	10.165540
2868.000000	10.113512
2866.000000	10.052915
2864.000000	9.997011
2862.000000	9.962760
2860.000000	9.960035
2858.000000	9.984613
2856.000000	10.023795
2854.000000	10.067814
2852.000000	10.118157
2850.000000	10.178893
2848.000000	10.247380
2846.000000	10.316117
2844.000000	10.376497
2842.000000	10.425754
2840.000000	10.465642
2838.000000	10.496953
2836.000000	10.523354
2834.000000	10.546976
2832.000000	10.566880
2830.000000	10.584070
2828.000000	10.599037
2826.000000	10.612289
2824.000000	10.627043
2822.000000	10.642515
2820.000000	10.654888
2818.000000	10.664791
2816.000000	10.675785
2814.000000	10.687310
2812.000000	10.695794
2810.000000	10.702808
2808.000000	10.711946
2806.000000	10.721654
2804.000000	10.730362
2802.000000	10.737951
2800.000000	10.744689
2798.000000	10.750896
2796.000000	10.758207
2794.000000	10.764872
2792.000000	10.771784
2790.000000	10.781532
2788.000000	10.793222
2786.000000	10.804705
2784.000000	10.815099
2782.000000	10.825826
2780.000000	10.835798
2778.000000	10.844883
2776.000000	10.854093
2774.000000	10.862209
2772.000000	10.870868
2770.000000	10.879391
2768.000000	10.886465
2766.000000	10.892865
2764.000000	10.899607
2762.000000	10.905825
2760.000000	10.912631
2758.000000	10.919265
2756.000000	10.925137
2754.000000	10.932223
2752.000000	10.939649
2750.000000	10.945379
2748.000000	10.951233
2746.000000	10.955916
2744.000000	10.960154
2742.000000	10.964559
2740.000000	10.967201
2738.000000	10.970756
2736.000000	10.976114
2734.000000	10.980832
2732.000000	10.985707
2730.000000	10.991245
2728.000000	10.995563
2726.000000	10.998805
2724.000000	11.002588
2722.000000	11.006090
2720.000000	11.009652
2718.000000	11.014130
2716.000000	11.018528
2714.000000	11.021524
2712.000000	11.023946
2710.000000	11.026417
2708.000000	11.029130
2706.000000	11.032164
2704.000000	11.034032
2702.000000	11.036446
2700.000000	11.040089
2698.000000	11.044925
2696.000000	11.050947
2694.000000	11.056250
2692.000000	11.060065
2690.000000	11.063542
2688.000000	11.068825
2686.000000	11.073279
2684.000000	11.075519
2682.000000	11.077075
2680.000000	11.077861
2678.000000	11.080440
2676.000000	11.083742
2674.000000	11.084318
2672.000000	11.085532
2670.000000	11.087316
2668.000000	11.089406
2666.000000	11.091559
2664.000000	11.093894
2662.000000	11.096199
2660.000000	11.097606
2658.000000	11.098742
2656.000000	11.101547
2654.000000	11.103460
2652.000000	11.103383
2650.000000	11.104910
2648.000000	11.107713
2646.000000	11.110721
2644.000000	11.114374
2642.000000	11.116212
2640.000000	11.115732
2638.000000	11.116196
2636.000000	11.119999
2634.000000	11.123241
2632.000000	11.124295
2630.000000	11.124735
2628.000000	11.125258
2626.000000	11.125471
2624.000000	11.126132
2622.000000	11.126887
2620.000000	11.128790
2618.000000	11.131790
2616.000000	11.132930
2614.000000	11.131836
2612.000000	11.131834
2610.000000	11.133351
2608.000000	11.133068
2606.000000	11.131613
2604.000000	11.131183
2602.000000	11.130523
2600.000000	11.129302
2598.000000	11.128584
2596.000000	11.128670
2594.000000	11.128526
2592.000000	11.129250
2590.000000	11.129337
2588.000000	11.131203
2586.000000	11.134977
2584.000000	11.139527
2582.000000	11.143875
2580.000000	11.147432
2578.000000	11.151609
2576.000000	11.156059
2574.000000	11.159545
2572.000000	11.162126
2570.000000	11.165110
2568.000000	11.167835
2566.000000	11.169593
2564.000000	11.170794
2562.000000	11.171872
2560.000000	11.173841
2558.000000	11.175610
2556.000000	11.175850
2554.000000	11.176003
2552.000000	11.176489
2550.000000	11.176318
2548.000000	11.176577
2546.000000	11.178544
2544.000000	11.180694
2542.000000	11.181014
2540.000000	11.181463
2538.000000	11.182373
2536.000000	11.183199
2534.000000	11.183925
2532.000000	11.184995
2530.000000	11.186481
2528.000000	11.186908
2526.000000	11.187062
2524.000000	11.189056
2522.000000	11.190160
2520.000000	11.190643
2518.000000	11.190731
2516.000000	11.190643
2514.000000	11.191100
2512.000000	11.192241
2510.000000	11.193390
2508.000000	11.193799
2506.000000	11.193119
2504.000000	11.193007
2502.000000	11.192374
2500.000000	11.192655
2498.000000	11.193966
2496.000000	11.194863
2494.000000	11.196180
2492.000000	11.196283
2490.000000	11.196972
2488.000000	11.199451
2486.000000	11.200478
2484.000000	11.200818
2482.000000	11.202248
2480.000000	11.204097
2478.000000	11.203528
2476.000000	11.201367
2474.000000	11.201490
2472.000000	11.203702
2470.000000	11.203282
2468.000000	11.200480
2466.000000	11.199349
2464.000000	11.200322
2462.000000	11.200354
2460.000000	11.198016
2458.000000	11.196068
2456.000000	11.195545
2454.000000	11.193146
2452.000000	11.189117
2450.000000	11.185680
2448.000000	11.183076
2446.000000	11.179416
2444.000000	11.174675
2442.000000	11.169005
2440.000000	11.162763
2438.000000	11.155931
2436.000000	11.149327
2434.000000	11.142743
2432.000000	11.137616
2430.000000	11.132997
2428.000000	11.129042
2426.000000	11.127121
2424.000000	11.128306
2422.000000	11.132418
2420.000000	11.138929
2418.000000	11.145451
2416.000000	11.153200
2414.000000	11.160816
2412.000000	11.167201
2410.000000	11.174158
2408.000000	11.180805
2406.000000	11.186166
2404.000000	11.189704
2402.000000	11.193312
2400.000000	11.196858
2398.000000	11.199458
2396.000000	11.201307
2394.000000	11.203049
2392.000000	11.205767
2390.000000	11.207629
2388.000000	11.207411
2386.000000	11.207069
2384.000000	11.208282
2382.000000	11.206697
2380.000000	11.198198
2378.000000	11.185441
2376.000000	11.171027
2374.000000	11.153596
2372.000000	11.133640
2370.000000	11.111276
2368.000000	11.089201
2366.000000	11.071091
2364.000000	11.058418
2362.000000	11.055127
2360.000000	11.061601
2358.000000	11.074387
2356.000000	11.094537
2354.000000	11.120675
2352.000000	11.150243
2350.000000	11.169217
2348.000000	11.161631
2346.000000	11.138262
2344.000000	11.114747
2342.000000	11.096723
2340.000000	11.087093
2338.000000	11.084147
2336.000000	11.085636
2334.000000	11.088667
2332.000000	11.093075
2330.000000	11.099497
2328.000000	11.106306
2326.000000	11.114862
2324.000000	11.124317
2322.000000	11.132612
2320.000000	11.142059
2318.000000	11.149329
2316.000000	11.154679
2314.000000	11.161886
2312.000000	11.166875
2310.000000	11.168674
2308.000000	11.172592
2306.000000	11.175412
2304.000000	11.175829
2302.000000	11.176220
2300.000000	11.176375
2298.000000	11.176994
2296.000000	11.177921
2294.000000	11.178547
2292.000000	11.178245
2290.000000	11.176253
2288.000000	11.174796
2286.000000	11.174380
2284.000000	11.173590
2282.000000	11.172148
2280.000000	11.171448
2278.000000	11.170773
2276.000000	11.169910
2274.000000	11.168153
2272.000000	11.164754
2270.000000	11.161840
2268.000000	11.160517
2266.000000	11.157432
2264.000000	11.154962
2262.000000	11.153533
2260.000000	11.153178
2258.000000	11.153070
2256.000000	11.151373
2254.000000	11.150245
2252.000000	11.150063
2250.000000	11.150862
2248.000000	11.151706
2246.000000	11.151752
2244.000000	11.152099
2242.000000	11.153135
2240.000000	11.153985
2238.000000	11.154042
2236.000000	11.155721
2234.000000	11.156717
2232.000000	11.156324
2230.000000	11.156231
2228.000000	11.157814
2226.000000	11.160653
2224.000000	11.161677
2222.000000	11.161686
2220.000000	11.162292
2218.000000	11.160900
2216.000000	11.158437
2214.000000	11.158165
2212.000000	11.161275
2210.000000	11.162668
2208.000000	11.163999
2206.000000	11.166212
2204.000000	11.166384
2202.000000	11.164102
2200.000000	11.164037
2198.000000	11.167030
2196.000000	11.170175
2194.000000	11.171143
2192.000000	11.171235
2190.000000	11.171214
2188.000000	11.171955
2186.000000	11.173511
2184.000000	11.174963
2182.000000	11.174444
2180.000000	11.174206
2178.000000	11.174116
2176.000000	11.174638
2174.000000	11.174659
2172.000000	11.173341
2170.000000	11.172983
2168.000000	11.175858
2166.000000	11.179807
2164.000000	11.181636
2162.000000	11.181621
2160.000000	11.184258
2158.000000	11.187340
2156.000000	11.189599
2154.000000	11.191797
2152.000000	11.194841
2150.000000	11.196115
2148.000000	11.195264
2146.000000	11.195742
2144.000000	11.198763
2142.000000	11.201993
2140.000000	11.204952
2138.000000	11.205794
2136.000000	11.206354
2134.000000	11.207815
2132.000000	11.209123
2130.000000	11.210796
2128.000000	11.213812
2126.000000	11.217374
2124.000000	11.219997
2122.000000	11.220685
2120.000000	11.223015
2118.000000	11.227392
2116.000000	11.232192
2114.000000	11.234535
2112.000000	11.236160
2110.000000	11.239904
2108.000000	11.245207
2106.000000	11.249287
2104.000000	11.252541
2102.000000	11.255431
2100.000000	11.260621
2098.000000	11.267387
2096.000000	11.271950
2094.000000	11.274083
2092.000000	11.278577
2090.000000	11.283868
2088.000000	11.287645
2086.000000	11.290262
2084.000000	11.295061
2082.000000	11.300291
2080.000000	11.305319
2078.000000	11.309259
2076.000000	11.313397
2074.000000	11.318486
2072.000000	11.323302
2070.000000	11.327683
2068.000000	11.332921
2066.000000	11.337495
2064.000000	11.343718
2062.000000	11.350805
2060.000000	11.356100
2058.000000	11.358677
2056.000000	11.363302
2054.000000	11.370190
2052.000000	11.376617
2050.000000	11.380150
2048.000000	11.383176
2046.000000	11.388026
2044.000000	11.395046
2042.000000	11.399292
2040.000000	11.403571
2038.000000	11.408949
2036.000000	11.412550
2034.000000	11.414962
2032.000000	11.417028
2030.000000	11.417665
2028.000000	11.422604
2026.000000	11.430069
2024.000000	11.436172
2022.000000	11.439350
2020.000000	11.440743
2018.000000	11.441977
2016.000000	11.447422
2014.000000	11.454305
2012.000000	11.458442
2010.000000	11.460746
2008.000000	11.464093
2006.000000	11.467372
2004.000000	11.470639
2002.000000	11.472021
2000.000000	11.474730
1998.000000	11.479415
1996.000000	11.481495
1994.000000	11.479295
1992.000000	11.478297
1990.000000	11.481313
1988.000000	11.484364
1986.000000	11.485102
1984.000000	11.484673
1982.000000	11.484525
1980.000000	11.485410
1978.000000	11.484935
1976.000000	11.484856
1974.000000	11.484261
1972.000000	11.482167
1970.000000	11.477027
1968.000000	11.471962
1966.000000	11.471250
1964.000000	11.470296
1962.000000	11.462955
1960.000000	11.447608
1958.000000	11.444502
1956.000000	11.454254
1954.000000	11.456563
1952.000000	11.455672
1950.000000	11.452793
1948.000000	11.448523
1946.000000	11.442033
1944.000000	11.432443
1942.000000	11.427991
1940.000000	11.430930
1938.000000	11.430228
1936.000000	11.427572
1934.000000	11.423750
1932.000000	11.419912
1930.000000	11.415296
1928.000000	11.411057
1926.000000	11.404562
1924.000000	11.393541
1922.000000	11.386384
1920.000000	11.376113
1918.000000	11.364470
1916.000000	11.367743
1914.000000	11.366939
1912.000000	11.358977
1910.000000	11.349242
1908.000000	11.341639
1906.000000	11.334267
1904.000000	11.326439
1902.000000	11.318207
1900.000000	11.312539
1898.000000	11.304287
1896.000000	11.295383
1894.000000	11.289728
1892.000000	11.281889
1890.000000	11.271654
1888.000000	11.272979
1886.000000	11.274774
1884.000000	11.271392
1882.000000	11.266228
1880.000000	11.263323
1878.000000	11.260221
1876.000000	11.255505
1874.000000	11.249586
1872.000000	11.235975
1870.000000	11.213366
1868.000000	11.211527
1866.000000	11.223065
1864.000000	11.225621
1862.000000	11.221216
1860.000000	11.216841
1858.000000	11.213213
1856.000000	11.207810
1854.000000	11.201086
1852.000000	11.196421
1850.000000	11.188321
1848.000000	11.174768
1846.000000	11.142400
1844.000000	11.124120
1842.000000	11.145574
1840.000000	11.154674
1838.000000	11.146523
1836.000000	11.140352
1834.000000	11.131406
1832.000000	11.108438
1830.000000	11.087471
1828.000000	11.086087
1826.000000	11.077918
1824.000000	11.076331
1822.000000	11.077635
1820.000000	11.069707
1818.000000	11.058169
1816.000000	11.048235
1814.000000	11.036388
1812.000000	11.019448
1810.000000	11.007408
1808.000000	11.001661
1806.000000	10.989593
1804.000000	10.970615
1802.000000	10.946673
1800.000000	10.932585
1798.000000	10.927226
1796.000000	10.909857
1794.000000	10.867520
1792.000000	10.845995
1790.000000	10.861417
1788.000000	10.862332
1786.000000	10.839980
1784.000000	10.824849
1782.000000	10.810558
1780.000000	10.796167
1778.000000	10.784623
1776.000000	10.756576
1774.000000	10.698908
1772.000000	10.672453
1770.000000	10.689756
1768.000000	10.694904
1766.000000	10.700912
1764.000000	10.681439
1762.000000	10.652324
1760.000000	10.647637
1758.000000	10.633801
1756.000000	10.618032
1754.000000	10.592257
1752.000000	10.538679
1750.000000	10.517213
1748.000000	10.518766
1746.000000	10.511202
1744.000000	10.492206
1742.000000	10.460491
1740.000000	10.432486
1738.000000	10.423629
1736.000000	10.357916
1734.000000	10.302432
1732.000000	10.354682
1730.000000	10.396176
1728.000000	10.401271
1726.000000	10.394735
1724.000000	10.383829
1722.000000	10.365574
1720.000000	10.304303
1718.000000	10.230874
1716.000000	10.246690
1714.000000	10.292763
1712.000000	10.308698
1710.000000	10.296079
1708.000000	10.268705
1706.000000	10.239135
1704.000000	10.221400
1702.000000	10.146643
1700.000000	10.099869
1698.000000	10.113958
1696.000000	10.105059
1694.000000	10.168124
1692.000000	10.214145
1690.000000	10.204987
1688.000000	10.168976
1686.000000	10.069323
1684.000000	10.040217
1682.000000	10.120927
1680.000000	10.157880
1678.000000	10.139845
1676.000000	10.097823
1674.000000	10.097233
1672.000000	10.091432
1670.000000	10.062083
1668.000000	10.073818
1666.000000	10.086947
1664.000000	10.061244
1662.000000	10.048279
1660.000000	10.056332
1658.000000	10.042726
1656.000000	9.955911
1654.000000	9.810905
1652.000000	9.829382
1650.000000	9.931049
1648.000000	9.909692
1646.000000	9.888663
1644.000000	9.926863
1642.000000	9.940811
1640.000000	9.917043
1638.000000	9.855153
1636.000000	9.790781
1634.000000	9.815514
1632.000000	9.847051
1630.000000	9.823175
1628.000000	9.787246
1626.000000	9.748612
1624.000000	9.692743
1622.000000	9.652252
1620.000000	9.606274
1618.000000	9.516076
1616.000000	9.471246
1614.000000	9.467732
1612.000000	9.411109
1610.000000	9.344201
1608.000000	9.311503
1606.000000	9.315807
1604.000000	9.337289
1602.000000	9.363759
1600.000000	9.387684
1598.000000	9.408664
1596.000000	9.423477
1594.000000	9.435187
1592.000000	9.442012
1590.000000	9.441783
1588.000000	9.436571
1586.000000	9.429037
1584.000000	9.420799
1582.000000	9.415454
1580.000000	9.400423
1578.000000	9.338514
1576.000000	9.302197
1574.000000	9.352184
1572.000000	9.358863
1570.000000	9.326535
1568.000000	9.325923
1566.000000	9.319277
1564.000000	9.285800
1562.000000	9.194133
1560.000000	9.062947
1558.000000	9.069102
1556.000000	9.157842
1554.000000	9.209592
1552.000000	9.252808
1550.000000	9.279183
1548.000000	9.294290
1546.000000	9.289036
1544.000000	9.269906
1542.000000	9.228581
1540.000000	9.215543
1538.000000	9.307984
1536.000000	9.386464
1534.000000	9.390273
1532.000000	9.413931
1530.000000	9.432571
1528.000000	9.420011
1526.000000	9.401695
1524.000000	9.374380
1522.000000	9.327066
1520.000000	9.334291
1518.000000	9.348114
1516.000000	9.334001
1514.000000	9.320290
1512.000000	9.300203
1510.000000	9.256372
1508.000000	9.151710
1506.000000	9.091539
1504.000000	9.090030
1502.000000	8.976465
1500.000000	8.710979
1498.000000	8.368080
1496.000000	8.112583
1494.000000	8.077707
1492.000000	8.201815
1490.000000	8.395899
1488.000000	8.598406
1486.000000	8.759134
1484.000000	8.863424
1482.000000	8.913797
1480.000000	8.936368
1478.000000	8.930937
1476.000000	8.902324
1474.000000	8.857635
1472.000000	8.839812
1470.000000	8.851661
1468.000000	8.828874
1466.000000	8.772256
1464.000000	8.731526
1462.000000	8.698907
1460.000000	8.603662
1458.000000	8.444982
1456.000000	8.339749
1454.000000	8.289059
1452.000000	8.234727
1450.000000	8.250661
1448.000000	8.344874
1446.000000	8.445400
1444.000000	8.493449
1442.000000	8.504374
1440.000000	8.494858
1438.000000	8.463062
1436.000000	8.466989
1434.000000	8.509610
1432.000000	8.517047
1430.000000	8.511570
1428.000000	8.513143
1426.000000	8.512235
1424.000000	8.502952
1422.000000	8.481804
1420.000000	8.437111
1418.000000	8.430955
1416.000000	8.440838
1414.000000	8.425452
1412.000000	8.388817
1410.000000	8.331474
1408.000000	8.250587
1406.000000	8.168137
1404.000000	8.123566
1402.000000	8.127453
1400.000000	8.155572
1398.000000	8.203599
1396.000000	8.244804
1394.000000	8.281717
1392.000000	8.316160
1390.000000	8.316351
1388.000000	8.285360
1386.000000	8.255296
1384.000000	8.245659
1382.000000	8.261252
1380.000000	8.272453
1378.000000	8.265419
1376.000000	8.250589
1374.000000	8.239689
1372.000000	8.238247
1370.000000	8.229305
1368.000000	8.213961
1366.000000	8.198608
1364.000000	8.178606
1362.000000	8.162525
1360.000000	8.154237
1358.000000	8.141509
1356.000000	8.120358
1354.000000	8.097248
1352.000000	8.075850
1350.000000	8.055867
1348.000000	8.033964
1346.000000	8.009760
1344.000000	7.986474
1342.000000	7.960409
1340.000000	7.935239
1338.000000	7.923306
1336.000000	7.914814
1334.000000	7.902381
1332.000000	7.887256
1330.000000	7.870147
1328.000000	7.848043
1326.000000	7.822346
1324.000000	7.794697
1322.000000	7.764200
1320.000000	7.733699
1318.000000	7.705478
1316.000000	7.675267
1314.000000	7.643502
1312.000000	7.611890
1310.000000	7.578801
1308.000000	7.543961
1306.000000	7.510814
1304.000000	7.477301
1302.000000	7.440306
1300.000000	7.403080
1298.000000	7.367304
1296.000000	7.330811
1294.000000	7.292532
1292.000000	7.253177
1290.000000	7.211198
1288.000000	7.168971
1286.000000	7.125749
1284.000000	7.080942
1282.000000	7.036242
1280.000000	6.987202
1278.000000	6.933104
1276.000000	6.874627
1274.000000	6.807345
1272.000000	6.726004
1270.000000	6.625077
1268.000000	6.495164
1266.000000	6.339018
1264.000000	6.178291
1262.000000	6.051713
1260.000000	5.993444
1258.000000	6.004581
1256.000000	6.049201
1254.000000	6.086684
1252.000000	6.095417
1250.000000	6.075265
1248.000000	6.033949
1246.000000	5.982989
1244.000000	5.930716
1242.000000	5.878620
1240.000000	5.825802
1238.000000	5.772529
1236.000000	5.720205
1234.000000	5.669714
1232.000000	5.620200
1230.000000	5.572660
1228.000000	5.525819
1226.000000	5.479914
1224.000000	5.431966
1222.000000	5.380243
1220.000000	5.325804
1218.000000	5.269873
1216.000000	5.213489
1214.000000	5.158536
1212.000000	5.107779
1210.000000	5.060526
1208.000000	5.014823
1206.000000	4.971385
1204.000000	4.927755
1202.000000	4.884864
1200.000000	4.841651
1198.000000	4.798649
1196.000000	4.756306
1194.000000	4.713485
1192.000000	4.668117
1190.000000	4.621722
1188.000000	4.572597
1186.000000	4.520853
1184.000000	4.456219
1182.000000	4.376680
1180.000000	4.315597
1178.000000	4.287695
1176.000000	4.262160
1174.000000	4.222552
1172.000000	4.176077
1170.000000	4.128109
1168.000000	4.074724
1166.000000	4.020533
1164.000000	3.969729
1162.000000	3.920825
1160.000000	3.873519
1158.000000	3.827163
1156.000000	3.781682
1154.000000	3.734773
1152.000000	3.685854
1150.000000	3.639502
1148.000000	3.595078
1146.000000	3.549883
1144.000000	3.504592
1142.000000	3.464265
1140.000000	3.429722
1138.000000	3.396278
1136.000000	3.357787
1134.000000	3.316100
1132.000000	3.272598
1130.000000	3.224467
1128.000000	3.176853
1126.000000	3.134219
1124.000000	3.090518
1122.000000	3.042201
1120.000000	2.992047
1118.000000	2.942245
1116.000000	2.890092
1114.000000	2.837527
1112.000000	2.787459
1110.000000	2.738823
1108.000000	2.690087
1106.000000	2.641087
1104.000000	2.596198
1102.000000	2.552220
1100.000000	2.507285
1098.000000	2.464399
1096.000000	2.421279
1094.000000	2.379863
1092.000000	2.340225
1090.000000	2.304459
1088.000000	2.270453
1086.000000	2.236292
1084.000000	2.202053
1082.000000	2.166567
1080.000000	2.132431
1078.000000	2.102520
1076.000000	2.078002
1074.000000	2.058531
1072.000000	2.039219
1070.000000	2.018583
1068.000000	1.997712
1066.000000	1.976821
1064.000000	1.956680
1062.000000	1.936138
1060.000000	1.912465
1058.000000	1.884359
1056.000000	1.845968
1054.000000	1.793177
1052.000000	1.740386
1050.000000	1.710728
1048.000000	1.710023
1046.000000	1.720266
1044.000000	1.719562
1042.000000	1.707517
1040.000000	1.689139
1038.000000	1.667729
1036.000000	1.645329
1034.000000	1.618600
1032.000000	1.589603
1030.000000	1.563097
1028.000000	1.534391
1026.000000	1.503348
1024.000000	1.473848
1022.000000	1.442483
1020.000000	1.411909
1018.000000	1.387391
1016.000000	1.365383
1014.000000	1.343816
1012.000000	1.325192
1010.000000	1.308929
1008.000000	1.293516
1006.000000	1.275317
1004.000000	1.253687
1002.000000	1.230502
1000.000000	1.206017
