PE IR       SUBTECH     SPECTRUM    ASCII       PEDS        4.00        
   -1
TE109A_018_90K_SB.ASC
20/04/21
12:38:00.00
20/04/21
12:38:00.00
Administrator
TE109A, Tuesday, April 21 2020, 018.
1000.000000
#HDR
-1
-1
#GR
cm-1
EGY
1.0
0.0
6000.000000
-2.000000
2501
8
6.505141
0.675404
#DATA
6000.000000	1.042657
5998.000000	1.044631
5996.000000	1.048612
5994.000000	1.052819
5992.000000	1.056338
5990.000000	1.058478
5988.000000	1.059768
5986.000000	1.061541
5984.000000	1.064324
5982.000000	1.068289
5980.000000	1.070127
5978.000000	1.070461
5976.000000	1.072688
5974.000000	1.075915
5972.000000	1.079213
5970.000000	1.080635
5968.000000	1.081907
5966.000000	1.083722
5964.000000	1.085477
5962.000000	1.086848
5960.000000	1.088866
5958.000000	1.092069
5956.000000	1.095594
5954.000000	1.098104
5952.000000	1.099555
5950.000000	1.101633
5948.000000	1.104378
5946.000000	1.106826
5944.000000	1.109100
5942.000000	1.111073
5940.000000	1.113952
5938.000000	1.116586
5936.000000	1.119114
5934.000000	1.120938
5932.000000	1.122402
5930.000000	1.124912
5928.000000	1.127927
5926.000000	1.129886
5924.000000	1.130872
5922.000000	1.132641
5920.000000	1.134710
5918.000000	1.135994
5916.000000	1.136890
5914.000000	1.138963
5912.000000	1.141994
5910.000000	1.145215
5908.000000	1.147594
5906.000000	1.150845
5904.000000	1.153777
5902.000000	1.157112
5900.000000	1.160708
5898.000000	1.163630
5896.000000	1.165143
5894.000000	1.166637
5892.000000	1.169371
5890.000000	1.171683
5888.000000	1.172253
5886.000000	1.172610
5884.000000	1.174341
5882.000000	1.176928
5880.000000	1.178740
5878.000000	1.182076
5876.000000	1.186506
5874.000000	1.190365
5872.000000	1.192743
5870.000000	1.194977
5868.000000	1.197646
5866.000000	1.199530
5864.000000	1.200150
5862.000000	1.202367
5860.000000	1.205532
5858.000000	1.208098
5856.000000	1.210102
5854.000000	1.211432
5852.000000	1.213663
5850.000000	1.216697
5848.000000	1.220273
5846.000000	1.223943
5844.000000	1.226593
5842.000000	1.228071
5840.000000	1.228774
5838.000000	1.230363
5836.000000	1.233458
5834.000000	1.237897
5832.000000	1.242642
5830.000000	1.245771
5828.000000	1.247456
5826.000000	1.249719
5824.000000	1.253054
5822.000000	1.255843
5820.000000	1.256929
5818.000000	1.258682
5816.000000	1.261300
5814.000000	1.263866
5812.000000	1.265297
5810.000000	1.267165
5808.000000	1.270226
5806.000000	1.274443
5804.000000	1.278578
5802.000000	1.281468
5800.000000	1.282488
5798.000000	1.282721
5796.000000	1.285242
5794.000000	1.289579
5792.000000	1.294072
5790.000000	1.297587
5788.000000	1.300397
5786.000000	1.302572
5784.000000	1.304326
5782.000000	1.306790
5780.000000	1.309369
5778.000000	1.310536
5776.000000	1.311895
5774.000000	1.315241
5772.000000	1.320970
5770.000000	1.324991
5768.000000	1.326688
5766.000000	1.329034
5764.000000	1.332301
5762.000000	1.334572
5760.000000	1.336336
5758.000000	1.339019
5756.000000	1.343252
5754.000000	1.347822
5752.000000	1.351340
5750.000000	1.352574
5748.000000	1.353191
5746.000000	1.354324
5744.000000	1.357870
5742.000000	1.362677
5740.000000	1.365241
5738.000000	1.367575
5736.000000	1.370278
5734.000000	1.373610
5732.000000	1.376602
5730.000000	1.378481
5728.000000	1.380273
5726.000000	1.383638
5724.000000	1.386457
5722.000000	1.388252
5720.000000	1.390016
5718.000000	1.392995
5716.000000	1.396286
5714.000000	1.398671
5712.000000	1.399511
5710.000000	1.402454
5708.000000	1.406803
5706.000000	1.409375
5704.000000	1.411794
5702.000000	1.414004
5700.000000	1.417242
5698.000000	1.420127
5696.000000	1.422795
5694.000000	1.425726
5692.000000	1.429028
5690.000000	1.432567
5688.000000	1.435291
5686.000000	1.437223
5684.000000	1.438652
5682.000000	1.441156
5680.000000	1.444516
5678.000000	1.447195
5676.000000	1.449915
5674.000000	1.453028
5672.000000	1.456895
5670.000000	1.461070
5668.000000	1.463806
5666.000000	1.465597
5664.000000	1.468057
5662.000000	1.471268
5660.000000	1.474579
5658.000000	1.477258
5656.000000	1.481701
5654.000000	1.486501
5652.000000	1.490442
5650.000000	1.492177
5648.000000	1.494024
5646.000000	1.496551
5644.000000	1.498911
5642.000000	1.499697
5640.000000	1.501422
5638.000000	1.504965
5636.000000	1.509705
5634.000000	1.512899
5632.000000	1.514941
5630.000000	1.516748
5628.000000	1.521188
5626.000000	1.525896
5624.000000	1.529562
5622.000000	1.531209
5620.000000	1.531728
5618.000000	1.534316
5616.000000	1.538839
5614.000000	1.544246
5612.000000	1.548096
5610.000000	1.550037
5608.000000	1.551344
5606.000000	1.553261
5604.000000	1.556620
5602.000000	1.560375
5600.000000	1.563297
5598.000000	1.565327
5596.000000	1.566964
5594.000000	1.571066
5592.000000	1.576243
5590.000000	1.581269
5588.000000	1.584637
5586.000000	1.585303
5584.000000	1.587134
5582.000000	1.590310
5580.000000	1.594632
5578.000000	1.599053
5576.000000	1.602597
5574.000000	1.604742
5572.000000	1.606312
5570.000000	1.609192
5568.000000	1.612809
5566.000000	1.615590
5564.000000	1.617823
5562.000000	1.621971
5560.000000	1.627859
5558.000000	1.632589
5556.000000	1.634739
5554.000000	1.635955
5552.000000	1.638092
5550.000000	1.642250
5548.000000	1.646068
5546.000000	1.649083
5544.000000	1.652342
5542.000000	1.655133
5540.000000	1.657817
5538.000000	1.660664
5536.000000	1.664171
5534.000000	1.667993
5532.000000	1.671489
5530.000000	1.675692
5528.000000	1.678662
5526.000000	1.680849
5524.000000	1.683477
5522.000000	1.687578
5520.000000	1.691457
5518.000000	1.694066
5516.000000	1.697077
5514.000000	1.699867
5512.000000	1.701582
5510.000000	1.702542
5508.000000	1.704973
5506.000000	1.709536
5504.000000	1.715318
5502.000000	1.719275
5500.000000	1.721627
5498.000000	1.722971
5496.000000	1.724579
5494.000000	1.727339
5492.000000	1.730911
5490.000000	1.735277
5488.000000	1.738168
5486.000000	1.741087
5484.000000	1.745942
5482.000000	1.751448
5480.000000	1.754470
5478.000000	1.755669
5476.000000	1.758382
5474.000000	1.761719
5472.000000	1.764739
5470.000000	1.766482
5468.000000	1.768715
5466.000000	1.772639
5464.000000	1.776549
5462.000000	1.780614
5460.000000	1.784317
5458.000000	1.788314
5456.000000	1.791157
5454.000000	1.792320
5452.000000	1.794750
5450.000000	1.799287
5448.000000	1.803584
5446.000000	1.805370
5444.000000	1.807316
5442.000000	1.811882
5440.000000	1.817872
5438.000000	1.822143
5436.000000	1.824432
5434.000000	1.826482
5432.000000	1.828742
5430.000000	1.831879
5428.000000	1.835555
5426.000000	1.839594
5424.000000	1.845225
5422.000000	1.850413
5420.000000	1.853344
5418.000000	1.854074
5416.000000	1.855493
5414.000000	1.858369
5412.000000	1.861695
5410.000000	1.865995
5408.000000	1.871484
5406.000000	1.876710
5404.000000	1.880774
5402.000000	1.883444
5400.000000	1.884634
5398.000000	1.885035
5396.000000	1.887001
5394.000000	1.890711
5392.000000	1.895104
5390.000000	1.899536
5388.000000	1.904301
5386.000000	1.909580
5384.000000	1.913261
5382.000000	1.915380
5380.000000	1.916665
5378.000000	1.918940
5376.000000	1.922247
5374.000000	1.926859
5372.000000	1.930283
5370.000000	1.933168
5368.000000	1.936176
5366.000000	1.940921
5364.000000	1.946143
5362.000000	1.949586
5360.000000	1.951957
5358.000000	1.954301
5356.000000	1.955331
5354.000000	1.956517
5352.000000	1.959928
5350.000000	1.964147
5348.000000	1.966455
5346.000000	1.967708
5344.000000	1.970791
5342.000000	1.973986
5340.000000	1.976816
5338.000000	1.981327
5336.000000	1.985969
5334.000000	1.990155
5332.000000	1.993260
5330.000000	1.996296
5328.000000	1.998626
5326.000000	2.001523
5324.000000	2.005447
5322.000000	2.008102
5320.000000	2.010037
5318.000000	2.013422
5316.000000	2.017471
5314.000000	2.020141
5312.000000	2.022017
5310.000000	2.025888
5308.000000	2.030383
5306.000000	2.033792
5304.000000	2.036718
5302.000000	2.039091
5300.000000	2.041289
5298.000000	2.043873
5296.000000	2.045936
5294.000000	2.047446
5292.000000	2.049980
5290.000000	2.053650
5288.000000	2.056516
5286.000000	2.058474
5284.000000	2.060853
5282.000000	2.064229
5280.000000	2.067824
5278.000000	2.071456
5276.000000	2.073991
5274.000000	2.076541
5272.000000	2.079113
5270.000000	2.081366
5268.000000	2.083212
5266.000000	2.085335
5264.000000	2.087463
5262.000000	2.088775
5260.000000	2.089190
5258.000000	2.090337
5256.000000	2.093221
5254.000000	2.096699
5252.000000	2.098207
5250.000000	2.098725
5248.000000	2.099314
5246.000000	2.101095
5244.000000	2.105198
5242.000000	2.110510
5240.000000	2.113632
5238.000000	2.113399
5236.000000	2.112448
5234.000000	2.113390
5232.000000	2.116704
5230.000000	2.119520
5228.000000	2.121957
5226.000000	2.124122
5224.000000	2.125832
5222.000000	2.126079
5220.000000	2.125671
5218.000000	2.126996
5216.000000	2.129482
5214.000000	2.130700
5212.000000	2.129834
5210.000000	2.129258
5208.000000	2.131764
5206.000000	2.134745
5204.000000	2.136431
5202.000000	2.137501
5200.000000	2.138481
5198.000000	2.139240
5196.000000	2.140974
5194.000000	2.143979
5192.000000	2.146262
5190.000000	2.146984
5188.000000	2.147723
5186.000000	2.149329
5184.000000	2.151702
5182.000000	2.153566
5180.000000	2.153969
5178.000000	2.153940
5176.000000	2.154985
5174.000000	2.157505
5172.000000	2.160137
5170.000000	2.163618
5168.000000	2.166792
5166.000000	2.167524
5164.000000	2.166378
5162.000000	2.166665
5160.000000	2.169402
5158.000000	2.172204
5156.000000	2.173711
5154.000000	2.175221
5152.000000	2.176782
5150.000000	2.177957
5148.000000	2.179460
5146.000000	2.182015
5144.000000	2.183843
5142.000000	2.185488
5140.000000	2.188084
5138.000000	2.190694
5136.000000	2.192118
5134.000000	2.193782
5132.000000	2.196451
5130.000000	2.198845
5128.000000	2.200964
5126.000000	2.203450
5124.000000	2.206645
5122.000000	2.210768
5120.000000	2.213375
5118.000000	2.215289
5116.000000	2.217937
5114.000000	2.220860
5112.000000	2.223045
5110.000000	2.225744
5108.000000	2.228568
5106.000000	2.230824
5104.000000	2.233725
5102.000000	2.237963
5100.000000	2.241642
5098.000000	2.244538
5096.000000	2.247969
5094.000000	2.251785
5092.000000	2.254061
5090.000000	2.256050
5088.000000	2.259661
5086.000000	2.263946
5084.000000	2.267191
5082.000000	2.270376
5080.000000	2.274171
5078.000000	2.277740
5076.000000	2.280995
5074.000000	2.283782
5072.000000	2.286819
5070.000000	2.291333
5068.000000	2.296977
5066.000000	2.299978
5064.000000	2.302238
5062.000000	2.306983
5060.000000	2.312884
5058.000000	2.315857
5056.000000	2.317270
5054.000000	2.320672
5052.000000	2.326290
5050.000000	2.330373
5048.000000	2.331871
5046.000000	2.333148
5044.000000	2.337256
5042.000000	2.342624
5040.000000	2.346696
5038.000000	2.350166
5036.000000	2.354242
5034.000000	2.358074
5032.000000	2.360968
5030.000000	2.363876
5028.000000	2.367202
5026.000000	2.371128
5024.000000	2.375544
5022.000000	2.379401
5020.000000	2.382471
5018.000000	2.386697
5016.000000	2.393232
5014.000000	2.398364
5012.000000	2.400791
5010.000000	2.402042
5008.000000	2.404623
5006.000000	2.409693
5004.000000	2.415464
5002.000000	2.421000
5000.000000	2.423302
4998.000000	2.426740
4996.000000	2.432111
4994.000000	2.438375
4992.000000	2.442974
4990.000000	2.447367
4988.000000	2.452019
4986.000000	2.455332
4984.000000	2.458590
4982.000000	2.462494
4980.000000	2.466691
4978.000000	2.471954
4976.000000	2.477071
4974.000000	2.481576
4972.000000	2.485701
4970.000000	2.490567
4968.000000	2.494887
4966.000000	2.498058
4964.000000	2.501137
4962.000000	2.504963
4960.000000	2.510465
4958.000000	2.517228
4956.000000	2.523562
4954.000000	2.527895
4952.000000	2.530947
4950.000000	2.534113
4948.000000	2.538553
4946.000000	2.543481
4944.000000	2.548343
4942.000000	2.552863
4940.000000	2.556678
4938.000000	2.560137
4936.000000	2.564188
4934.000000	2.569780
4932.000000	2.575160
4930.000000	2.579088
4928.000000	2.581791
4926.000000	2.585320
4924.000000	2.590749
4922.000000	2.596909
4920.000000	2.602251
4918.000000	2.607693
4916.000000	2.612844
4914.000000	2.616697
4912.000000	2.619414
4910.000000	2.623853
4908.000000	2.630326
4906.000000	2.635814
4904.000000	2.639422
4902.000000	2.643972
4900.000000	2.650466
4898.000000	2.655451
4896.000000	2.659178
4894.000000	2.665306
4892.000000	2.672848
4890.000000	2.678454
4888.000000	2.682241
4886.000000	2.686699
4884.000000	2.690933
4882.000000	2.694899
4880.000000	2.699778
4878.000000	2.705632
4876.000000	2.710968
4874.000000	2.715811
4872.000000	2.720640
4870.000000	2.727015
4868.000000	2.734086
4866.000000	2.739833
4864.000000	2.744755
4862.000000	2.750947
4860.000000	2.756348
4858.000000	2.758628
4856.000000	2.761318
4854.000000	2.767390
4852.000000	2.774657
4850.000000	2.781012
4848.000000	2.785796
4846.000000	2.790848
4844.000000	2.796035
4842.000000	2.801288
4840.000000	2.806270
4838.000000	2.812010
4836.000000	2.817487
4834.000000	2.821415
4832.000000	2.825411
4830.000000	2.831029
4828.000000	2.836763
4826.000000	2.840754
4824.000000	2.845425
4822.000000	2.852972
4820.000000	2.860617
4818.000000	2.865981
4816.000000	2.870630
4814.000000	2.876284
4812.000000	2.881996
4810.000000	2.886724
4808.000000	2.891471
4806.000000	2.897020
4804.000000	2.902969
4802.000000	2.909629
4800.000000	2.916431
4798.000000	2.921861
4796.000000	2.926500
4794.000000	2.932109
4792.000000	2.937741
4790.000000	2.943351
4788.000000	2.949598
4786.000000	2.956084
4784.000000	2.961511
4782.000000	2.966526
4780.000000	2.972439
4778.000000	2.979685
4776.000000	2.985881
4774.000000	2.990257
4772.000000	2.994764
4770.000000	3.001563
4768.000000	3.009028
4766.000000	3.015306
4764.000000	3.020425
4762.000000	3.026278
4760.000000	3.031840
4758.000000	3.036023
4756.000000	3.040107
4754.000000	3.044597
4752.000000	3.049737
4750.000000	3.056372
4748.000000	3.062661
4746.000000	3.067046
4744.000000	3.072525
4742.000000	3.079684
4740.000000	3.086057
4738.000000	3.091220
4736.000000	3.097097
4734.000000	3.103611
4732.000000	3.108831
4730.000000	3.111783
4728.000000	3.115406
4726.000000	3.121724
4724.000000	3.128941
4722.000000	3.134533
4720.000000	3.138794
4718.000000	3.144640
4716.000000	3.151358
4714.000000	3.156480
4712.000000	3.161004
4710.000000	3.167487
4708.000000	3.173746
4706.000000	3.178583
4704.000000	3.183354
4702.000000	3.190019
4700.000000	3.197555
4698.000000	3.203864
4696.000000	3.208832
4694.000000	3.214176
4692.000000	3.219102
4690.000000	3.222944
4688.000000	3.228008
4686.000000	3.234677
4684.000000	3.241105
4682.000000	3.246675
4680.000000	3.252104
4678.000000	3.257331
4676.000000	3.263060
4674.000000	3.268976
4672.000000	3.274912
4670.000000	3.280846
4668.000000	3.286171
4666.000000	3.291112
4664.000000	3.296301
4662.000000	3.301229
4660.000000	3.305005
4658.000000	3.309382
4656.000000	3.315253
4654.000000	3.321870
4652.000000	3.328215
4650.000000	3.333593
4648.000000	3.338569
4646.000000	3.343710
4644.000000	3.349688
4642.000000	3.355404
4640.000000	3.360883
4638.000000	3.366253
4636.000000	3.372432
4634.000000	3.377799
4632.000000	3.381098
4630.000000	3.385023
4628.000000	3.391114
4626.000000	3.396453
4624.000000	3.399274
4622.000000	3.403516
4620.000000	3.410653
4618.000000	3.417589
4616.000000	3.422650
4614.000000	3.427784
4612.000000	3.433995
4610.000000	3.439928
4608.000000	3.444620
4606.000000	3.448546
4604.000000	3.453377
4602.000000	3.459065
4600.000000	3.464563
4598.000000	3.469891
4596.000000	3.475294
4594.000000	3.480683
4592.000000	3.486244
4590.000000	3.492201
4588.000000	3.497659
4586.000000	3.503567
4584.000000	3.510159
4582.000000	3.515554
4580.000000	3.520754
4578.000000	3.527257
4576.000000	3.532979
4574.000000	3.536785
4572.000000	3.540407
4570.000000	3.545415
4568.000000	3.551306
4566.000000	3.555878
4564.000000	3.560002
4562.000000	3.566202
4560.000000	3.571869
4558.000000	3.575631
4556.000000	3.580625
4554.000000	3.586708
4552.000000	3.591325
4550.000000	3.595544
4548.000000	3.601325
4546.000000	3.606689
4544.000000	3.611464
4542.000000	3.617126
4540.000000	3.623661
4538.000000	3.630070
4536.000000	3.635603
4534.000000	3.639912
4532.000000	3.644621
4530.000000	3.649220
4528.000000	3.652370
4526.000000	3.656598
4524.000000	3.663510
4522.000000	3.669664
4520.000000	3.673645
4518.000000	3.677459
4516.000000	3.682563
4514.000000	3.688710
4512.000000	3.694432
4510.000000	3.699270
4508.000000	3.704397
4506.000000	3.709871
4504.000000	3.715124
4502.000000	3.720678
4500.000000	3.726231
4498.000000	3.731476
4496.000000	3.736115
4494.000000	3.740983
4492.000000	3.746904
4490.000000	3.753520
4488.000000	3.758973
4486.000000	3.763068
4484.000000	3.766792
4482.000000	3.772165
4480.000000	3.778857
4478.000000	3.784309
4476.000000	3.788692
4474.000000	3.794242
4472.000000	3.800096
4470.000000	3.804319
4468.000000	3.808009
4466.000000	3.812422
4464.000000	3.817133
4462.000000	3.821669
4460.000000	3.827683
4458.000000	3.834624
4456.000000	3.839123
4454.000000	3.841508
4452.000000	3.845508
4450.000000	3.851438
4448.000000	3.857496
4446.000000	3.862237
4444.000000	3.866630
4442.000000	3.872286
4440.000000	3.877633
4438.000000	3.880550
4436.000000	3.883952
4434.000000	3.889674
4432.000000	3.894923
4430.000000	3.898900
4428.000000	3.903424
4426.000000	3.908179
4424.000000	3.912690
4422.000000	3.917080
4420.000000	3.921911
4418.000000	3.927639
4416.000000	3.933088
4414.000000	3.936652
4412.000000	3.940065
4410.000000	3.945201
4408.000000	3.951781
4406.000000	3.957532
4404.000000	3.961737
4402.000000	3.966298
4400.000000	3.971826
4398.000000	3.976304
4396.000000	3.980856
4394.000000	3.987023
4392.000000	3.991842
4390.000000	3.995118
4388.000000	4.000015
4386.000000	4.005395
4384.000000	4.008788
4382.000000	4.011579
4380.000000	4.014547
4378.000000	4.017951
4376.000000	4.022586
4374.000000	4.028026
4372.000000	4.032772
4370.000000	4.036250
4368.000000	4.039324
4366.000000	4.042752
4364.000000	4.046104
4362.000000	4.050022
4360.000000	4.055433
4358.000000	4.059939
4356.000000	4.062278
4354.000000	4.064539
4352.000000	4.067186
4350.000000	4.070942
4348.000000	4.076063
4346.000000	4.081047
4344.000000	4.085871
4342.000000	4.090657
4340.000000	4.094158
4338.000000	4.097534
4336.000000	4.100571
4334.000000	4.103632
4332.000000	4.108488
4330.000000	4.113802
4328.000000	4.117781
4326.000000	4.121878
4324.000000	4.125655
4322.000000	4.129087
4320.000000	4.134529
4318.000000	4.140503
4316.000000	4.143677
4314.000000	4.146453
4312.000000	4.151361
4310.000000	4.156271
4308.000000	4.159791
4306.000000	4.163255
4304.000000	4.167037
4302.000000	4.170421
4300.000000	4.174312
4298.000000	4.179647
4296.000000	4.184667
4294.000000	4.188190
4292.000000	4.191488
4290.000000	4.195103
4288.000000	4.199010
4286.000000	4.203496
4284.000000	4.207016
4282.000000	4.209654
4280.000000	4.212257
4278.000000	4.215057
4276.000000	4.218572
4274.000000	4.223218
4272.000000	4.228212
4270.000000	4.232408
4268.000000	4.235102
4266.000000	4.238092
4264.000000	4.241981
4262.000000	4.245863
4260.000000	4.249076
4258.000000	4.252569
4256.000000	4.256571
4254.000000	4.259393
4252.000000	4.262070
4250.000000	4.266978
4248.000000	4.272207
4246.000000	4.276175
4244.000000	4.279867
4242.000000	4.284261
4240.000000	4.288889
4238.000000	4.293107
4236.000000	4.297056
4234.000000	4.301760
4232.000000	4.306460
4230.000000	4.309591
4228.000000	4.312036
4226.000000	4.315512
4224.000000	4.319548
4222.000000	4.324036
4220.000000	4.328855
4218.000000	4.333582
4216.000000	4.337208
4214.000000	4.339503
4212.000000	4.342758
4210.000000	4.348500
4208.000000	4.355153
4206.000000	4.361428
4204.000000	4.366683
4202.000000	4.371822
4200.000000	4.376441
4198.000000	4.379574
4196.000000	4.382206
4194.000000	4.386153
4192.000000	4.391135
4190.000000	4.397164
4188.000000	4.402846
4186.000000	4.407757
4184.000000	4.412593
4182.000000	4.417436
4180.000000	4.421159
4178.000000	4.424998
4176.000000	4.428978
4174.000000	4.432481
4172.000000	4.436628
4170.000000	4.441892
4168.000000	4.446303
4166.000000	4.450172
4164.000000	4.454073
4162.000000	4.457357
4160.000000	4.461951
4158.000000	4.469428
4156.000000	4.476516
4154.000000	4.481585
4152.000000	4.484249
4150.000000	4.485499
4148.000000	4.489498
4146.000000	4.495399
4144.000000	4.499554
4142.000000	4.503414
4140.000000	4.508517
4138.000000	4.514130
4136.000000	4.519172
4134.000000	4.523998
4132.000000	4.528962
4130.000000	4.533832
4128.000000	4.538583
4126.000000	4.542656
4124.000000	4.547192
4122.000000	4.553857
4120.000000	4.559922
4118.000000	4.563367
4116.000000	4.566381
4114.000000	4.570516
4112.000000	4.575970
4110.000000	4.581442
4108.000000	4.584547
4106.000000	4.587181
4104.000000	4.593046
4102.000000	4.600769
4100.000000	4.606443
4098.000000	4.610519
4096.000000	4.614509
4094.000000	4.617691
4092.000000	4.620361
4090.000000	4.624254
4088.000000	4.629707
4086.000000	4.635033
4084.000000	4.639499
4082.000000	4.644106
4080.000000	4.648105
4078.000000	4.652277
4076.000000	4.657863
4074.000000	4.662734
4072.000000	4.666350
4070.000000	4.670983
4068.000000	4.676734
4066.000000	4.681906
4064.000000	4.685560
4062.000000	4.687888
4060.000000	4.690770
4058.000000	4.695551
4056.000000	4.701115
4054.000000	4.706557
4052.000000	4.711588
4050.000000	4.716472
4048.000000	4.721160
4046.000000	4.724563
4044.000000	4.727743
4042.000000	4.732474
4040.000000	4.738099
4038.000000	4.742406
4036.000000	4.746208
4034.000000	4.751398
4032.000000	4.756257
4030.000000	4.759964
4028.000000	4.763760
4026.000000	4.768753
4024.000000	4.774828
4022.000000	4.780244
4020.000000	4.785286
4018.000000	4.789855
4016.000000	4.793632
4014.000000	4.798962
4012.000000	4.806152
4010.000000	4.812107
4008.000000	4.815389
4006.000000	4.819154
4004.000000	4.825414
4002.000000	4.831627
4000.000000	4.837109
3998.000000	4.842311
3996.000000	4.848055
3994.000000	4.854205
3992.000000	4.858051
3990.000000	4.861209
3988.000000	4.866627
3986.000000	4.872482
3984.000000	4.877677
3982.000000	4.883886
3980.000000	4.890335
3978.000000	4.895371
3976.000000	4.900416
3974.000000	4.906397
3972.000000	4.913242
3970.000000	4.919990
3968.000000	4.926569
3966.000000	4.933263
3964.000000	4.938792
3962.000000	4.945056
3960.000000	4.952860
3958.000000	4.959849
3956.000000	4.966139
3954.000000	4.971771
3952.000000	4.976367
3950.000000	4.982487
3948.000000	4.990995
3946.000000	4.996926
3944.000000	5.001218
3942.000000	5.010645
3940.000000	5.022427
3938.000000	5.030973
3936.000000	5.035409
3934.000000	5.038458
3932.000000	5.045777
3930.000000	5.056728
3928.000000	5.066117
3926.000000	5.073698
3924.000000	5.082034
3922.000000	5.088835
3920.000000	5.091796
3918.000000	5.098885
3916.000000	5.114897
3914.000000	5.131424
3912.000000	5.142978
3910.000000	5.149966
3908.000000	5.146984
3906.000000	5.134199
3904.000000	5.127330
3902.000000	5.135589
3900.000000	5.156152
3898.000000	5.182363
3896.000000	5.199275
3894.000000	5.197580
3892.000000	5.198363
3890.000000	5.209791
3888.000000	5.209607
3886.000000	5.211623
3884.000000	5.227507
3882.000000	5.239345
3880.000000	5.253557
3878.000000	5.267963
3876.000000	5.271821
3874.000000	5.265402
3872.000000	5.250126
3870.000000	5.253120
3868.000000	5.274087
3866.000000	5.286581
3864.000000	5.299872
3862.000000	5.320774
3860.000000	5.333946
3858.000000	5.304998
3856.000000	5.233999
3854.000000	5.210536
3852.000000	5.275280
3850.000000	5.353241
3848.000000	5.388482
3846.000000	5.391498
3844.000000	5.385905
3842.000000	5.369763
3840.000000	5.341596
3838.000000	5.339839
3836.000000	5.373034
3834.000000	5.403291
3832.000000	5.423039
3830.000000	5.440740
3828.000000	5.451718
3826.000000	5.451834
3824.000000	5.432315
3822.000000	5.418981
3820.000000	5.425691
3818.000000	5.422150
3816.000000	5.435078
3814.000000	5.478921
3812.000000	5.505943
3810.000000	5.495437
3808.000000	5.479192
3806.000000	5.482120
3804.000000	5.470748
3802.000000	5.462972
3800.000000	5.492348
3798.000000	5.522743
3796.000000	5.541486
3794.000000	5.557021
3792.000000	5.566537
3790.000000	5.572327
3788.000000	5.574458
3786.000000	5.576253
3784.000000	5.579710
3782.000000	5.578416
3780.000000	5.579198
3778.000000	5.590533
3776.000000	5.601059
3774.000000	5.599518
3772.000000	5.586727
3770.000000	5.582717
3768.000000	5.591656
3766.000000	5.602570
3764.000000	5.610723
3762.000000	5.609276
3760.000000	5.606565
3758.000000	5.610318
3756.000000	5.595765
3754.000000	5.547938
3752.000000	5.511037
3750.000000	5.523602
3748.000000	5.532508
3746.000000	5.511842
3744.000000	5.540665
3742.000000	5.604945
3740.000000	5.622117
3738.000000	5.600189
3736.000000	5.587720
3734.000000	5.596888
3732.000000	5.623293
3730.000000	5.650438
3728.000000	5.656406
3726.000000	5.655967
3724.000000	5.659691
3722.000000	5.666295
3720.000000	5.675379
3718.000000	5.679547
3716.000000	5.664036
3714.000000	5.631133
3712.000000	5.616677
3710.000000	5.630677
3708.000000	5.648645
3706.000000	5.655476
3704.000000	5.648040
3702.000000	5.640913
3700.000000	5.642284
3698.000000	5.640717
3696.000000	5.629662
3694.000000	5.603812
3692.000000	5.558929
3690.000000	5.520014
3688.000000	5.526323
3686.000000	5.554091
3684.000000	5.559376
3682.000000	5.541001
3680.000000	5.499114
3678.000000	5.433717
3676.000000	5.392638
3674.000000	5.385043
3672.000000	5.364188
3670.000000	5.354863
3668.000000	5.369804
3666.000000	5.374161
3664.000000	5.359445
3662.000000	5.336027
3660.000000	5.302669
3658.000000	5.261933
3656.000000	5.237161
3654.000000	5.210257
3652.000000	5.155410
3650.000000	5.113705
3648.000000	5.116262
3646.000000	5.134339
3644.000000	5.136851
3642.000000	5.123804
3640.000000	5.105238
3638.000000	5.086252
3636.000000	5.066047
3634.000000	5.039559
3632.000000	4.993713
3630.000000	4.955173
3628.000000	4.962486
3626.000000	4.982201
3624.000000	4.977782
3622.000000	4.952203
3620.000000	4.929853
3618.000000	4.926330
3616.000000	4.922037
3614.000000	4.908183
3612.000000	4.894284
3610.000000	4.884237
3608.000000	4.886102
3606.000000	4.892505
3604.000000	4.887362
3602.000000	4.874630
3600.000000	4.863636
3598.000000	4.854944
3596.000000	4.847230
3594.000000	4.843427
3592.000000	4.835131
3590.000000	4.816480
3588.000000	4.808074
3586.000000	4.815962
3584.000000	4.821672
3582.000000	4.820579
3580.000000	4.817850
3578.000000	4.813949
3576.000000	4.809419
3574.000000	4.804770
3572.000000	4.795485
3570.000000	4.779093
3568.000000	4.768727
3566.000000	4.773216
3564.000000	4.779660
3562.000000	4.780503
3560.000000	4.779226
3558.000000	4.778421
3556.000000	4.775590
3554.000000	4.770561
3552.000000	4.766703
3550.000000	4.762343
3548.000000	4.756566
3546.000000	4.753165
3544.000000	4.752919
3542.000000	4.752427
3540.000000	4.749254
3538.000000	4.745161
3536.000000	4.743113
3534.000000	4.741442
3532.000000	4.736538
3530.000000	4.730371
3528.000000	4.726047
3526.000000	4.721944
3524.000000	4.718405
3522.000000	4.716768
3520.000000	4.713580
3518.000000	4.708963
3516.000000	4.704790
3514.000000	4.700309
3512.000000	4.695476
3510.000000	4.691245
3508.000000	4.687427
3506.000000	4.680198
3504.000000	4.671711
3502.000000	4.668475
3500.000000	4.666787
3498.000000	4.662365
3496.000000	4.657488
3494.000000	4.651734
3492.000000	4.646968
3490.000000	4.643655
3488.000000	4.638873
3486.000000	4.634204
3484.000000	4.630078
3482.000000	4.626747
3480.000000	4.624685
3478.000000	4.622257
3476.000000	4.620105
3474.000000	4.620612
3472.000000	4.619753
3470.000000	4.615988
3468.000000	4.615238
3466.000000	4.616913
3464.000000	4.617868
3462.000000	4.616885
3460.000000	4.615037
3458.000000	4.616404
3456.000000	4.619172
3454.000000	4.619453
3452.000000	4.618086
3450.000000	4.616035
3448.000000	4.614611
3446.000000	4.615944
3444.000000	4.617429
3442.000000	4.619382
3440.000000	4.622638
3438.000000	4.625805
3436.000000	4.629044
3434.000000	4.634402
3432.000000	4.642206
3430.000000	4.649282
3428.000000	4.654891
3426.000000	4.660647
3424.000000	4.666748
3422.000000	4.671556
3420.000000	4.676525
3418.000000	4.682487
3416.000000	4.687042
3414.000000	4.689775
3412.000000	4.691694
3410.000000	4.692716
3408.000000	4.693581
3406.000000	4.695111
3404.000000	4.697399
3402.000000	4.700392
3400.000000	4.703925
3398.000000	4.708616
3396.000000	4.712488
3394.000000	4.716141
3392.000000	4.719833
3390.000000	4.722307
3388.000000	4.725370
3386.000000	4.729915
3384.000000	4.733767
3382.000000	4.736394
3380.000000	4.738689
3378.000000	4.740804
3376.000000	4.742672
3374.000000	4.744645
3372.000000	4.745818
3370.000000	4.746579
3368.000000	4.748956
3366.000000	4.751574
3364.000000	4.754180
3362.000000	4.757019
3360.000000	4.761099
3358.000000	4.765210
3356.000000	4.767865
3354.000000	4.770321
3352.000000	4.771149
3350.000000	4.771984
3348.000000	4.774852
3346.000000	4.777054
3344.000000	4.777139
3342.000000	4.778331
3340.000000	4.781248
3338.000000	4.783721
3336.000000	4.786401
3334.000000	4.789354
3332.000000	4.791345
3330.000000	4.792168
3328.000000	4.793263
3326.000000	4.796420
3324.000000	4.800454
3322.000000	4.802853
3320.000000	4.803769
3318.000000	4.803552
3316.000000	4.803589
3314.000000	4.805007
3312.000000	4.806685
3310.000000	4.807540
3308.000000	4.807531
3306.000000	4.809840
3304.000000	4.814371
3302.000000	4.816419
3300.000000	4.817931
3298.000000	4.821568
3296.000000	4.823324
3294.000000	4.823840
3292.000000	4.824980
3290.000000	4.826514
3288.000000	4.829305
3286.000000	4.831056
3284.000000	4.830729
3282.000000	4.831880
3280.000000	4.834080
3278.000000	4.835768
3276.000000	4.837747
3274.000000	4.840044
3272.000000	4.841252
3270.000000	4.841733
3268.000000	4.844509
3266.000000	4.846980
3264.000000	4.849424
3262.000000	4.852903
3260.000000	4.854521
3258.000000	4.856229
3256.000000	4.858741
3254.000000	4.861367
3252.000000	4.863163
3250.000000	4.864080
3248.000000	4.866008
3246.000000	4.869253
3244.000000	4.872450
3242.000000	4.875357
3240.000000	4.878301
3238.000000	4.881410
3236.000000	4.884796
3234.000000	4.887983
3232.000000	4.889607
3230.000000	4.890472
3228.000000	4.892845
3226.000000	4.896768
3224.000000	4.900630
3222.000000	4.902145
3220.000000	4.902842
3218.000000	4.906738
3216.000000	4.911270
3214.000000	4.912725
3212.000000	4.913407
3210.000000	4.916278
3208.000000	4.920808
3206.000000	4.926128
3204.000000	4.930269
3202.000000	4.933208
3200.000000	4.937069
3198.000000	4.941854
3196.000000	4.946497
3194.000000	4.951081
3192.000000	4.954802
3190.000000	4.959555
3188.000000	4.963357
3186.000000	4.964662
3184.000000	4.967537
3182.000000	4.973338
3180.000000	4.979320
3178.000000	4.983791
3176.000000	4.988000
3174.000000	4.993275
3172.000000	4.997893
3170.000000	5.001919
3168.000000	5.005663
3166.000000	5.009859
3164.000000	5.014991
3162.000000	5.020378
3160.000000	5.025300
3158.000000	5.030020
3156.000000	5.034122
3154.000000	5.037912
3152.000000	5.042216
3150.000000	5.047199
3148.000000	5.053627
3146.000000	5.058918
3144.000000	5.062949
3142.000000	5.067290
3140.000000	5.072501
3138.000000	5.077197
3136.000000	5.079797
3134.000000	5.082255
3132.000000	5.086868
3130.000000	5.091771
3128.000000	5.095022
3126.000000	5.098408
3124.000000	5.102804
3122.000000	5.105374
3120.000000	5.107122
3118.000000	5.110916
3116.000000	5.114645
3114.000000	5.117871
3112.000000	5.120925
3110.000000	5.125014
3108.000000	5.129265
3106.000000	5.131497
3104.000000	5.133614
3102.000000	5.137629
3100.000000	5.143504
3098.000000	5.148989
3096.000000	5.152379
3094.000000	5.155223
3092.000000	5.159026
3090.000000	5.163066
3088.000000	5.167170
3086.000000	5.169870
3084.000000	5.171296
3082.000000	5.175265
3080.000000	5.179741
3078.000000	5.182232
3076.000000	5.185248
3074.000000	5.186739
3072.000000	5.187322
3070.000000	5.187638
3068.000000	5.187284
3066.000000	5.188655
3064.000000	5.193381
3062.000000	5.197537
3060.000000	5.201646
3058.000000	5.205901
3056.000000	5.208984
3054.000000	5.212713
3052.000000	5.217625
3050.000000	5.223163
3048.000000	5.228532
3046.000000	5.233516
3044.000000	5.235313
3042.000000	5.235781
3040.000000	5.238774
3038.000000	5.241451
3036.000000	5.243667
3034.000000	5.246869
3032.000000	5.248354
3030.000000	5.246500
3028.000000	5.242176
3026.000000	5.237033
3024.000000	5.232032
3022.000000	5.228125
3020.000000	5.227347
3018.000000	5.233475
3016.000000	5.245991
3014.000000	5.262274
3012.000000	5.279556
3010.000000	5.295914
3008.000000	5.310448
3006.000000	5.322800
3004.000000	5.332690
3002.000000	5.338947
3000.000000	5.343983
2998.000000	5.349048
2996.000000	5.354656
2994.000000	5.359037
2992.000000	5.362003
2990.000000	5.365867
2988.000000	5.368541
2986.000000	5.369331
2984.000000	5.369006
2982.000000	5.367377
2980.000000	5.363063
2978.000000	5.354376
2976.000000	5.342860
2974.000000	5.326990
2972.000000	5.306136
2970.000000	5.279334
2968.000000	5.250183
2966.000000	5.226197
2964.000000	5.210837
2962.000000	5.206710
2960.000000	5.215269
2958.000000	5.231411
2956.000000	5.249835
2954.000000	5.267816
2952.000000	5.282143
2950.000000	5.291442
2948.000000	5.292509
2946.000000	5.285691
2944.000000	5.272455
2942.000000	5.251946
2940.000000	5.227205
2938.000000	5.201479
2936.000000	5.177692
2934.000000	5.157503
2932.000000	5.139339
2930.000000	5.122570
2928.000000	5.110752
2926.000000	5.109130
2924.000000	5.123623
2922.000000	5.156344
2920.000000	5.202296
2918.000000	5.256560
2916.000000	5.312556
2914.000000	5.363805
2912.000000	5.407024
2910.000000	5.441669
2908.000000	5.470275
2906.000000	5.495403
2904.000000	5.518680
2902.000000	5.541446
2900.000000	5.561903
2898.000000	5.580912
2896.000000	5.599541
2894.000000	5.616864
2892.000000	5.632945
2890.000000	5.649607
2888.000000	5.664809
2886.000000	5.675870
2884.000000	5.684147
2882.000000	5.691135
2880.000000	5.695927
2878.000000	5.697206
2876.000000	5.693237
2874.000000	5.685371
2872.000000	5.674281
2870.000000	5.655695
2868.000000	5.626966
2866.000000	5.595022
2864.000000	5.569933
2862.000000	5.555313
2860.000000	5.556647
2858.000000	5.572809
2856.000000	5.596681
2854.000000	5.623951
2852.000000	5.654141
2850.000000	5.689069
2848.000000	5.729378
2846.000000	5.770249
2844.000000	5.807857
2842.000000	5.836975
2840.000000	5.859569
2838.000000	5.879018
2836.000000	5.895923
2834.000000	5.909899
2832.000000	5.921414
2830.000000	5.932779
2828.000000	5.942364
2826.000000	5.951607
2824.000000	5.963586
2822.000000	5.973367
2820.000000	5.980725
2818.000000	5.988818
2816.000000	5.996476
2814.000000	6.003013
2812.000000	6.008726
2810.000000	6.013965
2808.000000	6.020084
2806.000000	6.026660
2804.000000	6.032601
2802.000000	6.037085
2800.000000	6.040285
2798.000000	6.043972
2796.000000	6.049351
2794.000000	6.055658
2792.000000	6.060180
2790.000000	6.063830
2788.000000	6.071048
2786.000000	6.079934
2784.000000	6.087856
2782.000000	6.094315
2780.000000	6.100053
2778.000000	6.106153
2776.000000	6.112581
2774.000000	6.117921
2772.000000	6.122616
2770.000000	6.128265
2768.000000	6.132603
2766.000000	6.136013
2764.000000	6.140712
2762.000000	6.146626
2760.000000	6.151110
2758.000000	6.154911
2756.000000	6.160507
2754.000000	6.166143
2752.000000	6.168734
2750.000000	6.172414
2748.000000	6.176473
2746.000000	6.178684
2744.000000	6.181485
2742.000000	6.184914
2740.000000	6.188273
2738.000000	6.190479
2736.000000	6.192041
2734.000000	6.194252
2732.000000	6.198581
2730.000000	6.201986
2728.000000	6.203352
2726.000000	6.206148
2724.000000	6.209169
2722.000000	6.211092
2720.000000	6.213012
2718.000000	6.215558
2716.000000	6.218514
2714.000000	6.221906
2712.000000	6.223187
2710.000000	6.223330
2708.000000	6.223568
2706.000000	6.224156
2704.000000	6.226345
2702.000000	6.229425
2700.000000	6.231758
2698.000000	6.233198
2696.000000	6.236337
2694.000000	6.241319
2692.000000	6.243371
2690.000000	6.244443
2688.000000	6.246325
2686.000000	6.247461
2684.000000	6.249668
2682.000000	6.251522
2680.000000	6.252315
2678.000000	6.254237
2676.000000	6.256617
2674.000000	6.257756
2672.000000	6.256696
2670.000000	6.253548
2668.000000	6.254781
2666.000000	6.257615
2664.000000	6.256139
2662.000000	6.255044
2660.000000	6.257595
2658.000000	6.260792
2656.000000	6.261781
2654.000000	6.260546
2652.000000	6.260558
2650.000000	6.261292
2648.000000	6.262295
2646.000000	6.261775
2644.000000	6.260348
2642.000000	6.260885
2640.000000	6.262829
2638.000000	6.262254
2636.000000	6.260533
2634.000000	6.260668
2632.000000	6.261619
2630.000000	6.261681
2628.000000	6.260084
2626.000000	6.257860
2624.000000	6.256686
2622.000000	6.256233
2620.000000	6.255661
2618.000000	6.254448
2616.000000	6.253208
2614.000000	6.250853
2612.000000	6.248477
2610.000000	6.247704
2608.000000	6.247949
2606.000000	6.245275
2604.000000	6.242295
2602.000000	6.239840
2600.000000	6.237089
2598.000000	6.233931
2596.000000	6.231395
2594.000000	6.229591
2592.000000	6.227798
2590.000000	6.226016
2588.000000	6.225038
2586.000000	6.225611
2584.000000	6.226951
2582.000000	6.226990
2580.000000	6.227439
2578.000000	6.228465
2576.000000	6.227785
2574.000000	6.226229
2572.000000	6.226640
2570.000000	6.226824
2568.000000	6.224320
2566.000000	6.221342
2564.000000	6.218763
2562.000000	6.216422
2560.000000	6.214808
2558.000000	6.211327
2556.000000	6.207600
2554.000000	6.204649
2552.000000	6.203124
2550.000000	6.202631
2548.000000	6.199950
2546.000000	6.194944
2544.000000	6.191535
2542.000000	6.187924
2540.000000	6.182290
2538.000000	6.177831
2536.000000	6.175782
2534.000000	6.174022
2532.000000	6.172853
2530.000000	6.170179
2528.000000	6.165533
2526.000000	6.160661
2524.000000	6.156846
2522.000000	6.154681
2520.000000	6.151144
2518.000000	6.145160
2516.000000	6.141881
2514.000000	6.140213
2512.000000	6.136379
2510.000000	6.131629
2508.000000	6.126832
2506.000000	6.122563
2504.000000	6.119492
2502.000000	6.116924
2500.000000	6.114082
2498.000000	6.111896
2496.000000	6.110200
2494.000000	6.106502
2492.000000	6.101702
2490.000000	6.098852
2488.000000	6.099481
2486.000000	6.098776
2484.000000	6.095964
2482.000000	6.093374
2480.000000	6.092078
2478.000000	6.090306
2476.000000	6.088772
2474.000000	6.088498
2472.000000	6.088073
2470.000000	6.085653
2468.000000	6.082203
2466.000000	6.080789
2464.000000	6.080146
2462.000000	6.078912
2460.000000	6.078637
2458.000000	6.078083
2456.000000	6.076783
2454.000000	6.076670
2452.000000	6.077069
2450.000000	6.076228
2448.000000	6.076638
2446.000000	6.079136
2444.000000	6.081044
2442.000000	6.081399
2440.000000	6.081147
2438.000000	6.083166
2436.000000	6.087230
2434.000000	6.089628
2432.000000	6.091927
2430.000000	6.094464
2428.000000	6.097328
2426.000000	6.099689
2424.000000	6.100965
2422.000000	6.102285
2420.000000	6.105862
2418.000000	6.109353
2416.000000	6.111767
2414.000000	6.114560
2412.000000	6.118714
2410.000000	6.121363
2408.000000	6.123514
2406.000000	6.126979
2404.000000	6.130870
2402.000000	6.133687
2400.000000	6.135964
2398.000000	6.138362
2396.000000	6.140990
2394.000000	6.144084
2392.000000	6.146236
2390.000000	6.147519
2388.000000	6.148881
2386.000000	6.149980
2384.000000	6.149935
2382.000000	6.147158
2380.000000	6.138929
2378.000000	6.126012
2376.000000	6.110331
2374.000000	6.091815
2372.000000	6.072261
2370.000000	6.051208
2368.000000	6.031776
2366.000000	6.017547
2364.000000	6.007098
2362.000000	6.002171
2360.000000	6.004617
2358.000000	6.014427
2356.000000	6.030343
2354.000000	6.050500
2352.000000	6.071650
2350.000000	6.083341
2348.000000	6.074283
2346.000000	6.050479
2344.000000	6.025976
2342.000000	6.006212
2340.000000	5.996429
2338.000000	5.999451
2336.000000	6.009626
2334.000000	6.019009
2332.000000	6.027196
2330.000000	6.033998
2328.000000	6.039531
2326.000000	6.046646
2324.000000	6.056077
2322.000000	6.064276
2320.000000	6.071123
2318.000000	6.077150
2316.000000	6.082676
2314.000000	6.086857
2312.000000	6.091248
2310.000000	6.094975
2308.000000	6.096008
2306.000000	6.095662
2304.000000	6.096579
2302.000000	6.097506
2300.000000	6.099516
2298.000000	6.101298
2296.000000	6.101888
2294.000000	6.100530
2292.000000	6.098236
2290.000000	6.096794
2288.000000	6.094935
2286.000000	6.093442
2284.000000	6.091857
2282.000000	6.091117
2280.000000	6.090904
2278.000000	6.088817
2276.000000	6.087183
2274.000000	6.084813
2272.000000	6.081979
2270.000000	6.080189
2268.000000	6.078517
2266.000000	6.075987
2264.000000	6.074095
2262.000000	6.073653
2260.000000	6.073116
2258.000000	6.071698
2256.000000	6.070432
2254.000000	6.069598
2252.000000	6.069118
2250.000000	6.067584
2248.000000	6.066994
2246.000000	6.066750
2244.000000	6.065009
2242.000000	6.063349
2240.000000	6.062459
2238.000000	6.064039
2236.000000	6.065749
2234.000000	6.065419
2232.000000	6.066062
2230.000000	6.065759
2228.000000	6.064267
2226.000000	6.064021
2224.000000	6.064439
2222.000000	6.063738
2220.000000	6.064080
2218.000000	6.064571
2216.000000	6.064456
2214.000000	6.064364
2212.000000	6.064903
2210.000000	6.065154
2208.000000	6.065643
2206.000000	6.066312
2204.000000	6.066364
2202.000000	6.066608
2200.000000	6.066729
2198.000000	6.065406
2196.000000	6.066450
2194.000000	6.068383
2192.000000	6.069157
2190.000000	6.070642
2188.000000	6.070709
2186.000000	6.069111
2184.000000	6.070596
2182.000000	6.072740
2180.000000	6.075298
2178.000000	6.076409
2176.000000	6.074990
2174.000000	6.074341
2172.000000	6.075524
2170.000000	6.075607
2168.000000	6.076408
2166.000000	6.077776
2164.000000	6.080332
2162.000000	6.083391
2160.000000	6.086212
2158.000000	6.088374
2156.000000	6.089359
2154.000000	6.090085
2152.000000	6.091699
2150.000000	6.093713
2148.000000	6.096721
2146.000000	6.099803
2144.000000	6.103129
2142.000000	6.104358
2140.000000	6.105365
2138.000000	6.107798
2136.000000	6.109822
2134.000000	6.112363
2132.000000	6.116305
2130.000000	6.120113
2128.000000	6.123089
2126.000000	6.125585
2124.000000	6.128728
2122.000000	6.132144
2120.000000	6.135204
2118.000000	6.139230
2116.000000	6.143375
2114.000000	6.146841
2112.000000	6.151526
2110.000000	6.155766
2108.000000	6.160417
2106.000000	6.165637
2104.000000	6.171962
2102.000000	6.178033
2100.000000	6.182064
2098.000000	6.186548
2096.000000	6.193218
2094.000000	6.199549
2092.000000	6.203224
2090.000000	6.206815
2088.000000	6.213802
2086.000000	6.220617
2084.000000	6.225986
2082.000000	6.230728
2080.000000	6.236898
2078.000000	6.243387
2076.000000	6.251414
2074.000000	6.258033
2072.000000	6.262187
2070.000000	6.265536
2068.000000	6.270693
2066.000000	6.276582
2064.000000	6.285315
2062.000000	6.293427
2060.000000	6.298849
2058.000000	6.305243
2056.000000	6.312671
2054.000000	6.318296
2052.000000	6.323437
2050.000000	6.329420
2048.000000	6.336782
2046.000000	6.344058
2044.000000	6.350348
2042.000000	6.356267
2040.000000	6.362598
2038.000000	6.367939
2036.000000	6.373904
2034.000000	6.380097
2032.000000	6.385121
2030.000000	6.388395
2028.000000	6.394109
2026.000000	6.400592
2024.000000	6.407017
2022.000000	6.413149
2020.000000	6.416910
2018.000000	6.420694
2016.000000	6.427901
2014.000000	6.434421
2012.000000	6.439111
2010.000000	6.442189
2008.000000	6.445811
2006.000000	6.450189
2004.000000	6.455481
2002.000000	6.460021
2000.000000	6.463972
1998.000000	6.469175
1996.000000	6.473857
1994.000000	6.472394
1992.000000	6.472891
1990.000000	6.479064
1988.000000	6.484496
1986.000000	6.488157
1984.000000	6.491058
1982.000000	6.493079
1980.000000	6.495061
1978.000000	6.496606
1976.000000	6.497991
1974.000000	6.500489
1972.000000	6.503266
1970.000000	6.501425
1968.000000	6.497924
1966.000000	6.499150
1964.000000	6.502545
1962.000000	6.501616
1960.000000	6.496329
1958.000000	6.497404
1956.000000	6.503382
1954.000000	6.504915
1952.000000	6.505141
1950.000000	6.504106
1948.000000	6.503410
1946.000000	6.500866
1944.000000	6.495609
1942.000000	6.495889
1940.000000	6.501598
1938.000000	6.502279
1936.000000	6.500423
1934.000000	6.499450
1932.000000	6.499008
1930.000000	6.497033
1928.000000	6.495527
1926.000000	6.491387
1924.000000	6.485126
1922.000000	6.482356
1920.000000	6.473632
1918.000000	6.467103
1916.000000	6.475847
1914.000000	6.477856
1912.000000	6.472309
1910.000000	6.466358
1908.000000	6.464853
1906.000000	6.463135
1904.000000	6.461231
1902.000000	6.456702
1900.000000	6.451824
1898.000000	6.446150
1896.000000	6.441152
1894.000000	6.439048
1892.000000	6.433941
1890.000000	6.425839
1888.000000	6.428795
1886.000000	6.430646
1884.000000	6.428704
1882.000000	6.427478
1880.000000	6.425710
1878.000000	6.421473
1876.000000	6.419614
1874.000000	6.416949
1872.000000	6.402164
1870.000000	6.379557
1868.000000	6.379989
1866.000000	6.393234
1864.000000	6.397004
1862.000000	6.393392
1860.000000	6.391565
1858.000000	6.388057
1856.000000	6.384939
1854.000000	6.380963
1852.000000	6.376108
1850.000000	6.367219
1848.000000	6.353101
1846.000000	6.319372
1844.000000	6.304232
1842.000000	6.328537
1840.000000	6.338171
1838.000000	6.330810
1836.000000	6.324960
1834.000000	6.316625
1832.000000	6.294180
1830.000000	6.276650
1828.000000	6.279010
1826.000000	6.270999
1824.000000	6.269593
1822.000000	6.272637
1820.000000	6.265542
1818.000000	6.255120
1816.000000	6.248926
1814.000000	6.237525
1812.000000	6.221875
1810.000000	6.212457
1808.000000	6.206925
1806.000000	6.197078
1804.000000	6.180955
1802.000000	6.159773
1800.000000	6.148402
1798.000000	6.143729
1796.000000	6.126845
1794.000000	6.084873
1792.000000	6.067544
1790.000000	6.086489
1788.000000	6.088939
1786.000000	6.068618
1784.000000	6.055169
1782.000000	6.043075
1780.000000	6.032774
1778.000000	6.021925
1776.000000	5.990643
1774.000000	5.933042
1772.000000	5.911858
1770.000000	5.930289
1768.000000	5.937146
1766.000000	5.943570
1764.000000	5.921136
1762.000000	5.893429
1760.000000	5.891766
1758.000000	5.878709
1756.000000	5.865614
1754.000000	5.841376
1752.000000	5.794378
1750.000000	5.782329
1748.000000	5.789382
1746.000000	5.786782
1744.000000	5.770868
1742.000000	5.740354
1740.000000	5.715751
1738.000000	5.706421
1736.000000	5.638224
1734.000000	5.593562
1732.000000	5.650223
1730.000000	5.689444
1728.000000	5.695609
1726.000000	5.688435
1724.000000	5.678641
1722.000000	5.661442
1720.000000	5.599305
1718.000000	5.533449
1716.000000	5.557261
1714.000000	5.605126
1712.000000	5.625674
1710.000000	5.617115
1708.000000	5.594876
1706.000000	5.571599
1704.000000	5.554297
1702.000000	5.477208
1700.000000	5.439434
1698.000000	5.454826
1696.000000	5.453096
1694.000000	5.522956
1692.000000	5.566034
1690.000000	5.558942
1688.000000	5.524371
1686.000000	5.430303
1684.000000	5.414934
1682.000000	5.498623
1680.000000	5.534085
1678.000000	5.515978
1676.000000	5.478275
1674.000000	5.485787
1672.000000	5.484234
1670.000000	5.461143
1668.000000	5.479680
1666.000000	5.495449
1664.000000	5.472130
1662.000000	5.468375
1660.000000	5.484481
1658.000000	5.472675
1656.000000	5.381750
1654.000000	5.248188
1652.000000	5.288316
1650.000000	5.390726
1648.000000	5.371050
1646.000000	5.359840
1644.000000	5.403664
1642.000000	5.421097
1640.000000	5.403128
1638.000000	5.345762
1636.000000	5.293639
1634.000000	5.332480
1632.000000	5.370657
1630.000000	5.356262
1628.000000	5.333469
1626.000000	5.307468
1624.000000	5.270374
1622.000000	5.257543
1620.000000	5.232146
1618.000000	5.159307
1616.000000	5.140468
1614.000000	5.164504
1612.000000	5.140963
1610.000000	5.104598
1608.000000	5.088621
1606.000000	5.094441
1604.000000	5.107848
1602.000000	5.124184
1600.000000	5.139168
1598.000000	5.149239
1596.000000	5.154714
1594.000000	5.162576
1592.000000	5.166488
1590.000000	5.165843
1588.000000	5.164086
1586.000000	5.160076
1584.000000	5.155110
1582.000000	5.153688
1580.000000	5.140867
1578.000000	5.081539
1576.000000	5.053918
1574.000000	5.108134
1572.000000	5.113277
1570.000000	5.087237
1568.000000	5.094601
1566.000000	5.096830
1564.000000	5.075105
1562.000000	4.991435
1560.000000	4.875419
1558.000000	4.897068
1556.000000	4.982450
1554.000000	5.027091
1552.000000	5.062772
1550.000000	5.083630
1548.000000	5.093470
1546.000000	5.078511
1544.000000	5.045328
1542.000000	4.991286
1540.000000	4.974847
1538.000000	5.066593
1536.000000	5.134296
1534.000000	5.132222
1532.000000	5.155602
1530.000000	5.171869
1528.000000	5.156960
1526.000000	5.139595
1524.000000	5.113113
1522.000000	5.071870
1520.000000	5.087298
1518.000000	5.107194
1516.000000	5.107091
1514.000000	5.106461
1512.000000	5.092397
1510.000000	5.049800
1508.000000	4.957440
1506.000000	4.926673
1504.000000	4.966896
1502.000000	4.920531
1500.000000	4.764009
1498.000000	4.563591
1496.000000	4.432994
1494.000000	4.435137
1492.000000	4.503923
1490.000000	4.603772
1488.000000	4.718524
1486.000000	4.812944
1484.000000	4.873189
1482.000000	4.900522
1480.000000	4.912661
1478.000000	4.902239
1476.000000	4.875547
1474.000000	4.838547
1472.000000	4.834067
1470.000000	4.859690
1468.000000	4.849358
1466.000000	4.809201
1464.000000	4.791931
1462.000000	4.779705
1460.000000	4.708875
1458.000000	4.592458
1456.000000	4.545523
1454.000000	4.548509
1452.000000	4.528963
1450.000000	4.536088
1448.000000	4.584986
1446.000000	4.644563
1444.000000	4.673287
1442.000000	4.679291
1440.000000	4.666934
1438.000000	4.630868
1436.000000	4.633924
1434.000000	4.671481
1432.000000	4.676017
1430.000000	4.673351
1428.000000	4.680178
1426.000000	4.680286
1424.000000	4.672003
1422.000000	4.651548
1420.000000	4.612999
1418.000000	4.619009
1416.000000	4.639007
1414.000000	4.635264
1412.000000	4.615856
1410.000000	4.585152
1408.000000	4.539176
1406.000000	4.490331
1404.000000	4.467536
1402.000000	4.471606
1400.000000	4.483653
1398.000000	4.510771
1396.000000	4.530031
1394.000000	4.550121
1392.000000	4.575705
1390.000000	4.574923
1388.000000	4.552147
1386.000000	4.539389
1384.000000	4.539512
1382.000000	4.548872
1380.000000	4.554408
1378.000000	4.550615
1376.000000	4.539648
1374.000000	4.531929
1372.000000	4.534230
1370.000000	4.529264
1368.000000	4.519570
1366.000000	4.511439
1364.000000	4.494794
1362.000000	4.484192
1360.000000	4.483243
1358.000000	4.477298
1356.000000	4.466806
1354.000000	4.456697
1352.000000	4.445232
1350.000000	4.432625
1348.000000	4.419861
1346.000000	4.407674
1344.000000	4.392756
1342.000000	4.374733
1340.000000	4.359531
1338.000000	4.354910
1336.000000	4.353945
1334.000000	4.349981
1332.000000	4.339110
1330.000000	4.326207
1328.000000	4.313706
1326.000000	4.299656
1324.000000	4.283055
1322.000000	4.266081
1320.000000	4.247621
1318.000000	4.231136
1316.000000	4.214771
1314.000000	4.197350
1312.000000	4.178958
1310.000000	4.161633
1308.000000	4.144779
1306.000000	4.125071
1304.000000	4.103017
1302.000000	4.083223
1300.000000	4.063748
1298.000000	4.043013
1296.000000	4.021747
1294.000000	4.000318
1292.000000	3.977296
1290.000000	3.953775
1288.000000	3.931026
1286.000000	3.907546
1284.000000	3.882140
1282.000000	3.857046
1280.000000	3.830324
1278.000000	3.801102
1276.000000	3.768348
1274.000000	3.731928
1272.000000	3.687262
1270.000000	3.630855
1268.000000	3.560008
1266.000000	3.476444
1264.000000	3.391172
1262.000000	3.324487
1260.000000	3.294406
1258.000000	3.302125
1256.000000	3.326699
1254.000000	3.346117
1252.000000	3.348736
1250.000000	3.334508
1248.000000	3.310509
1246.000000	3.284284
1244.000000	3.255056
1242.000000	3.225736
1240.000000	3.197302
1238.000000	3.169176
1236.000000	3.141138
1234.000000	3.115107
1232.000000	3.090209
1230.000000	3.065441
1228.000000	3.039787
1226.000000	3.013972
1224.000000	2.987510
1222.000000	2.958939
1220.000000	2.928097
1218.000000	2.897973
1216.000000	2.869903
1214.000000	2.841335
1212.000000	2.812510
1210.000000	2.785910
1208.000000	2.760471
1206.000000	2.738464
1204.000000	2.715340
1202.000000	2.691455
1200.000000	2.667960
1198.000000	2.644935
1196.000000	2.621351
1194.000000	2.596837
1192.000000	2.571119
1190.000000	2.546203
1188.000000	2.521615
1186.000000	2.494595
1184.000000	2.458862
1182.000000	2.414240
1180.000000	2.380991
1178.000000	2.368236
1176.000000	2.354193
1174.000000	2.333093
1172.000000	2.307968
1170.000000	2.280155
1168.000000	2.251142
1166.000000	2.223243
1164.000000	2.195217
1162.000000	2.167359
1160.000000	2.139963
1158.000000	2.114903
1156.000000	2.090722
1154.000000	2.067124
1152.000000	2.042655
1150.000000	2.018428
1148.000000	1.993806
1146.000000	1.968960
1144.000000	1.942886
1142.000000	1.921182
1140.000000	1.903959
1138.000000	1.885316
1136.000000	1.864281
1134.000000	1.841800
1132.000000	1.818129
1130.000000	1.791718
1128.000000	1.766024
1126.000000	1.743072
1124.000000	1.719019
1122.000000	1.694132
1120.000000	1.668187
1118.000000	1.640811
1116.000000	1.612302
1114.000000	1.584368
1112.000000	1.555941
1110.000000	1.528035
1108.000000	1.500214
1106.000000	1.474767
1104.000000	1.450449
1102.000000	1.425989
1100.000000	1.401766
1098.000000	1.377287
1096.000000	1.354229
1094.000000	1.332271
1092.000000	1.309552
1090.000000	1.288047
1088.000000	1.268153
1086.000000	1.250612
1084.000000	1.232315
1082.000000	1.210360
1080.000000	1.191196
1078.000000	1.174108
1076.000000	1.158036
1074.000000	1.146948
1072.000000	1.137465
1070.000000	1.126093
1068.000000	1.112810
1066.000000	1.099162
1064.000000	1.084897
1062.000000	1.072256
1060.000000	1.060128
1058.000000	1.043950
1056.000000	1.020803
1054.000000	0.990604
1052.000000	0.962414
1050.000000	0.947118
1048.000000	0.947120
1046.000000	0.953235
1044.000000	0.953719
1042.000000	0.947119
1040.000000	0.936029
1038.000000	0.923851
1036.000000	0.911647
1034.000000	0.897798
1032.000000	0.883400
1030.000000	0.869180
1028.000000	0.853407
1026.000000	0.836670
1024.000000	0.820560
1022.000000	0.804747
1020.000000	0.790834
1018.000000	0.777600
1016.000000	0.764825
1014.000000	0.755831
1012.000000	0.746235
1010.000000	0.735496
1008.000000	0.725256
1006.000000	0.713742
1004.000000	0.701243
1002.000000	0.688179
1000.000000	0.675404
