PE IR       SUBTECH     SPECTRUM    ASCII       PEDS        4.00        
   -1
TE109A_013_80K_SB.ASC
20/04/21
12:21:20.00
20/04/21
12:21:20.00
Administrator
TE109A, Tuesday, April 21 2020, 013.
1000.000000
#HDR
-1
-1
#GR
cm-1
EGY
1.0
0.0
6000.000000
-2.000000
2501
8
6.418546
0.665287
#DATA
6000.000000	1.040980
5998.000000	1.043050
5996.000000	1.043397
5994.000000	1.044763
5992.000000	1.046475
5990.000000	1.048671
5988.000000	1.051704
5986.000000	1.055162
5984.000000	1.057507
5982.000000	1.059168
5980.000000	1.061264
5978.000000	1.064197
5976.000000	1.066203
5974.000000	1.067222
5972.000000	1.069694
5970.000000	1.073005
5968.000000	1.075782
5966.000000	1.077573
5964.000000	1.079465
5962.000000	1.082345
5960.000000	1.083883
5958.000000	1.084331
5956.000000	1.085891
5954.000000	1.088967
5952.000000	1.092686
5950.000000	1.094455
5948.000000	1.097123
5946.000000	1.100486
5944.000000	1.102501
5942.000000	1.103495
5940.000000	1.104665
5938.000000	1.108302
5936.000000	1.111636
5934.000000	1.111230
5932.000000	1.110742
5930.000000	1.113493
5928.000000	1.117638
5926.000000	1.121547
5924.000000	1.122578
5922.000000	1.124033
5920.000000	1.126778
5918.000000	1.130116
5916.000000	1.133026
5914.000000	1.135500
5912.000000	1.137704
5910.000000	1.140262
5908.000000	1.142258
5906.000000	1.143940
5904.000000	1.146021
5902.000000	1.149174
5900.000000	1.152750
5898.000000	1.156135
5896.000000	1.159105
5894.000000	1.161307
5892.000000	1.162378
5890.000000	1.162969
5888.000000	1.164694
5886.000000	1.168173
5884.000000	1.171426
5882.000000	1.172917
5880.000000	1.173947
5878.000000	1.177396
5876.000000	1.182328
5874.000000	1.185627
5872.000000	1.186275
5870.000000	1.187758
5868.000000	1.191149
5866.000000	1.193219
5864.000000	1.193837
5862.000000	1.194958
5860.000000	1.197483
5858.000000	1.200808
5856.000000	1.202920
5854.000000	1.205406
5852.000000	1.209135
5850.000000	1.211391
5848.000000	1.213150
5846.000000	1.214696
5844.000000	1.217178
5842.000000	1.220359
5840.000000	1.223023
5838.000000	1.225733
5836.000000	1.228025
5834.000000	1.230718
5832.000000	1.234038
5830.000000	1.237019
5828.000000	1.240176
5826.000000	1.242706
5824.000000	1.244223
5822.000000	1.246878
5820.000000	1.248948
5818.000000	1.252034
5816.000000	1.254617
5814.000000	1.257143
5812.000000	1.260460
5810.000000	1.264268
5808.000000	1.266905
5806.000000	1.269431
5804.000000	1.272237
5802.000000	1.274734
5800.000000	1.275993
5798.000000	1.276250
5796.000000	1.278062
5794.000000	1.280323
5792.000000	1.281356
5790.000000	1.282112
5788.000000	1.285361
5786.000000	1.290175
5784.000000	1.294164
5782.000000	1.296678
5780.000000	1.299895
5778.000000	1.303467
5776.000000	1.307656
5774.000000	1.310868
5772.000000	1.313386
5770.000000	1.316344
5768.000000	1.318375
5766.000000	1.320001
5764.000000	1.322426
5762.000000	1.325893
5760.000000	1.329534
5758.000000	1.332234
5756.000000	1.333487
5754.000000	1.335138
5752.000000	1.338609
5750.000000	1.342222
5748.000000	1.344919
5746.000000	1.347004
5744.000000	1.349788
5742.000000	1.354625
5740.000000	1.357681
5738.000000	1.359232
5736.000000	1.361218
5734.000000	1.364472
5732.000000	1.368192
5730.000000	1.369774
5728.000000	1.370471
5726.000000	1.372015
5724.000000	1.374871
5722.000000	1.378774
5720.000000	1.383092
5718.000000	1.387468
5716.000000	1.390436
5714.000000	1.391293
5712.000000	1.392621
5710.000000	1.395092
5708.000000	1.398998
5706.000000	1.403409
5704.000000	1.406033
5702.000000	1.406603
5700.000000	1.407267
5698.000000	1.409993
5696.000000	1.414920
5694.000000	1.418683
5692.000000	1.421063
5690.000000	1.423294
5688.000000	1.426437
5686.000000	1.430122
5684.000000	1.433186
5682.000000	1.435700
5680.000000	1.437677
5678.000000	1.439248
5676.000000	1.440681
5674.000000	1.443236
5672.000000	1.446531
5670.000000	1.450377
5668.000000	1.455310
5666.000000	1.460748
5664.000000	1.463706
5662.000000	1.464642
5660.000000	1.465080
5658.000000	1.467625
5656.000000	1.471737
5654.000000	1.475262
5652.000000	1.477461
5650.000000	1.479135
5648.000000	1.482177
5646.000000	1.486092
5644.000000	1.489572
5642.000000	1.492834
5640.000000	1.496622
5638.000000	1.499361
5636.000000	1.499902
5634.000000	1.500790
5632.000000	1.503813
5630.000000	1.507709
5628.000000	1.511717
5626.000000	1.515122
5624.000000	1.518028
5622.000000	1.520284
5620.000000	1.523570
5618.000000	1.527136
5616.000000	1.529727
5614.000000	1.532122
5612.000000	1.535179
5610.000000	1.538110
5608.000000	1.540483
5606.000000	1.543901
5604.000000	1.547673
5602.000000	1.550635
5600.000000	1.552393
5598.000000	1.555720
5596.000000	1.559359
5594.000000	1.562675
5592.000000	1.565916
5590.000000	1.568392
5588.000000	1.572412
5586.000000	1.576897
5584.000000	1.580716
5582.000000	1.582122
5580.000000	1.582759
5578.000000	1.586766
5576.000000	1.592069
5574.000000	1.595627
5572.000000	1.597476
5570.000000	1.600021
5568.000000	1.603261
5566.000000	1.606059
5564.000000	1.608483
5562.000000	1.611754
5560.000000	1.614613
5558.000000	1.617977
5556.000000	1.622350
5554.000000	1.626649
5552.000000	1.629208
5550.000000	1.631735
5548.000000	1.635363
5546.000000	1.639393
5544.000000	1.642307
5542.000000	1.644368
5540.000000	1.646166
5538.000000	1.649659
5536.000000	1.652996
5534.000000	1.655679
5532.000000	1.657760
5530.000000	1.660767
5528.000000	1.664604
5526.000000	1.668422
5524.000000	1.672083
5522.000000	1.674788
5520.000000	1.676792
5518.000000	1.680507
5516.000000	1.685992
5514.000000	1.690349
5512.000000	1.691588
5510.000000	1.691726
5508.000000	1.693871
5506.000000	1.697612
5504.000000	1.701575
5502.000000	1.703659
5500.000000	1.705942
5498.000000	1.709694
5496.000000	1.714629
5494.000000	1.718977
5492.000000	1.722258
5490.000000	1.725299
5488.000000	1.728362
5486.000000	1.731612
5484.000000	1.734094
5482.000000	1.736868
5480.000000	1.739450
5478.000000	1.743052
5476.000000	1.747160
5474.000000	1.751074
5472.000000	1.754810
5470.000000	1.756798
5468.000000	1.758650
5466.000000	1.761270
5464.000000	1.764751
5462.000000	1.768577
5460.000000	1.772372
5458.000000	1.776799
5456.000000	1.780647
5454.000000	1.784449
5452.000000	1.788706
5450.000000	1.791787
5448.000000	1.793691
5446.000000	1.795483
5444.000000	1.798628
5442.000000	1.802550
5440.000000	1.806081
5438.000000	1.808876
5436.000000	1.812007
5434.000000	1.816177
5432.000000	1.820681
5430.000000	1.824272
5428.000000	1.826488
5426.000000	1.828363
5424.000000	1.830117
5422.000000	1.833363
5420.000000	1.837713
5418.000000	1.840733
5416.000000	1.841954
5414.000000	1.843635
5412.000000	1.848323
5410.000000	1.855550
5408.000000	1.862138
5406.000000	1.866077
5404.000000	1.869317
5402.000000	1.871617
5400.000000	1.872960
5398.000000	1.873837
5396.000000	1.876531
5394.000000	1.880813
5392.000000	1.884148
5390.000000	1.886069
5388.000000	1.888597
5386.000000	1.892163
5384.000000	1.896878
5382.000000	1.900636
5380.000000	1.903994
5378.000000	1.908633
5376.000000	1.911749
5374.000000	1.914105
5372.000000	1.917872
5370.000000	1.924152
5368.000000	1.928477
5366.000000	1.929833
5364.000000	1.931724
5362.000000	1.934602
5360.000000	1.937821
5358.000000	1.941024
5356.000000	1.944425
5354.000000	1.947778
5352.000000	1.949938
5350.000000	1.951977
5348.000000	1.952896
5346.000000	1.954836
5344.000000	1.957741
5342.000000	1.961177
5340.000000	1.965441
5338.000000	1.970112
5336.000000	1.974168
5334.000000	1.977477
5332.000000	1.980348
5330.000000	1.983460
5328.000000	1.986389
5326.000000	1.989149
5324.000000	1.993495
5322.000000	1.998493
5320.000000	2.002392
5318.000000	2.004203
5316.000000	2.006165
5314.000000	2.008745
5312.000000	2.010306
5310.000000	2.012193
5308.000000	2.015886
5306.000000	2.020027
5304.000000	2.022510
5302.000000	2.024495
5300.000000	2.026938
5298.000000	2.028757
5296.000000	2.031690
5294.000000	2.035570
5292.000000	2.038648
5290.000000	2.039793
5288.000000	2.040822
5286.000000	2.044243
5284.000000	2.049134
5282.000000	2.052896
5280.000000	2.054132
5278.000000	2.056321
5276.000000	2.059514
5274.000000	2.062399
5272.000000	2.063483
5270.000000	2.065744
5268.000000	2.067905
5266.000000	2.069785
5264.000000	2.071594
5262.000000	2.073969
5260.000000	2.076932
5258.000000	2.079665
5256.000000	2.081272
5254.000000	2.082369
5252.000000	2.084630
5250.000000	2.086258
5248.000000	2.086934
5246.000000	2.087882
5244.000000	2.090516
5242.000000	2.093770
5240.000000	2.096546
5238.000000	2.097636
5236.000000	2.098149
5234.000000	2.098387
5232.000000	2.099824
5230.000000	2.102717
5228.000000	2.105747
5226.000000	2.106758
5224.000000	2.106784
5222.000000	2.108435
5220.000000	2.111530
5218.000000	2.114487
5216.000000	2.116740
5214.000000	2.117439
5212.000000	2.116636
5210.000000	2.115640
5208.000000	2.116251
5206.000000	2.119083
5204.000000	2.122737
5202.000000	2.124846
5200.000000	2.125163
5198.000000	2.125804
5196.000000	2.126918
5194.000000	2.128732
5192.000000	2.130384
5190.000000	2.130414
5188.000000	2.130440
5186.000000	2.131765
5184.000000	2.134366
5182.000000	2.136342
5180.000000	2.137421
5178.000000	2.139543
5176.000000	2.142019
5174.000000	2.144695
5172.000000	2.145129
5170.000000	2.144196
5168.000000	2.144271
5166.000000	2.145968
5164.000000	2.147968
5162.000000	2.149164
5160.000000	2.150086
5158.000000	2.152369
5156.000000	2.155698
5154.000000	2.158014
5152.000000	2.158814
5150.000000	2.160468
5148.000000	2.163729
5146.000000	2.166596
5144.000000	2.168332
5142.000000	2.169080
5140.000000	2.168941
5138.000000	2.169970
5136.000000	2.172735
5134.000000	2.176259
5132.000000	2.179091
5130.000000	2.181346
5128.000000	2.183873
5126.000000	2.187025
5124.000000	2.189864
5122.000000	2.191044
5120.000000	2.191367
5118.000000	2.193779
5116.000000	2.197811
5114.000000	2.201564
5112.000000	2.203939
5110.000000	2.206319
5108.000000	2.210221
5106.000000	2.214061
5104.000000	2.215705
5102.000000	2.215848
5100.000000	2.217972
5098.000000	2.223155
5096.000000	2.228682
5094.000000	2.232843
5092.000000	2.234630
5090.000000	2.236551
5088.000000	2.239163
5086.000000	2.242677
5084.000000	2.246760
5082.000000	2.251257
5080.000000	2.255461
5078.000000	2.258101
5076.000000	2.259932
5074.000000	2.263083
5072.000000	2.267781
5070.000000	2.271960
5068.000000	2.273793
5066.000000	2.275090
5064.000000	2.278985
5062.000000	2.285213
5060.000000	2.290687
5058.000000	2.294119
5056.000000	2.296808
5054.000000	2.299358
5052.000000	2.301389
5050.000000	2.304798
5048.000000	2.310416
5046.000000	2.315384
5044.000000	2.318199
5042.000000	2.320063
5040.000000	2.322859
5038.000000	2.326496
5036.000000	2.330784
5034.000000	2.334962
5032.000000	2.339283
5030.000000	2.343623
5028.000000	2.346236
5026.000000	2.348317
5024.000000	2.352585
5022.000000	2.358690
5020.000000	2.363021
5018.000000	2.366931
5016.000000	2.371282
5014.000000	2.374260
5012.000000	2.375138
5010.000000	2.378403
5008.000000	2.384589
5006.000000	2.389919
5004.000000	2.392702
5002.000000	2.396331
5000.000000	2.401512
4998.000000	2.405932
4996.000000	2.409983
4994.000000	2.414053
4992.000000	2.418019
4990.000000	2.421959
4988.000000	2.426931
4986.000000	2.430795
4984.000000	2.435118
4982.000000	2.440432
4980.000000	2.445819
4978.000000	2.450376
4976.000000	2.454876
4974.000000	2.459619
4972.000000	2.464457
4970.000000	2.468118
4968.000000	2.470611
4966.000000	2.474038
4964.000000	2.478916
4962.000000	2.483788
4960.000000	2.488995
4958.000000	2.494984
4956.000000	2.500206
4954.000000	2.504697
4952.000000	2.507993
4950.000000	2.509778
4948.000000	2.513189
4946.000000	2.519446
4944.000000	2.526173
4942.000000	2.530226
4940.000000	2.533059
4938.000000	2.536610
4936.000000	2.541713
4934.000000	2.547523
4932.000000	2.552819
4930.000000	2.557591
4928.000000	2.561356
4926.000000	2.564967
4924.000000	2.569358
4922.000000	2.575383
4920.000000	2.580075
4918.000000	2.582791
4916.000000	2.586563
4914.000000	2.592748
4912.000000	2.598805
4910.000000	2.603777
4908.000000	2.608525
4906.000000	2.613267
4904.000000	2.618163
4902.000000	2.624522
4900.000000	2.630143
4898.000000	2.634808
4896.000000	2.638560
4894.000000	2.642030
4892.000000	2.646177
4890.000000	2.651075
4888.000000	2.655836
4886.000000	2.661289
4884.000000	2.667237
4882.000000	2.671351
4880.000000	2.675342
4878.000000	2.682028
4876.000000	2.688548
4874.000000	2.692832
4872.000000	2.697797
4870.000000	2.703201
4868.000000	2.708005
4866.000000	2.713114
4864.000000	2.719371
4862.000000	2.724634
4860.000000	2.728709
4858.000000	2.733475
4856.000000	2.739709
4854.000000	2.746321
4852.000000	2.751087
4850.000000	2.755088
4848.000000	2.759670
4846.000000	2.764356
4844.000000	2.768628
4842.000000	2.773852
4840.000000	2.779906
4838.000000	2.786493
4836.000000	2.793294
4834.000000	2.798740
4832.000000	2.802737
4830.000000	2.806761
4828.000000	2.811499
4826.000000	2.817058
4824.000000	2.823704
4822.000000	2.830259
4820.000000	2.835749
4818.000000	2.840651
4816.000000	2.846450
4814.000000	2.852826
4812.000000	2.858558
4810.000000	2.864207
4808.000000	2.869901
4806.000000	2.874681
4804.000000	2.879746
4802.000000	2.886396
4800.000000	2.891551
4798.000000	2.895231
4796.000000	2.900720
4794.000000	2.907856
4792.000000	2.913001
4790.000000	2.917100
4788.000000	2.921793
4786.000000	2.928127
4784.000000	2.935848
4782.000000	2.943645
4780.000000	2.951109
4778.000000	2.958303
4776.000000	2.964028
4774.000000	2.966929
4772.000000	2.970581
4770.000000	2.976890
4768.000000	2.983394
4766.000000	2.987862
4764.000000	2.992697
4762.000000	2.998384
4760.000000	3.002952
4758.000000	3.007448
4756.000000	3.013870
4754.000000	3.021272
4752.000000	3.028018
4750.000000	3.034262
4748.000000	3.039407
4746.000000	3.043971
4744.000000	3.048541
4742.000000	3.054518
4740.000000	3.059723
4738.000000	3.064259
4736.000000	3.069824
4734.000000	3.076849
4732.000000	3.081798
4730.000000	3.085412
4728.000000	3.090126
4726.000000	3.096300
4724.000000	3.102930
4722.000000	3.110382
4720.000000	3.117672
4718.000000	3.122424
4716.000000	3.126190
4714.000000	3.131864
4712.000000	3.138617
4710.000000	3.144618
4708.000000	3.149921
4706.000000	3.155546
4704.000000	3.161941
4702.000000	3.168169
4700.000000	3.173366
4698.000000	3.178887
4696.000000	3.184614
4694.000000	3.190312
4692.000000	3.195498
4690.000000	3.200081
4688.000000	3.205183
4686.000000	3.211148
4684.000000	3.216811
4682.000000	3.222644
4680.000000	3.229697
4678.000000	3.236065
4676.000000	3.241266
4674.000000	3.246755
4672.000000	3.252224
4670.000000	3.256953
4668.000000	3.261709
4666.000000	3.267222
4664.000000	3.271175
4662.000000	3.274802
4660.000000	3.280482
4658.000000	3.287124
4656.000000	3.293292
4654.000000	3.299837
4652.000000	3.305692
4650.000000	3.309609
4648.000000	3.313258
4646.000000	3.318102
4644.000000	3.324450
4642.000000	3.329819
4640.000000	3.334107
4638.000000	3.339032
4636.000000	3.344584
4634.000000	3.350257
4632.000000	3.356146
4630.000000	3.361784
4628.000000	3.367178
4626.000000	3.372455
4624.000000	3.376247
4622.000000	3.380012
4620.000000	3.385458
4618.000000	3.391340
4616.000000	3.396811
4614.000000	3.402504
4612.000000	3.409184
4610.000000	3.415638
4608.000000	3.422303
4606.000000	3.428507
4604.000000	3.434383
4602.000000	3.440326
4600.000000	3.446087
4598.000000	3.450756
4596.000000	3.455589
4594.000000	3.460338
4592.000000	3.464073
4590.000000	3.469021
4588.000000	3.476576
4586.000000	3.484159
4584.000000	3.489053
4582.000000	3.493056
4580.000000	3.498069
4578.000000	3.503428
4576.000000	3.508820
4574.000000	3.513578
4572.000000	3.516875
4570.000000	3.520038
4568.000000	3.526046
4566.000000	3.533149
4564.000000	3.538430
4562.000000	3.541537
4560.000000	3.545362
4558.000000	3.550429
4556.000000	3.556505
4554.000000	3.562132
4552.000000	3.566881
4550.000000	3.572469
4548.000000	3.578659
4546.000000	3.583001
4544.000000	3.586356
4542.000000	3.591919
4540.000000	3.599361
4538.000000	3.606093
4536.000000	3.609492
4534.000000	3.611740
4532.000000	3.617131
4530.000000	3.624313
4528.000000	3.629793
4526.000000	3.633651
4524.000000	3.638418
4522.000000	3.643884
4520.000000	3.649239
4518.000000	3.654739
4516.000000	3.660641
4514.000000	3.664996
4512.000000	3.668794
4510.000000	3.674268
4508.000000	3.679684
4506.000000	3.684402
4504.000000	3.690626
4502.000000	3.696881
4500.000000	3.701397
4498.000000	3.706186
4496.000000	3.712148
4494.000000	3.717720
4492.000000	3.722203
4490.000000	3.726655
4488.000000	3.732184
4486.000000	3.738015
4484.000000	3.743589
4482.000000	3.749481
4480.000000	3.755226
4478.000000	3.759643
4476.000000	3.763559
4474.000000	3.768531
4472.000000	3.774546
4470.000000	3.780089
4468.000000	3.785259
4466.000000	3.790331
4464.000000	3.794346
4462.000000	3.797790
4460.000000	3.801975
4458.000000	3.805788
4456.000000	3.810994
4454.000000	3.818937
4452.000000	3.826107
4450.000000	3.829182
4448.000000	3.831648
4446.000000	3.836402
4444.000000	3.841834
4442.000000	3.846983
4440.000000	3.853086
4438.000000	3.857678
4436.000000	3.858818
4434.000000	3.861014
4432.000000	3.866481
4430.000000	3.872770
4428.000000	3.877459
4426.000000	3.881836
4424.000000	3.887093
4422.000000	3.892872
4420.000000	3.897575
4418.000000	3.901874
4416.000000	3.906703
4414.000000	3.911928
4412.000000	3.916541
4410.000000	3.920470
4408.000000	3.925171
4406.000000	3.931736
4404.000000	3.937694
4402.000000	3.941431
4400.000000	3.944452
4398.000000	3.948612
4396.000000	3.954428
4394.000000	3.960767
4392.000000	3.965619
4390.000000	3.969516
4388.000000	3.974090
4386.000000	3.978498
4384.000000	3.981968
4382.000000	3.985708
4380.000000	3.989851
4378.000000	3.993679
4376.000000	3.996339
4374.000000	3.999098
4372.000000	4.003996
4370.000000	4.009819
4368.000000	4.013694
4366.000000	4.016271
4364.000000	4.019437
4362.000000	4.023719
4360.000000	4.028369
4358.000000	4.032223
4356.000000	4.034696
4354.000000	4.037824
4352.000000	4.042280
4350.000000	4.046554
4348.000000	4.051284
4346.000000	4.055901
4344.000000	4.058890
4342.000000	4.062184
4340.000000	4.066487
4338.000000	4.071073
4336.000000	4.075211
4334.000000	4.078382
4332.000000	4.081942
4330.000000	4.086350
4328.000000	4.089565
4326.000000	4.093256
4324.000000	4.098324
4322.000000	4.101622
4320.000000	4.104214
4318.000000	4.109042
4316.000000	4.114337
4314.000000	4.118901
4312.000000	4.122964
4310.000000	4.126744
4308.000000	4.130125
4306.000000	4.133177
4304.000000	4.136603
4302.000000	4.141272
4300.000000	4.146131
4298.000000	4.150464
4296.000000	4.154758
4294.000000	4.157912
4292.000000	4.159616
4290.000000	4.164189
4288.000000	4.170426
4286.000000	4.173568
4284.000000	4.174883
4282.000000	4.177610
4280.000000	4.182529
4278.000000	4.187826
4276.000000	4.191100
4274.000000	4.193442
4272.000000	4.196395
4270.000000	4.199865
4268.000000	4.204038
4266.000000	4.208841
4264.000000	4.213324
4262.000000	4.216246
4260.000000	4.218460
4258.000000	4.222648
4256.000000	4.227583
4254.000000	4.230721
4252.000000	4.233064
4250.000000	4.235277
4248.000000	4.237854
4246.000000	4.243199
4244.000000	4.250039
4242.000000	4.254868
4240.000000	4.257973
4238.000000	4.260285
4236.000000	4.263159
4234.000000	4.269010
4232.000000	4.274915
4230.000000	4.277693
4228.000000	4.280087
4226.000000	4.283806
4224.000000	4.287960
4222.000000	4.292366
4220.000000	4.296554
4218.000000	4.301244
4216.000000	4.306118
4214.000000	4.310422
4212.000000	4.314602
4210.000000	4.319176
4208.000000	4.323305
4206.000000	4.326943
4204.000000	4.331639
4202.000000	4.337544
4200.000000	4.342111
4198.000000	4.346637
4196.000000	4.352329
4194.000000	4.357492
4192.000000	4.360756
4190.000000	4.363224
4188.000000	4.366496
4186.000000	4.371632
4184.000000	4.379036
4182.000000	4.385415
4180.000000	4.388235
4178.000000	4.391373
4176.000000	4.395921
4174.000000	4.400562
4172.000000	4.404736
4170.000000	4.407616
4168.000000	4.411539
4166.000000	4.417407
4164.000000	4.422283
4162.000000	4.426227
4160.000000	4.429769
4158.000000	4.432856
4156.000000	4.437632
4154.000000	4.443888
4152.000000	4.449800
4150.000000	4.455588
4148.000000	4.461013
4146.000000	4.464426
4144.000000	4.466907
4142.000000	4.471196
4140.000000	4.476642
4138.000000	4.481131
4136.000000	4.485360
4134.000000	4.489356
4132.000000	4.492497
4130.000000	4.495938
4128.000000	4.500619
4126.000000	4.505740
4124.000000	4.510912
4122.000000	4.515615
4120.000000	4.520309
4118.000000	4.526518
4116.000000	4.532685
4114.000000	4.537669
4112.000000	4.542488
4110.000000	4.546066
4108.000000	4.549106
4106.000000	4.554214
4104.000000	4.558558
4102.000000	4.561336
4100.000000	4.566403
4098.000000	4.572849
4096.000000	4.577874
4094.000000	4.582658
4092.000000	4.587646
4090.000000	4.592599
4088.000000	4.597155
4086.000000	4.600581
4084.000000	4.604222
4082.000000	4.609434
4080.000000	4.613368
4078.000000	4.616053
4076.000000	4.620677
4074.000000	4.626030
4072.000000	4.629026
4070.000000	4.631644
4068.000000	4.637131
4066.000000	4.643315
4064.000000	4.646888
4062.000000	4.650396
4060.000000	4.655184
4058.000000	4.660286
4056.000000	4.665057
4054.000000	4.669165
4052.000000	4.673661
4050.000000	4.677907
4048.000000	4.680900
4046.000000	4.685238
4044.000000	4.690434
4042.000000	4.694462
4040.000000	4.699546
4038.000000	4.706210
4036.000000	4.712349
4034.000000	4.717455
4032.000000	4.720543
4030.000000	4.722545
4028.000000	4.724934
4026.000000	4.729195
4024.000000	4.735079
4022.000000	4.740868
4020.000000	4.747601
4018.000000	4.754168
4016.000000	4.758154
4014.000000	4.761543
4012.000000	4.766355
4010.000000	4.772002
4008.000000	4.776221
4006.000000	4.780188
4004.000000	4.786450
4002.000000	4.794666
4000.000000	4.802661
3998.000000	4.808052
3996.000000	4.810945
3994.000000	4.813844
3992.000000	4.817711
3990.000000	4.822556
3988.000000	4.828334
3986.000000	4.834571
3984.000000	4.839287
3982.000000	4.843816
3980.000000	4.851459
3978.000000	4.858441
3976.000000	4.862169
3974.000000	4.866272
3972.000000	4.872502
3970.000000	4.879952
3968.000000	4.886867
3966.000000	4.893111
3964.000000	4.899538
3962.000000	4.905588
3960.000000	4.911476
3958.000000	4.918335
3956.000000	4.925476
3954.000000	4.930953
3952.000000	4.935717
3950.000000	4.941334
3948.000000	4.947837
3946.000000	4.954342
3944.000000	4.962769
3942.000000	4.974265
3940.000000	4.983784
3938.000000	4.989709
3936.000000	4.993580
3934.000000	4.997291
3932.000000	5.006231
3930.000000	5.018529
3928.000000	5.026695
3926.000000	5.032620
3924.000000	5.040568
3922.000000	5.047142
3920.000000	5.051757
3918.000000	5.060942
3916.000000	5.077067
3914.000000	5.092073
3912.000000	5.102814
3910.000000	5.109998
3908.000000	5.104734
3906.000000	5.089143
3904.000000	5.081342
3902.000000	5.089225
3900.000000	5.112691
3898.000000	5.143258
3896.000000	5.160699
3894.000000	5.157800
3892.000000	5.156898
3890.000000	5.165666
3888.000000	5.164530
3886.000000	5.167696
3884.000000	5.184388
3882.000000	5.196566
3880.000000	5.213000
3878.000000	5.229207
3876.000000	5.231150
3874.000000	5.221667
3872.000000	5.205758
3870.000000	5.209805
3868.000000	5.230254
3866.000000	5.241650
3864.000000	5.255881
3862.000000	5.278405
3860.000000	5.291925
3858.000000	5.257583
3856.000000	5.178316
3854.000000	5.156121
3852.000000	5.228341
3850.000000	5.309714
3848.000000	5.345856
3846.000000	5.347963
3844.000000	5.340640
3842.000000	5.323251
3840.000000	5.293319
3838.000000	5.293113
3836.000000	5.329464
3834.000000	5.361648
3832.000000	5.384391
3830.000000	5.402780
3828.000000	5.411098
3826.000000	5.409468
3824.000000	5.387896
3822.000000	5.372496
3820.000000	5.377046
3818.000000	5.369882
3816.000000	5.385638
3814.000000	5.436799
3812.000000	5.464195
3810.000000	5.448252
3808.000000	5.429932
3806.000000	5.434859
3804.000000	5.422369
3802.000000	5.413738
3800.000000	5.446267
3798.000000	5.479025
3796.000000	5.499293
3794.000000	5.517082
3792.000000	5.527145
3790.000000	5.530898
3788.000000	5.531461
3786.000000	5.531741
3784.000000	5.532270
3782.000000	5.529784
3780.000000	5.531169
3778.000000	5.543354
3776.000000	5.555430
3774.000000	5.554244
3772.000000	5.541373
3770.000000	5.537939
3768.000000	5.545830
3766.000000	5.557260
3764.000000	5.566758
3762.000000	5.562942
3760.000000	5.558038
3758.000000	5.563635
3756.000000	5.548582
3754.000000	5.494157
3752.000000	5.452232
3750.000000	5.466463
3748.000000	5.476231
3746.000000	5.452497
3744.000000	5.485463
3742.000000	5.556611
3740.000000	5.572852
3738.000000	5.547313
3736.000000	5.534444
3734.000000	5.546015
3732.000000	5.575739
3730.000000	5.605801
3728.000000	5.612309
3726.000000	5.609350
3724.000000	5.610519
3722.000000	5.616335
3720.000000	5.625213
3718.000000	5.630485
3716.000000	5.613858
3714.000000	5.576772
3712.000000	5.559296
3710.000000	5.564255
3708.000000	5.571743
3706.000000	5.584607
3704.000000	5.589802
3702.000000	5.587242
3700.000000	5.590188
3698.000000	5.592239
3696.000000	5.583371
3694.000000	5.555002
3692.000000	5.503440
3690.000000	5.459094
3688.000000	5.468139
3686.000000	5.500995
3684.000000	5.505118
3682.000000	5.483873
3680.000000	5.439504
3678.000000	5.369469
3676.000000	5.327653
3674.000000	5.321163
3672.000000	5.298855
3670.000000	5.291592
3668.000000	5.309698
3666.000000	5.314216
3664.000000	5.298952
3662.000000	5.273996
3660.000000	5.236306
3658.000000	5.191073
3656.000000	5.165584
3654.000000	5.138363
3652.000000	5.079743
3650.000000	5.035045
3648.000000	5.039423
3646.000000	5.061850
3644.000000	5.065962
3642.000000	5.051939
3640.000000	5.033845
3638.000000	5.014626
3636.000000	4.992434
3634.000000	4.964180
3632.000000	4.914251
3630.000000	4.871730
3628.000000	4.882564
3626.000000	4.908345
3624.000000	4.904114
3622.000000	4.875667
3620.000000	4.852091
3618.000000	4.847989
3616.000000	4.843250
3614.000000	4.828640
3612.000000	4.812650
3610.000000	4.801467
3608.000000	4.804868
3606.000000	4.814312
3604.000000	4.811011
3602.000000	4.797074
3600.000000	4.785314
3598.000000	4.776967
3596.000000	4.769984
3594.000000	4.765566
3592.000000	4.753832
3590.000000	4.732434
3588.000000	4.724233
3586.000000	4.735005
3584.000000	4.743817
3582.000000	4.742275
3580.000000	4.738531
3578.000000	4.735737
3576.000000	4.731883
3574.000000	4.726047
3572.000000	4.714739
3570.000000	4.697516
3568.000000	4.687748
3566.000000	4.693284
3564.000000	4.701563
3562.000000	4.704624
3560.000000	4.704603
3558.000000	4.703383
3556.000000	4.699866
3554.000000	4.694083
3552.000000	4.690279
3550.000000	4.687156
3548.000000	4.679848
3546.000000	4.676104
3544.000000	4.678935
3542.000000	4.680247
3540.000000	4.677482
3538.000000	4.674188
3536.000000	4.672449
3534.000000	4.669874
3532.000000	4.664587
3530.000000	4.657373
3528.000000	4.652677
3526.000000	4.650049
3524.000000	4.646916
3522.000000	4.644904
3520.000000	4.643472
3518.000000	4.641807
3516.000000	4.637962
3514.000000	4.632307
3512.000000	4.627149
3510.000000	4.622454
3508.000000	4.618744
3506.000000	4.614241
3504.000000	4.607592
3502.000000	4.603893
3500.000000	4.602947
3498.000000	4.598229
3496.000000	4.592280
3494.000000	4.589060
3492.000000	4.584955
3490.000000	4.578533
3488.000000	4.574096
3486.000000	4.572620
3484.000000	4.569842
3482.000000	4.565659
3480.000000	4.562342
3478.000000	4.560639
3476.000000	4.560992
3474.000000	4.560674
3472.000000	4.557705
3470.000000	4.556020
3468.000000	4.556809
3466.000000	4.557139
3464.000000	4.557324
3462.000000	4.559268
3460.000000	4.560597
3458.000000	4.560827
3456.000000	4.562425
3454.000000	4.563307
3452.000000	4.562744
3450.000000	4.560232
3448.000000	4.557075
3446.000000	4.556738
3444.000000	4.558540
3442.000000	4.561799
3440.000000	4.565795
3438.000000	4.569922
3436.000000	4.574974
3434.000000	4.580488
3432.000000	4.587321
3430.000000	4.595255
3428.000000	4.601193
3426.000000	4.606179
3424.000000	4.612218
3422.000000	4.617267
3420.000000	4.621396
3418.000000	4.626676
3416.000000	4.630319
3414.000000	4.633522
3412.000000	4.638319
3410.000000	4.640954
3408.000000	4.641619
3406.000000	4.643016
3404.000000	4.646010
3402.000000	4.648160
3400.000000	4.650648
3398.000000	4.655523
3396.000000	4.659726
3394.000000	4.662235
3392.000000	4.664951
3390.000000	4.668878
3388.000000	4.672178
3386.000000	4.675954
3384.000000	4.679694
3382.000000	4.681307
3380.000000	4.682791
3378.000000	4.685454
3376.000000	4.688206
3374.000000	4.691115
3372.000000	4.694236
3370.000000	4.694642
3368.000000	4.694771
3366.000000	4.697831
3364.000000	4.702177
3362.000000	4.705235
3360.000000	4.706599
3358.000000	4.707203
3356.000000	4.710105
3354.000000	4.713229
3352.000000	4.715167
3350.000000	4.717222
3348.000000	4.718417
3346.000000	4.720371
3344.000000	4.723076
3342.000000	4.725005
3340.000000	4.727050
3338.000000	4.729186
3336.000000	4.730862
3334.000000	4.733483
3332.000000	4.736261
3330.000000	4.738622
3328.000000	4.740361
3326.000000	4.742105
3324.000000	4.744199
3322.000000	4.745329
3320.000000	4.747017
3318.000000	4.749651
3316.000000	4.750620
3314.000000	4.751231
3312.000000	4.751930
3310.000000	4.751973
3308.000000	4.754116
3306.000000	4.757134
3304.000000	4.759047
3302.000000	4.761068
3300.000000	4.764669
3298.000000	4.767001
3296.000000	4.766345
3294.000000	4.767248
3292.000000	4.769296
3290.000000	4.770116
3288.000000	4.772702
3286.000000	4.775922
3284.000000	4.777757
3282.000000	4.778533
3280.000000	4.779784
3278.000000	4.781435
3276.000000	4.782365
3274.000000	4.783550
3272.000000	4.784864
3270.000000	4.786722
3268.000000	4.791613
3266.000000	4.795715
3264.000000	4.796205
3262.000000	4.796518
3260.000000	4.799574
3258.000000	4.802879
3256.000000	4.805627
3254.000000	4.808876
3252.000000	4.810190
3250.000000	4.809585
3248.000000	4.809585
3246.000000	4.810841
3244.000000	4.814421
3242.000000	4.819238
3240.000000	4.822019
3238.000000	4.823287
3236.000000	4.825309
3234.000000	4.827757
3232.000000	4.830761
3230.000000	4.833972
3228.000000	4.836755
3226.000000	4.839402
3224.000000	4.841337
3222.000000	4.842365
3220.000000	4.845054
3218.000000	4.848622
3216.000000	4.850784
3214.000000	4.854020
3212.000000	4.858454
3210.000000	4.861127
3208.000000	4.863172
3206.000000	4.867627
3204.000000	4.872760
3202.000000	4.876293
3200.000000	4.879334
3198.000000	4.883107
3196.000000	4.887424
3194.000000	4.892645
3192.000000	4.896798
3190.000000	4.899157
3188.000000	4.902656
3186.000000	4.907833
3184.000000	4.913340
3182.000000	4.917791
3180.000000	4.921325
3178.000000	4.925273
3176.000000	4.928742
3174.000000	4.933006
3172.000000	4.938917
3170.000000	4.943624
3168.000000	4.947975
3166.000000	4.953270
3164.000000	4.958229
3162.000000	4.962589
3160.000000	4.967638
3158.000000	4.971915
3156.000000	4.976020
3154.000000	4.981610
3152.000000	4.987091
3150.000000	4.991334
3148.000000	4.995852
3146.000000	5.000530
3144.000000	5.004861
3142.000000	5.009838
3140.000000	5.012862
3138.000000	5.014589
3136.000000	5.019027
3134.000000	5.024996
3132.000000	5.030253
3130.000000	5.034534
3128.000000	5.037019
3126.000000	5.039418
3124.000000	5.042997
3122.000000	5.046788
3120.000000	5.049887
3118.000000	5.052241
3116.000000	5.055627
3114.000000	5.058751
3112.000000	5.061727
3110.000000	5.065383
3108.000000	5.068579
3106.000000	5.072134
3104.000000	5.074386
3102.000000	5.076212
3100.000000	5.080489
3098.000000	5.086058
3096.000000	5.090282
3094.000000	5.094184
3092.000000	5.098433
3090.000000	5.101702
3088.000000	5.104632
3086.000000	5.108360
3084.000000	5.110057
3082.000000	5.111481
3080.000000	5.115263
3078.000000	5.119714
3076.000000	5.123651
3074.000000	5.125146
3072.000000	5.125963
3070.000000	5.127114
3068.000000	5.127167
3066.000000	5.129429
3064.000000	5.133343
3062.000000	5.135862
3060.000000	5.139890
3058.000000	5.145132
3056.000000	5.149992
3054.000000	5.154976
3052.000000	5.159650
3050.000000	5.162053
3048.000000	5.163951
3046.000000	5.167289
3044.000000	5.171019
3042.000000	5.175506
3040.000000	5.178167
3038.000000	5.180129
3036.000000	5.181974
3034.000000	5.183286
3032.000000	5.184469
3030.000000	5.184022
3028.000000	5.181663
3026.000000	5.177803
3024.000000	5.173286
3022.000000	5.169138
3020.000000	5.168530
3018.000000	5.173552
3016.000000	5.185970
3014.000000	5.203841
3012.000000	5.222454
3010.000000	5.240209
3008.000000	5.255177
3006.000000	5.265407
3004.000000	5.273372
3002.000000	5.281766
3000.000000	5.289245
2998.000000	5.293459
2996.000000	5.297667
2994.000000	5.303755
2992.000000	5.308540
2990.000000	5.312314
2988.000000	5.314232
2986.000000	5.314978
2984.000000	5.315073
2982.000000	5.313377
2980.000000	5.308116
2978.000000	5.301112
2976.000000	5.291178
2974.000000	5.274375
2972.000000	5.251980
2970.000000	5.225183
2968.000000	5.198326
2966.000000	5.175743
2964.000000	5.162539
2962.000000	5.160623
2960.000000	5.170112
2958.000000	5.186348
2956.000000	5.204673
2954.000000	5.220941
2952.000000	5.233391
2950.000000	5.241731
2948.000000	5.244258
2946.000000	5.239098
2944.000000	5.226230
2942.000000	5.205637
2940.000000	5.180758
2938.000000	5.156743
2936.000000	5.135245
2934.000000	5.116155
2932.000000	5.097485
2930.000000	5.078604
2928.000000	5.064836
2926.000000	5.063505
2924.000000	5.080289
2922.000000	5.114076
2920.000000	5.160813
2918.000000	5.215053
2916.000000	5.269471
2914.000000	5.319941
2912.000000	5.364818
2910.000000	5.400398
2908.000000	5.428727
2906.000000	5.452514
2904.000000	5.472798
2902.000000	5.494285
2900.000000	5.515146
2898.000000	5.532531
2896.000000	5.551144
2894.000000	5.570259
2892.000000	5.587030
2890.000000	5.602612
2888.000000	5.616790
2886.000000	5.628514
2884.000000	5.638208
2882.000000	5.644161
2880.000000	5.646136
2878.000000	5.645784
2876.000000	5.642517
2874.000000	5.634571
2872.000000	5.623118
2870.000000	5.606176
2868.000000	5.579344
2866.000000	5.546911
2864.000000	5.520172
2862.000000	5.507828
2860.000000	5.511500
2858.000000	5.526735
2856.000000	5.549553
2854.000000	5.576002
2852.000000	5.604518
2850.000000	5.637713
2848.000000	5.679579
2846.000000	5.722008
2844.000000	5.756600
2842.000000	5.785239
2840.000000	5.809123
2838.000000	5.826999
2836.000000	5.841086
2834.000000	5.854130
2832.000000	5.867082
2830.000000	5.879497
2828.000000	5.890623
2826.000000	5.899667
2824.000000	5.907886
2822.000000	5.915701
2820.000000	5.923119
2818.000000	5.931542
2816.000000	5.938902
2814.000000	5.945098
2812.000000	5.951275
2810.000000	5.956490
2808.000000	5.961664
2806.000000	5.967211
2804.000000	5.972450
2802.000000	5.977428
2800.000000	5.984158
2798.000000	5.990200
2796.000000	5.994306
2794.000000	5.998243
2792.000000	6.003083
2790.000000	6.008959
2788.000000	6.015653
2786.000000	6.021343
2784.000000	6.027791
2782.000000	6.035750
2780.000000	6.041246
2778.000000	6.045535
2776.000000	6.050373
2774.000000	6.056334
2772.000000	6.062383
2770.000000	6.067587
2768.000000	6.073819
2766.000000	6.078721
2764.000000	6.080703
2762.000000	6.083081
2760.000000	6.087494
2758.000000	6.091014
2756.000000	6.095539
2754.000000	6.101986
2752.000000	6.106575
2750.000000	6.109507
2748.000000	6.113768
2746.000000	6.117582
2744.000000	6.120562
2742.000000	6.123253
2740.000000	6.126242
2738.000000	6.129236
2736.000000	6.131898
2734.000000	6.134702
2732.000000	6.136422
2730.000000	6.138910
2728.000000	6.142423
2726.000000	6.143588
2724.000000	6.144400
2722.000000	6.146741
2720.000000	6.150892
2718.000000	6.152714
2716.000000	6.153664
2714.000000	6.156765
2712.000000	6.158641
2710.000000	6.159866
2708.000000	6.162191
2706.000000	6.163586
2704.000000	6.164430
2702.000000	6.165767
2700.000000	6.167639
2698.000000	6.170258
2696.000000	6.173775
2694.000000	6.176638
2692.000000	6.178587
2690.000000	6.180662
2688.000000	6.182867
2686.000000	6.185136
2684.000000	6.186779
2682.000000	6.187491
2680.000000	6.188690
2678.000000	6.188921
2676.000000	6.189066
2674.000000	6.189664
2672.000000	6.191537
2670.000000	6.192538
2668.000000	6.191583
2666.000000	6.191251
2664.000000	6.191388
2662.000000	6.192257
2660.000000	6.192211
2658.000000	6.191916
2656.000000	6.192647
2654.000000	6.192608
2652.000000	6.192383
2650.000000	6.192301
2648.000000	6.193511
2646.000000	6.194392
2644.000000	6.194497
2642.000000	6.194245
2640.000000	6.193514
2638.000000	6.192798
2636.000000	6.191981
2634.000000	6.191511
2632.000000	6.192231
2630.000000	6.192872
2628.000000	6.191664
2626.000000	6.189961
2624.000000	6.188513
2622.000000	6.188720
2620.000000	6.188796
2618.000000	6.185538
2616.000000	6.183792
2614.000000	6.182315
2612.000000	6.181079
2610.000000	6.181129
2608.000000	6.177964
2606.000000	6.174536
2604.000000	6.173157
2602.000000	6.170203
2600.000000	6.167374
2598.000000	6.164673
2596.000000	6.160906
2594.000000	6.158647
2592.000000	6.158271
2590.000000	6.158188
2588.000000	6.157939
2586.000000	6.157199
2584.000000	6.156309
2582.000000	6.157437
2580.000000	6.159477
2578.000000	6.159106
2576.000000	6.156166
2574.000000	6.153281
2572.000000	6.151237
2570.000000	6.148773
2568.000000	6.148192
2566.000000	6.148443
2564.000000	6.147034
2562.000000	6.143698
2560.000000	6.139965
2558.000000	6.138979
2556.000000	6.137893
2554.000000	6.134692
2552.000000	6.132016
2550.000000	6.128666
2548.000000	6.124020
2546.000000	6.119731
2544.000000	6.116187
2542.000000	6.112717
2540.000000	6.109422
2538.000000	6.106240
2536.000000	6.102881
2534.000000	6.098841
2532.000000	6.096959
2530.000000	6.094110
2528.000000	6.090262
2526.000000	6.085498
2524.000000	6.081927
2522.000000	6.079174
2520.000000	6.074610
2518.000000	6.069741
2516.000000	6.064541
2514.000000	6.059003
2512.000000	6.055820
2510.000000	6.052613
2508.000000	6.049688
2506.000000	6.046974
2504.000000	6.043041
2502.000000	6.038322
2500.000000	6.036558
2498.000000	6.034093
2496.000000	6.030610
2494.000000	6.029338
2492.000000	6.027452
2490.000000	6.023313
2488.000000	6.021775
2486.000000	6.020880
2484.000000	6.019135
2482.000000	6.016941
2480.000000	6.014137
2478.000000	6.012067
2476.000000	6.011097
2474.000000	6.009815
2472.000000	6.008249
2470.000000	6.006506
2468.000000	6.005486
2466.000000	6.005110
2464.000000	6.003283
2462.000000	6.000251
2460.000000	5.999045
2458.000000	5.999302
2456.000000	6.000475
2454.000000	6.000815
2452.000000	6.000875
2450.000000	6.000389
2448.000000	6.001494
2446.000000	6.002832
2444.000000	6.003491
2442.000000	6.004860
2440.000000	6.004954
2438.000000	6.003465
2436.000000	6.003510
2434.000000	6.006510
2432.000000	6.011675
2430.000000	6.014001
2428.000000	6.015029
2426.000000	6.017677
2424.000000	6.022053
2422.000000	6.026426
2420.000000	6.029130
2418.000000	6.030638
2416.000000	6.033550
2414.000000	6.037759
2412.000000	6.041634
2410.000000	6.044688
2408.000000	6.047720
2406.000000	6.049829
2404.000000	6.054097
2402.000000	6.058074
2400.000000	6.060972
2398.000000	6.063410
2396.000000	6.066426
2394.000000	6.068768
2392.000000	6.070907
2390.000000	6.074493
2388.000000	6.077823
2386.000000	6.079712
2384.000000	6.079375
2382.000000	6.073671
2380.000000	6.059947
2378.000000	6.041001
2376.000000	6.020990
2374.000000	5.997889
2372.000000	5.974540
2370.000000	5.951955
2368.000000	5.930339
2366.000000	5.912955
2364.000000	5.901277
2362.000000	5.894871
2360.000000	5.897331
2358.000000	5.904808
2356.000000	5.916854
2354.000000	5.937011
2352.000000	5.958230
2350.000000	5.968645
2348.000000	5.961840
2346.000000	5.941696
2344.000000	5.918281
2342.000000	5.899364
2340.000000	5.891315
2338.000000	5.895568
2336.000000	5.905955
2334.000000	5.914951
2332.000000	5.922437
2330.000000	5.931017
2328.000000	5.940652
2326.000000	5.949518
2324.000000	5.958255
2322.000000	5.966376
2320.000000	5.973533
2318.000000	5.981620
2316.000000	5.988502
2314.000000	5.992277
2312.000000	5.997224
2310.000000	6.001933
2308.000000	6.004855
2306.000000	6.006743
2304.000000	6.008091
2302.000000	6.007651
2300.000000	6.005925
2298.000000	6.005479
2296.000000	6.006416
2294.000000	6.006899
2292.000000	6.005693
2290.000000	6.003875
2288.000000	6.003872
2286.000000	6.003774
2284.000000	6.002690
2282.000000	6.000561
2280.000000	5.999057
2278.000000	5.997454
2276.000000	5.995022
2274.000000	5.991711
2272.000000	5.990085
2270.000000	5.989838
2268.000000	5.989742
2266.000000	5.987745
2264.000000	5.986030
2262.000000	5.985989
2260.000000	5.985302
2258.000000	5.982455
2256.000000	5.980711
2254.000000	5.980209
2252.000000	5.979272
2250.000000	5.977171
2248.000000	5.977461
2246.000000	5.978686
2244.000000	5.977754
2242.000000	5.976677
2240.000000	5.977101
2238.000000	5.977469
2236.000000	5.977405
2234.000000	5.977070
2232.000000	5.976455
2230.000000	5.975367
2228.000000	5.976085
2226.000000	5.976273
2224.000000	5.975244
2222.000000	5.974888
2220.000000	5.974776
2218.000000	5.974627
2216.000000	5.974767
2214.000000	5.974569
2212.000000	5.976131
2210.000000	5.976719
2208.000000	5.976784
2206.000000	5.977657
2204.000000	5.979408
2202.000000	5.980314
2200.000000	5.980145
2198.000000	5.979468
2196.000000	5.978589
2194.000000	5.979016
2192.000000	5.980469
2190.000000	5.981457
2188.000000	5.982081
2186.000000	5.982915
2184.000000	5.983759
2182.000000	5.984775
2180.000000	5.986086
2178.000000	5.985975
2176.000000	5.985225
2174.000000	5.986458
2172.000000	5.986793
2170.000000	5.986808
2168.000000	5.988754
2166.000000	5.990162
2164.000000	5.991418
2162.000000	5.993108
2160.000000	5.996500
2158.000000	5.999093
2156.000000	5.999641
2154.000000	5.999749
2152.000000	6.001742
2150.000000	6.004383
2148.000000	6.006794
2146.000000	6.009092
2144.000000	6.013012
2142.000000	6.016720
2140.000000	6.018647
2138.000000	6.019049
2136.000000	6.020678
2134.000000	6.023473
2132.000000	6.027270
2130.000000	6.031215
2128.000000	6.035058
2126.000000	6.037538
2124.000000	6.039010
2122.000000	6.043454
2120.000000	6.049033
2118.000000	6.052311
2116.000000	6.055770
2114.000000	6.059202
2112.000000	6.062599
2110.000000	6.068683
2108.000000	6.075204
2106.000000	6.079423
2104.000000	6.082982
2102.000000	6.088435
2100.000000	6.093895
2098.000000	6.098489
2096.000000	6.102958
2094.000000	6.108758
2092.000000	6.114824
2090.000000	6.119971
2088.000000	6.124148
2086.000000	6.130225
2084.000000	6.138178
2082.000000	6.144371
2080.000000	6.148910
2078.000000	6.154831
2076.000000	6.162333
2074.000000	6.166991
2072.000000	6.171229
2070.000000	6.177085
2068.000000	6.184493
2066.000000	6.191387
2064.000000	6.198083
2062.000000	6.205270
2060.000000	6.211122
2058.000000	6.217599
2056.000000	6.225483
2054.000000	6.232401
2052.000000	6.238486
2050.000000	6.245777
2048.000000	6.252609
2046.000000	6.257629
2044.000000	6.261842
2042.000000	6.266538
2040.000000	6.274007
2038.000000	6.282544
2036.000000	6.289655
2034.000000	6.294396
2032.000000	6.298991
2030.000000	6.302548
2028.000000	6.307009
2026.000000	6.312964
2024.000000	6.319785
2022.000000	6.325156
2020.000000	6.329849
2018.000000	6.334086
2016.000000	6.340017
2014.000000	6.346546
2012.000000	6.351770
2010.000000	6.357951
2008.000000	6.363229
2006.000000	6.366819
2004.000000	6.371640
2002.000000	6.375128
2000.000000	6.378779
1998.000000	6.384005
1996.000000	6.388879
1994.000000	6.388133
1992.000000	6.388241
1990.000000	6.394270
1988.000000	6.400685
1986.000000	6.405860
1984.000000	6.408575
1982.000000	6.410950
1980.000000	6.411469
1978.000000	6.411601
1976.000000	6.412916
1974.000000	6.414808
1972.000000	6.415948
1970.000000	6.415264
1968.000000	6.413308
1966.000000	6.413559
1964.000000	6.416552
1962.000000	6.415464
1960.000000	6.410263
1958.000000	6.411396
1956.000000	6.417410
1954.000000	6.418144
1952.000000	6.417067
1950.000000	6.416286
1948.000000	6.416467
1946.000000	6.415130
1944.000000	6.408813
1942.000000	6.407676
1940.000000	6.415586
1938.000000	6.418546
1936.000000	6.417495
1934.000000	6.416607
1932.000000	6.415878
1930.000000	6.413785
1928.000000	6.411160
1926.000000	6.405547
1924.000000	6.399307
1922.000000	6.396405
1920.000000	6.387494
1918.000000	6.379457
1916.000000	6.387573
1914.000000	6.391565
1912.000000	6.388101
1910.000000	6.380971
1908.000000	6.378105
1906.000000	6.376832
1904.000000	6.374413
1902.000000	6.369163
1900.000000	6.364341
1898.000000	6.359905
1896.000000	6.355652
1894.000000	6.352396
1892.000000	6.346715
1890.000000	6.339572
1888.000000	6.344161
1886.000000	6.344915
1884.000000	6.341366
1882.000000	6.339301
1880.000000	6.337194
1878.000000	6.333704
1876.000000	6.330267
1874.000000	6.325700
1872.000000	6.311807
1870.000000	6.288315
1868.000000	6.289399
1866.000000	6.305457
1864.000000	6.311127
1862.000000	6.307248
1860.000000	6.303677
1858.000000	6.300496
1856.000000	6.297629
1854.000000	6.291920
1852.000000	6.284857
1850.000000	6.274186
1848.000000	6.259564
1846.000000	6.223618
1844.000000	6.208150
1842.000000	6.236445
1840.000000	6.249081
1838.000000	6.241526
1836.000000	6.234545
1834.000000	6.224034
1832.000000	6.199414
1830.000000	6.181766
1828.000000	6.185961
1826.000000	6.179073
1824.000000	6.180089
1822.000000	6.183871
1820.000000	6.176283
1818.000000	6.165364
1816.000000	6.157771
1814.000000	6.145765
1812.000000	6.128257
1810.000000	6.118885
1808.000000	6.115215
1806.000000	6.104182
1804.000000	6.085026
1802.000000	6.060702
1800.000000	6.052018
1798.000000	6.050866
1796.000000	6.032417
1794.000000	5.987569
1792.000000	5.970989
1790.000000	5.992020
1788.000000	5.995372
1786.000000	5.976302
1784.000000	5.963426
1782.000000	5.951103
1780.000000	5.939799
1778.000000	5.929485
1776.000000	5.896600
1774.000000	5.831876
1772.000000	5.808813
1770.000000	5.831576
1768.000000	5.839955
1766.000000	5.847285
1764.000000	5.824583
1762.000000	5.797187
1760.000000	5.794818
1758.000000	5.780295
1756.000000	5.768489
1754.000000	5.745017
1752.000000	5.693923
1750.000000	5.680437
1748.000000	5.690138
1746.000000	5.689159
1744.000000	5.674051
1742.000000	5.643304
1740.000000	5.618409
1738.000000	5.611272
1736.000000	5.537548
1734.000000	5.487958
1732.000000	5.548437
1730.000000	5.590459
1728.000000	5.598836
1726.000000	5.594443
1724.000000	5.586079
1722.000000	5.569382
1720.000000	5.503010
1718.000000	5.432734
1716.000000	5.460129
1714.000000	5.512199
1712.000000	5.536102
1710.000000	5.529004
1708.000000	5.504551
1706.000000	5.478012
1704.000000	5.460790
1702.000000	5.378651
1700.000000	5.341068
1698.000000	5.358469
1696.000000	5.357297
1694.000000	5.435102
1692.000000	5.480213
1690.000000	5.470790
1688.000000	5.432412
1686.000000	5.329696
1684.000000	5.314363
1682.000000	5.406936
1680.000000	5.447247
1678.000000	5.429482
1676.000000	5.388866
1674.000000	5.395428
1672.000000	5.392113
1670.000000	5.367797
1668.000000	5.390417
1666.000000	5.410203
1664.000000	5.385249
1662.000000	5.380282
1660.000000	5.397734
1658.000000	5.386876
1656.000000	5.288201
1654.000000	5.142493
1652.000000	5.187280
1650.000000	5.297748
1648.000000	5.275266
1646.000000	5.265551
1644.000000	5.316192
1642.000000	5.336786
1640.000000	5.317362
1638.000000	5.253596
1636.000000	5.198968
1634.000000	5.243739
1632.000000	5.286364
1630.000000	5.272527
1628.000000	5.248480
1626.000000	5.223696
1624.000000	5.187831
1622.000000	5.176130
1620.000000	5.149096
1618.000000	5.069164
1616.000000	5.050110
1614.000000	5.080503
1612.000000	5.059705
1610.000000	5.024826
1608.000000	5.009059
1606.000000	5.014913
1604.000000	5.027431
1602.000000	5.041665
1600.000000	5.054975
1598.000000	5.066493
1596.000000	5.075931
1594.000000	5.083528
1592.000000	5.087035
1590.000000	5.088690
1588.000000	5.086916
1586.000000	5.082324
1584.000000	5.077777
1582.000000	5.076192
1580.000000	5.060576
1578.000000	4.993309
1576.000000	4.964659
1574.000000	5.026549
1572.000000	5.033379
1570.000000	5.006689
1568.000000	5.016146
1566.000000	5.018948
1564.000000	4.996284
1562.000000	4.902588
1560.000000	4.775374
1558.000000	4.802456
1556.000000	4.896260
1554.000000	4.945522
1552.000000	4.984313
1550.000000	5.003351
1548.000000	5.010057
1546.000000	4.993944
1544.000000	4.958518
1542.000000	4.899122
1540.000000	4.880975
1538.000000	4.977381
1536.000000	5.047637
1534.000000	5.045682
1532.000000	5.069498
1530.000000	5.085571
1528.000000	5.071050
1526.000000	5.054006
1524.000000	5.023962
1522.000000	4.977141
1520.000000	4.995361
1518.000000	5.019081
1516.000000	5.022069
1514.000000	5.024044
1512.000000	5.012287
1510.000000	4.966885
1508.000000	4.864206
1506.000000	4.834612
1504.000000	4.884439
1502.000000	4.841327
1500.000000	4.686516
1498.000000	4.485401
1496.000000	4.356375
1494.000000	4.361923
1492.000000	4.429591
1490.000000	4.527005
1488.000000	4.641852
1486.000000	4.737036
1484.000000	4.796794
1482.000000	4.823245
1480.000000	4.835173
1478.000000	4.823685
1476.000000	4.792876
1474.000000	4.751290
1472.000000	4.749697
1470.000000	4.780285
1468.000000	4.771348
1466.000000	4.730032
1464.000000	4.713598
1462.000000	4.702859
1460.000000	4.627248
1458.000000	4.507894
1456.000000	4.466761
1454.000000	4.474399
1452.000000	4.454638
1450.000000	4.463216
1448.000000	4.512693
1446.000000	4.571622
1444.000000	4.600363
1442.000000	4.605697
1440.000000	4.591688
1438.000000	4.554692
1436.000000	4.558572
1434.000000	4.599352
1432.000000	4.604617
1430.000000	4.601150
1428.000000	4.605905
1426.000000	4.605703
1424.000000	4.600249
1422.000000	4.579566
1420.000000	4.536000
1418.000000	4.542742
1416.000000	4.566632
1414.000000	4.562924
1412.000000	4.541361
1410.000000	4.510856
1408.000000	4.467268
1406.000000	4.420512
1404.000000	4.397255
1402.000000	4.400468
1400.000000	4.409468
1398.000000	4.434091
1396.000000	4.454671
1394.000000	4.478350
1392.000000	4.504253
1390.000000	4.500113
1388.000000	4.474517
1386.000000	4.463631
1384.000000	4.467498
1382.000000	4.478459
1380.000000	4.482655
1378.000000	4.477084
1376.000000	4.465631
1374.000000	4.458994
1372.000000	4.461352
1370.000000	4.458314
1368.000000	4.450575
1366.000000	4.441840
1364.000000	4.424379
1362.000000	4.412829
1360.000000	4.410612
1358.000000	4.405612
1356.000000	4.396753
1354.000000	4.386246
1352.000000	4.373791
1350.000000	4.361781
1348.000000	4.350648
1346.000000	4.338896
1344.000000	4.324350
1342.000000	4.305335
1340.000000	4.288442
1338.000000	4.283956
1336.000000	4.281644
1334.000000	4.275940
1332.000000	4.266545
1330.000000	4.255574
1328.000000	4.242281
1326.000000	4.228856
1324.000000	4.213300
1322.000000	4.196283
1320.000000	4.180058
1318.000000	4.165744
1316.000000	4.149413
1314.000000	4.129679
1312.000000	4.111663
1310.000000	4.094548
1308.000000	4.074422
1306.000000	4.054625
1304.000000	4.034607
1302.000000	4.015943
1300.000000	3.996150
1298.000000	3.975717
1296.000000	3.954082
1294.000000	3.933281
1292.000000	3.911130
1290.000000	3.888757
1288.000000	3.865479
1286.000000	3.842071
1284.000000	3.818004
1282.000000	3.792811
1280.000000	3.764606
1278.000000	3.735477
1276.000000	3.704654
1274.000000	3.669222
1272.000000	3.624165
1270.000000	3.569325
1268.000000	3.500291
1266.000000	3.418156
1264.000000	3.334905
1262.000000	3.271492
1260.000000	3.242000
1258.000000	3.246396
1256.000000	3.268853
1254.000000	3.287420
1252.000000	3.288550
1250.000000	3.276269
1248.000000	3.255800
1246.000000	3.229822
1244.000000	3.199812
1242.000000	3.171304
1240.000000	3.144556
1238.000000	3.116632
1236.000000	3.088822
1234.000000	3.064328
1232.000000	3.038105
1230.000000	3.010919
1228.000000	2.986989
1226.000000	2.962984
1224.000000	2.937164
1222.000000	2.910247
1220.000000	2.882724
1218.000000	2.854734
1216.000000	2.823395
1214.000000	2.792557
1212.000000	2.764905
1210.000000	2.741583
1208.000000	2.719599
1206.000000	2.696874
1204.000000	2.674971
1202.000000	2.653931
1200.000000	2.630333
1198.000000	2.606544
1196.000000	2.584200
1194.000000	2.560224
1192.000000	2.534709
1190.000000	2.509287
1188.000000	2.483740
1186.000000	2.457144
1184.000000	2.421758
1182.000000	2.379239
1180.000000	2.348912
1178.000000	2.336028
1176.000000	2.320574
1174.000000	2.298198
1172.000000	2.273129
1170.000000	2.246886
1168.000000	2.219308
1166.000000	2.190463
1164.000000	2.163164
1162.000000	2.138450
1160.000000	2.112891
1158.000000	2.086372
1156.000000	2.061511
1154.000000	2.038731
1152.000000	2.014979
1150.000000	1.991803
1148.000000	1.967164
1146.000000	1.941542
1144.000000	1.917054
1142.000000	1.895357
1140.000000	1.876544
1138.000000	1.858915
1136.000000	1.839529
1134.000000	1.817749
1132.000000	1.794357
1130.000000	1.770065
1128.000000	1.745452
1126.000000	1.721612
1124.000000	1.697272
1122.000000	1.672326
1120.000000	1.645351
1118.000000	1.617038
1116.000000	1.588763
1114.000000	1.561119
1112.000000	1.535099
1110.000000	1.509151
1108.000000	1.481489
1106.000000	1.455405
1104.000000	1.430542
1102.000000	1.406912
1100.000000	1.382241
1098.000000	1.357182
1096.000000	1.334035
1094.000000	1.312429
1092.000000	1.292369
1090.000000	1.272232
1088.000000	1.250790
1086.000000	1.232522
1084.000000	1.215521
1082.000000	1.195953
1080.000000	1.176631
1078.000000	1.159979
1076.000000	1.145838
1074.000000	1.133303
1072.000000	1.121144
1070.000000	1.108516
1068.000000	1.096194
1066.000000	1.084754
1064.000000	1.072454
1062.000000	1.060183
1060.000000	1.046779
1058.000000	1.030843
1056.000000	1.007733
1054.000000	0.977193
1052.000000	0.948630
1050.000000	0.932440
1048.000000	0.933069
1046.000000	0.942877
1044.000000	0.944147
1042.000000	0.935445
1040.000000	0.922508
1038.000000	0.910869
1036.000000	0.900051
1034.000000	0.887362
1032.000000	0.873605
1030.000000	0.859062
1028.000000	0.843197
1026.000000	0.828242
1024.000000	0.811650
1022.000000	0.793813
1020.000000	0.777714
1018.000000	0.763645
1016.000000	0.752485
1014.000000	0.744452
1012.000000	0.735433
1010.000000	0.725286
1008.000000	0.714507
1006.000000	0.703272
1004.000000	0.690345
1002.000000	0.677519
1000.000000	0.665287
