PE IR       SUBTECH     SPECTRUM    ASCII       PEDS        4.00        
   -1
TE110A_061_125K.ASC
20/05/14
14:35:16.00
20/05/14
14:35:27.00
Administrator
TE110A.Thursday, May 14 2020, 009.
1000.000000
#HDR
-1
-1
#GR
cm-1
A
1.0
0.0
6000.000000
-2.000000
2501
8
1.247723
1.195604
#DATA
6000.000000	1.228373
5998.000000	1.228900
5996.000000	1.228685
5994.000000	1.227664
5992.000000	1.226964
5990.000000	1.227198
5988.000000	1.227534
5986.000000	1.227532
5984.000000	1.227286
5982.000000	1.227164
5980.000000	1.227151
5978.000000	1.226948
5976.000000	1.226582
5974.000000	1.226374
5972.000000	1.226111
5970.000000	1.226473
5968.000000	1.226861
5966.000000	1.226700
5964.000000	1.226576
5962.000000	1.226771
5960.000000	1.227400
5958.000000	1.227483
5956.000000	1.227185
5954.000000	1.226951
5952.000000	1.226902
5950.000000	1.226678
5948.000000	1.226549
5946.000000	1.226728
5944.000000	1.226885
5942.000000	1.226757
5940.000000	1.226515
5938.000000	1.226141
5936.000000	1.225838
5934.000000	1.225685
5932.000000	1.225689
5930.000000	1.225571
5928.000000	1.225489
5926.000000	1.225644
5924.000000	1.225881
5922.000000	1.225978
5920.000000	1.225742
5918.000000	1.225619
5916.000000	1.225916
5914.000000	1.226176
5912.000000	1.226346
5910.000000	1.226362
5908.000000	1.226220
5906.000000	1.226303
5904.000000	1.226198
5902.000000	1.226010
5900.000000	1.225635
5898.000000	1.225317
5896.000000	1.225113
5894.000000	1.225261
5892.000000	1.225500
5890.000000	1.225836
5888.000000	1.225989
5886.000000	1.226009
5884.000000	1.226067
5882.000000	1.225810
5880.000000	1.225464
5878.000000	1.225184
5876.000000	1.225348
5874.000000	1.225575
5872.000000	1.225590
5870.000000	1.225251
5868.000000	1.224621
5866.000000	1.224207
5864.000000	1.224359
5862.000000	1.224958
5860.000000	1.225360
5858.000000	1.225419
5856.000000	1.225003
5854.000000	1.224543
5852.000000	1.224288
5850.000000	1.224189
5848.000000	1.224601
5846.000000	1.224963
5844.000000	1.224970
5842.000000	1.225014
5840.000000	1.224898
5838.000000	1.224725
5836.000000	1.224517
5834.000000	1.224272
5832.000000	1.224358
5830.000000	1.224441
5828.000000	1.224353
5826.000000	1.224206
5824.000000	1.224108
5822.000000	1.224108
5820.000000	1.224194
5818.000000	1.224396
5816.000000	1.224889
5814.000000	1.224916
5812.000000	1.224452
5810.000000	1.223753
5808.000000	1.223736
5806.000000	1.224091
5804.000000	1.224247
5802.000000	1.224315
5800.000000	1.224461
5798.000000	1.224477
5796.000000	1.224213
5794.000000	1.223961
5792.000000	1.223878
5790.000000	1.224003
5788.000000	1.224021
5786.000000	1.224106
5784.000000	1.224342
5782.000000	1.224392
5780.000000	1.224195
5778.000000	1.224015
5776.000000	1.223945
5774.000000	1.224222
5772.000000	1.224281
5770.000000	1.224030
5768.000000	1.223715
5766.000000	1.223294
5764.000000	1.223154
5762.000000	1.223102
5760.000000	1.223305
5758.000000	1.223761
5756.000000	1.224037
5754.000000	1.224230
5752.000000	1.224043
5750.000000	1.223586
5748.000000	1.223159
5746.000000	1.223135
5744.000000	1.223648
5742.000000	1.224015
5740.000000	1.223782
5738.000000	1.223418
5736.000000	1.223195
5734.000000	1.223059
5732.000000	1.222820
5730.000000	1.222609
5728.000000	1.222654
5726.000000	1.222642
5724.000000	1.222750
5722.000000	1.222905
5720.000000	1.222956
5718.000000	1.222877
5716.000000	1.222787
5714.000000	1.222907
5712.000000	1.222763
5710.000000	1.222142
5708.000000	1.221867
5706.000000	1.222052
5704.000000	1.222433
5702.000000	1.222606
5700.000000	1.222490
5698.000000	1.222423
5696.000000	1.222646
5694.000000	1.222821
5692.000000	1.222998
5690.000000	1.222897
5688.000000	1.223075
5686.000000	1.223205
5684.000000	1.222968
5682.000000	1.222642
5680.000000	1.222523
5678.000000	1.222488
5676.000000	1.222416
5674.000000	1.222115
5672.000000	1.221872
5670.000000	1.221989
5668.000000	1.222174
5666.000000	1.222437
5664.000000	1.222593
5662.000000	1.222872
5660.000000	1.222969
5658.000000	1.222731
5656.000000	1.222176
5654.000000	1.222011
5652.000000	1.221871
5650.000000	1.221783
5648.000000	1.221686
5646.000000	1.221589
5644.000000	1.221853
5642.000000	1.221879
5640.000000	1.221825
5638.000000	1.221702
5636.000000	1.221657
5634.000000	1.221645
5632.000000	1.221542
5630.000000	1.221656
5628.000000	1.221723
5626.000000	1.221568
5624.000000	1.221277
5622.000000	1.221361
5620.000000	1.221654
5618.000000	1.222033
5616.000000	1.221955
5614.000000	1.221712
5612.000000	1.221415
5610.000000	1.221097
5608.000000	1.220801
5606.000000	1.220749
5604.000000	1.221012
5602.000000	1.221210
5600.000000	1.221251
5598.000000	1.221314
5596.000000	1.221574
5594.000000	1.221934
5592.000000	1.221957
5590.000000	1.221805
5588.000000	1.221357
5586.000000	1.220920
5584.000000	1.220722
5582.000000	1.220980
5580.000000	1.221428
5578.000000	1.221548
5576.000000	1.221274
5574.000000	1.221025
5572.000000	1.220938
5570.000000	1.220879
5568.000000	1.220963
5566.000000	1.221048
5564.000000	1.220924
5562.000000	1.220789
5560.000000	1.220509
5558.000000	1.220278
5556.000000	1.220155
5554.000000	1.220440
5552.000000	1.220712
5550.000000	1.220730
5548.000000	1.220601
5546.000000	1.220652
5544.000000	1.220625
5542.000000	1.220385
5540.000000	1.220201
5538.000000	1.220433
5536.000000	1.220779
5534.000000	1.220834
5532.000000	1.220565
5530.000000	1.220356
5528.000000	1.220232
5526.000000	1.220113
5524.000000	1.220055
5522.000000	1.220083
5520.000000	1.220074
5518.000000	1.220113
5516.000000	1.220302
5514.000000	1.220415
5512.000000	1.220422
5510.000000	1.220264
5508.000000	1.220372
5506.000000	1.220613
5504.000000	1.220702
5502.000000	1.220387
5500.000000	1.220162
5498.000000	1.220075
5496.000000	1.219940
5494.000000	1.219719
5492.000000	1.219764
5490.000000	1.219847
5488.000000	1.219889
5486.000000	1.219948
5484.000000	1.220095
5482.000000	1.220048
5480.000000	1.219811
5478.000000	1.219495
5476.000000	1.219151
5474.000000	1.219035
5472.000000	1.219242
5470.000000	1.219316
5468.000000	1.219200
5466.000000	1.219046
5464.000000	1.219058
5462.000000	1.219139
5460.000000	1.219263
5458.000000	1.219449
5456.000000	1.219573
5454.000000	1.219526
5452.000000	1.219223
5450.000000	1.218693
5448.000000	1.218247
5446.000000	1.218305
5444.000000	1.218475
5442.000000	1.218685
5440.000000	1.218737
5438.000000	1.218730
5436.000000	1.218690
5434.000000	1.218774
5432.000000	1.218856
5430.000000	1.218813
5428.000000	1.218749
5426.000000	1.218957
5424.000000	1.219206
5422.000000	1.219349
5420.000000	1.219417
5418.000000	1.218979
5416.000000	1.218366
5414.000000	1.218199
5412.000000	1.218677
5410.000000	1.219164
5408.000000	1.219150
5406.000000	1.218872
5404.000000	1.218754
5402.000000	1.218834
5400.000000	1.218859
5398.000000	1.218579
5396.000000	1.218267
5394.000000	1.218194
5392.000000	1.218383
5390.000000	1.218595
5388.000000	1.218430
5386.000000	1.218323
5384.000000	1.218416
5382.000000	1.218588
5380.000000	1.218260
5378.000000	1.217820
5376.000000	1.217965
5374.000000	1.218403
5372.000000	1.218556
5370.000000	1.218461
5368.000000	1.218423
5366.000000	1.218269
5364.000000	1.218099
5362.000000	1.218185
5360.000000	1.218375
5358.000000	1.218227
5356.000000	1.217774
5354.000000	1.217581
5352.000000	1.217638
5350.000000	1.217711
5348.000000	1.217626
5346.000000	1.217578
5344.000000	1.217672
5342.000000	1.217482
5340.000000	1.217196
5338.000000	1.217260
5336.000000	1.217746
5334.000000	1.218129
5332.000000	1.218248
5330.000000	1.218083
5328.000000	1.217868
5326.000000	1.217853
5324.000000	1.218184
5322.000000	1.218369
5320.000000	1.218171
5318.000000	1.217981
5316.000000	1.217950
5314.000000	1.217810
5312.000000	1.217476
5310.000000	1.217164
5308.000000	1.217336
5306.000000	1.217655
5304.000000	1.217922
5302.000000	1.217992
5300.000000	1.217894
5298.000000	1.217865
5296.000000	1.217823
5294.000000	1.217636
5292.000000	1.217501
5290.000000	1.217543
5288.000000	1.217571
5286.000000	1.217372
5284.000000	1.217328
5282.000000	1.217432
5280.000000	1.217483
5278.000000	1.217560
5276.000000	1.217727
5274.000000	1.217582
5272.000000	1.217314
5270.000000	1.217151
5268.000000	1.216944
5266.000000	1.216620
5264.000000	1.216555
5262.000000	1.216873
5260.000000	1.217043
5258.000000	1.216844
5256.000000	1.216802
5254.000000	1.217097
5252.000000	1.217276
5250.000000	1.216980
5248.000000	1.216657
5246.000000	1.216765
5244.000000	1.217154
5242.000000	1.217440
5240.000000	1.217624
5238.000000	1.217418
5236.000000	1.217011
5234.000000	1.216827
5232.000000	1.217082
5230.000000	1.217311
5228.000000	1.217143
5226.000000	1.216994
5224.000000	1.217138
5222.000000	1.217289
5220.000000	1.217186
5218.000000	1.217092
5216.000000	1.217252
5214.000000	1.217292
5212.000000	1.216917
5210.000000	1.216556
5208.000000	1.216469
5206.000000	1.216785
5204.000000	1.217174
5202.000000	1.217244
5200.000000	1.216986
5198.000000	1.216796
5196.000000	1.216854
5194.000000	1.216915
5192.000000	1.216740
5190.000000	1.216447
5188.000000	1.216125
5186.000000	1.216173
5184.000000	1.216652
5182.000000	1.217062
5180.000000	1.217095
5178.000000	1.216938
5176.000000	1.216736
5174.000000	1.216583
5172.000000	1.216522
5170.000000	1.216645
5168.000000	1.216759
5166.000000	1.216669
5164.000000	1.216599
5162.000000	1.216702
5160.000000	1.216910
5158.000000	1.216929
5156.000000	1.216810
5154.000000	1.216801
5152.000000	1.216900
5150.000000	1.217068
5148.000000	1.217136
5146.000000	1.217022
5144.000000	1.216898
5142.000000	1.216874
5140.000000	1.216793
5138.000000	1.216672
5136.000000	1.216727
5134.000000	1.216918
5132.000000	1.216936
5130.000000	1.216827
5128.000000	1.216670
5126.000000	1.216506
5124.000000	1.216424
5122.000000	1.216589
5120.000000	1.216864
5118.000000	1.217003
5116.000000	1.217066
5114.000000	1.217195
5112.000000	1.217080
5110.000000	1.216745
5108.000000	1.216485
5106.000000	1.216482
5104.000000	1.216521
5102.000000	1.216580
5100.000000	1.216682
5098.000000	1.216714
5096.000000	1.216577
5094.000000	1.216487
5092.000000	1.216509
5090.000000	1.216571
5088.000000	1.216516
5086.000000	1.216431
5084.000000	1.216449
5082.000000	1.216608
5080.000000	1.216691
5078.000000	1.216574
5076.000000	1.216404
5074.000000	1.216488
5072.000000	1.216583
5070.000000	1.216461
5068.000000	1.216302
5066.000000	1.216495
5064.000000	1.216851
5062.000000	1.216897
5060.000000	1.216683
5058.000000	1.216502
5056.000000	1.216481
5054.000000	1.216536
5052.000000	1.216704
5050.000000	1.216939
5048.000000	1.217084
5046.000000	1.217074
5044.000000	1.217050
5042.000000	1.217054
5040.000000	1.216776
5038.000000	1.216408
5036.000000	1.216395
5034.000000	1.216603
5032.000000	1.216729
5030.000000	1.216822
5028.000000	1.216806
5026.000000	1.216654
5024.000000	1.216682
5022.000000	1.216941
5020.000000	1.216971
5018.000000	1.216908
5016.000000	1.216869
5014.000000	1.216782
5012.000000	1.216676
5010.000000	1.216683
5008.000000	1.216641
5006.000000	1.216471
5004.000000	1.216508
5002.000000	1.216700
5000.000000	1.216876
4998.000000	1.216908
4996.000000	1.216734
4994.000000	1.216485
4992.000000	1.216370
4990.000000	1.216451
4988.000000	1.216520
4986.000000	1.216582
4984.000000	1.216680
4982.000000	1.216718
4980.000000	1.216609
4978.000000	1.216465
4976.000000	1.216468
4974.000000	1.216466
4972.000000	1.216312
4970.000000	1.216217
4968.000000	1.216371
4966.000000	1.216482
4964.000000	1.216429
4962.000000	1.216365
4960.000000	1.216433
4958.000000	1.216583
4956.000000	1.216778
4954.000000	1.216878
4952.000000	1.216760
4950.000000	1.216605
4948.000000	1.216601
4946.000000	1.216659
4944.000000	1.216653
4942.000000	1.216704
4940.000000	1.216746
4938.000000	1.216796
4936.000000	1.216815
4934.000000	1.216737
4932.000000	1.216618
4930.000000	1.216659
4928.000000	1.216629
4926.000000	1.216523
4924.000000	1.216535
4922.000000	1.216712
4920.000000	1.216828
4918.000000	1.216785
4916.000000	1.216647
4914.000000	1.216531
4912.000000	1.216604
4910.000000	1.216697
4908.000000	1.216722
4906.000000	1.216674
4904.000000	1.216606
4902.000000	1.216656
4900.000000	1.216760
4898.000000	1.216825
4896.000000	1.216705
4894.000000	1.216538
4892.000000	1.216437
4890.000000	1.216511
4888.000000	1.216596
4886.000000	1.216614
4884.000000	1.216753
4882.000000	1.216792
4880.000000	1.216629
4878.000000	1.216505
4876.000000	1.216601
4874.000000	1.216547
4872.000000	1.216294
4870.000000	1.216303
4868.000000	1.216508
4866.000000	1.216620
4864.000000	1.216573
4862.000000	1.216527
4860.000000	1.216539
4858.000000	1.216570
4856.000000	1.216693
4854.000000	1.216694
4852.000000	1.216679
4850.000000	1.216814
4848.000000	1.216877
4846.000000	1.216790
4844.000000	1.216798
4842.000000	1.216919
4840.000000	1.216951
4838.000000	1.216880
4836.000000	1.216737
4834.000000	1.216597
4832.000000	1.216656
4830.000000	1.216797
4828.000000	1.216890
4826.000000	1.216870
4824.000000	1.216769
4822.000000	1.216529
4820.000000	1.216411
4818.000000	1.216614
4816.000000	1.216848
4814.000000	1.216845
4812.000000	1.216731
4810.000000	1.216819
4808.000000	1.216890
4806.000000	1.216805
4804.000000	1.216611
4802.000000	1.216506
4800.000000	1.216506
4798.000000	1.216502
4796.000000	1.216528
4794.000000	1.216572
4792.000000	1.216584
4790.000000	1.216578
4788.000000	1.216575
4786.000000	1.216545
4784.000000	1.216485
4782.000000	1.216364
4780.000000	1.216334
4778.000000	1.216510
4776.000000	1.216832
4774.000000	1.217055
4772.000000	1.216964
4770.000000	1.216703
4768.000000	1.216537
4766.000000	1.216554
4764.000000	1.216574
4762.000000	1.216639
4760.000000	1.216676
4758.000000	1.216726
4756.000000	1.216846
4754.000000	1.216967
4752.000000	1.216842
4750.000000	1.216658
4748.000000	1.216574
4746.000000	1.216619
4744.000000	1.216686
4742.000000	1.216698
4740.000000	1.216642
4738.000000	1.216609
4736.000000	1.216576
4734.000000	1.216517
4732.000000	1.216502
4730.000000	1.216517
4728.000000	1.216457
4726.000000	1.216444
4724.000000	1.216476
4722.000000	1.216512
4720.000000	1.216496
4718.000000	1.216502
4716.000000	1.216591
4714.000000	1.216715
4712.000000	1.216629
4710.000000	1.216436
4708.000000	1.216464
4706.000000	1.216621
4704.000000	1.216633
4702.000000	1.216537
4700.000000	1.216554
4698.000000	1.216532
4696.000000	1.216288
4694.000000	1.216028
4692.000000	1.216056
4690.000000	1.216140
4688.000000	1.216147
4686.000000	1.216232
4684.000000	1.216353
4682.000000	1.216366
4680.000000	1.216374
4678.000000	1.216434
4676.000000	1.216390
4674.000000	1.216340
4672.000000	1.216354
4670.000000	1.216395
4668.000000	1.216483
4666.000000	1.216572
4664.000000	1.216523
4662.000000	1.216386
4660.000000	1.216300
4658.000000	1.216284
4656.000000	1.216340
4654.000000	1.216360
4652.000000	1.216383
4650.000000	1.216494
4648.000000	1.216573
4646.000000	1.216564
4644.000000	1.216536
4642.000000	1.216425
4640.000000	1.216258
4638.000000	1.216196
4636.000000	1.216297
4634.000000	1.216369
4632.000000	1.216395
4630.000000	1.216451
4628.000000	1.216469
4626.000000	1.216401
4624.000000	1.216372
4622.000000	1.216441
4620.000000	1.216641
4618.000000	1.216780
4616.000000	1.216612
4614.000000	1.216417
4612.000000	1.216500
4610.000000	1.216650
4608.000000	1.216626
4606.000000	1.216587
4604.000000	1.216546
4602.000000	1.216520
4600.000000	1.216566
4598.000000	1.216588
4596.000000	1.216442
4594.000000	1.216209
4592.000000	1.216145
4590.000000	1.216275
4588.000000	1.216448
4586.000000	1.216413
4584.000000	1.216243
4582.000000	1.216202
4580.000000	1.216456
4578.000000	1.216676
4576.000000	1.216625
4574.000000	1.216485
4572.000000	1.216444
4570.000000	1.216473
4568.000000	1.216609
4566.000000	1.216723
4564.000000	1.216680
4562.000000	1.216524
4560.000000	1.216454
4558.000000	1.216502
4556.000000	1.216515
4554.000000	1.216374
4552.000000	1.216251
4550.000000	1.216298
4548.000000	1.216427
4546.000000	1.216454
4544.000000	1.216405
4542.000000	1.216414
4540.000000	1.216472
4538.000000	1.216523
4536.000000	1.216528
4534.000000	1.216403
4532.000000	1.216261
4530.000000	1.216250
4528.000000	1.216296
4526.000000	1.216350
4524.000000	1.216378
4522.000000	1.216287
4520.000000	1.216204
4518.000000	1.216244
4516.000000	1.216280
4514.000000	1.216270
4512.000000	1.216247
4510.000000	1.216273
4508.000000	1.216372
4506.000000	1.216396
4504.000000	1.216332
4502.000000	1.216292
4500.000000	1.216255
4498.000000	1.216237
4496.000000	1.216300
4494.000000	1.216337
4492.000000	1.216315
4490.000000	1.216349
4488.000000	1.216408
4486.000000	1.216428
4484.000000	1.216431
4482.000000	1.216382
4480.000000	1.216305
4478.000000	1.216362
4476.000000	1.216430
4474.000000	1.216422
4472.000000	1.216427
4470.000000	1.216455
4468.000000	1.216474
4466.000000	1.216506
4464.000000	1.216446
4462.000000	1.216304
4460.000000	1.216304
4458.000000	1.216501
4456.000000	1.216622
4454.000000	1.216499
4452.000000	1.216311
4450.000000	1.216192
4448.000000	1.216151
4446.000000	1.216231
4444.000000	1.216367
4442.000000	1.216436
4440.000000	1.216396
4438.000000	1.216335
4436.000000	1.216275
4434.000000	1.216283
4432.000000	1.216327
4430.000000	1.216288
4428.000000	1.216219
4426.000000	1.216285
4424.000000	1.216408
4422.000000	1.216445
4420.000000	1.216413
4418.000000	1.216370
4416.000000	1.216299
4414.000000	1.216208
4412.000000	1.216214
4410.000000	1.216268
4408.000000	1.216257
4406.000000	1.216220
4404.000000	1.216206
4402.000000	1.216264
4400.000000	1.216363
4398.000000	1.216333
4396.000000	1.216220
4394.000000	1.216271
4392.000000	1.216351
4390.000000	1.216328
4388.000000	1.216256
4386.000000	1.216138
4384.000000	1.216038
4382.000000	1.216077
4380.000000	1.216164
4378.000000	1.216200
4376.000000	1.216155
4374.000000	1.216116
4372.000000	1.216187
4370.000000	1.216237
4368.000000	1.216186
4366.000000	1.216155
4364.000000	1.216223
4362.000000	1.216331
4360.000000	1.216311
4358.000000	1.216234
4356.000000	1.216258
4354.000000	1.216300
4352.000000	1.216272
4350.000000	1.216241
4348.000000	1.216212
4346.000000	1.216151
4344.000000	1.216079
4342.000000	1.216065
4340.000000	1.216019
4338.000000	1.215942
4336.000000	1.215978
4334.000000	1.215994
4332.000000	1.215859
4330.000000	1.215882
4328.000000	1.216058
4326.000000	1.216088
4324.000000	1.215921
4322.000000	1.215827
4320.000000	1.215828
4318.000000	1.215832
4316.000000	1.215870
4314.000000	1.215929
4312.000000	1.215884
4310.000000	1.215848
4308.000000	1.215898
4306.000000	1.215874
4304.000000	1.215761
4302.000000	1.215764
4300.000000	1.215836
4298.000000	1.215771
4296.000000	1.215671
4294.000000	1.215760
4292.000000	1.215933
4290.000000	1.215919
4288.000000	1.215746
4286.000000	1.215704
4284.000000	1.215816
4282.000000	1.215903
4280.000000	1.215892
4278.000000	1.215770
4276.000000	1.215555
4274.000000	1.215448
4272.000000	1.215498
4270.000000	1.215563
4268.000000	1.215573
4266.000000	1.215602
4264.000000	1.215676
4262.000000	1.215788
4260.000000	1.215827
4258.000000	1.215734
4256.000000	1.215585
4254.000000	1.215506
4252.000000	1.215526
4250.000000	1.215572
4248.000000	1.215535
4246.000000	1.215547
4244.000000	1.215583
4242.000000	1.215509
4240.000000	1.215487
4238.000000	1.215577
4236.000000	1.215525
4234.000000	1.215340
4232.000000	1.215196
4230.000000	1.215182
4228.000000	1.215214
4226.000000	1.215205
4224.000000	1.215197
4222.000000	1.215227
4220.000000	1.215259
4218.000000	1.215280
4216.000000	1.215192
4214.000000	1.215094
4212.000000	1.215067
4210.000000	1.215093
4208.000000	1.215211
4206.000000	1.215298
4204.000000	1.215206
4202.000000	1.215030
4200.000000	1.214887
4198.000000	1.214846
4196.000000	1.214787
4194.000000	1.214754
4192.000000	1.214943
4190.000000	1.215173
4188.000000	1.215234
4186.000000	1.215183
4184.000000	1.215061
4182.000000	1.214985
4180.000000	1.215024
4178.000000	1.215092
4176.000000	1.215105
4174.000000	1.215019
4172.000000	1.214854
4170.000000	1.214744
4168.000000	1.214762
4166.000000	1.214783
4164.000000	1.214769
4162.000000	1.214794
4160.000000	1.214763
4158.000000	1.214666
4156.000000	1.214604
4154.000000	1.214656
4152.000000	1.214743
4150.000000	1.214707
4148.000000	1.214627
4146.000000	1.214654
4144.000000	1.214644
4142.000000	1.214529
4140.000000	1.214422
4138.000000	1.214370
4136.000000	1.214318
4134.000000	1.214315
4132.000000	1.214288
4130.000000	1.214191
4128.000000	1.214156
4126.000000	1.214191
4124.000000	1.214140
4122.000000	1.214066
4120.000000	1.214060
4118.000000	1.214038
4116.000000	1.213921
4114.000000	1.213883
4112.000000	1.213986
4110.000000	1.214018
4108.000000	1.213884
4106.000000	1.213705
4104.000000	1.213625
4102.000000	1.213720
4100.000000	1.213813
4098.000000	1.213818
4096.000000	1.213806
4094.000000	1.213787
4092.000000	1.213753
4090.000000	1.213729
4088.000000	1.213728
4086.000000	1.213784
4084.000000	1.213827
4082.000000	1.213752
4080.000000	1.213629
4078.000000	1.213624
4076.000000	1.213681
4074.000000	1.213680
4072.000000	1.213606
4070.000000	1.213570
4068.000000	1.213616
4066.000000	1.213570
4064.000000	1.213374
4062.000000	1.213307
4060.000000	1.213366
4058.000000	1.213316
4056.000000	1.213220
4054.000000	1.213177
4052.000000	1.213180
4050.000000	1.213214
4048.000000	1.213151
4046.000000	1.213035
4044.000000	1.213039
4042.000000	1.213048
4040.000000	1.212897
4038.000000	1.212761
4036.000000	1.212758
4034.000000	1.212801
4032.000000	1.212797
4030.000000	1.212758
4028.000000	1.212688
4026.000000	1.212584
4024.000000	1.212515
4022.000000	1.212544
4020.000000	1.212586
4018.000000	1.212575
4016.000000	1.212518
4014.000000	1.212481
4012.000000	1.212433
4010.000000	1.212368
4008.000000	1.212381
4006.000000	1.212474
4004.000000	1.212495
4002.000000	1.212444
4000.000000	1.212421
3998.000000	1.212387
3996.000000	1.212319
3994.000000	1.212271
3992.000000	1.212209
3990.000000	1.212278
3988.000000	1.212351
3986.000000	1.212145
3984.000000	1.211892
3982.000000	1.211803
3980.000000	1.211788
3978.000000	1.211824
3976.000000	1.211910
3974.000000	1.211960
3972.000000	1.211907
3970.000000	1.211842
3968.000000	1.211845
3966.000000	1.211859
3964.000000	1.211774
3962.000000	1.211678
3960.000000	1.211660
3958.000000	1.211692
3956.000000	1.211633
3954.000000	1.211306
3952.000000	1.210898
3950.000000	1.210801
3948.000000	1.210956
3946.000000	1.210923
3944.000000	1.210741
3942.000000	1.211001
3940.000000	1.211364
3938.000000	1.211189
3936.000000	1.210626
3934.000000	1.210082
3932.000000	1.210181
3930.000000	1.210771
3928.000000	1.210763
3926.000000	1.210350
3924.000000	1.210300
3922.000000	1.210118
3920.000000	1.209581
3918.000000	1.209659
3916.000000	1.210533
3914.000000	1.211030
3912.000000	1.210763
3910.000000	1.210275
3908.000000	1.209046
3906.000000	1.207243
3904.000000	1.206789
3902.000000	1.207760
3900.000000	1.209062
3898.000000	1.210353
3896.000000	1.210288
3894.000000	1.208587
3892.000000	1.208036
3890.000000	1.209014
3888.000000	1.208118
3886.000000	1.207284
3884.000000	1.208681
3882.000000	1.208963
3880.000000	1.209094
3878.000000	1.209776
3876.000000	1.208818
3874.000000	1.207300
3872.000000	1.205797
3870.000000	1.206220
3868.000000	1.208177
3866.000000	1.208009
3864.000000	1.207839
3862.000000	1.209037
3860.000000	1.209185
3858.000000	1.205706
3856.000000	1.198958
3854.000000	1.198460
3852.000000	1.206897
3850.000000	1.212110
3848.000000	1.210628
3846.000000	1.208215
3844.000000	1.206978
3842.000000	1.205557
3840.000000	1.203160
3838.000000	1.203553
3836.000000	1.207017
3834.000000	1.208331
3832.000000	1.208104
3830.000000	1.208515
3828.000000	1.208302
3826.000000	1.207424
3824.000000	1.205296
3822.000000	1.204037
3820.000000	1.205313
3818.000000	1.204716
3816.000000	1.205270
3814.000000	1.209210
3812.000000	1.209790
3810.000000	1.206572
3808.000000	1.204642
3806.000000	1.205744
3804.000000	1.204729
3802.000000	1.203492
3800.000000	1.206850
3798.000000	1.208649
3796.000000	1.208128
3794.000000	1.208661
3792.000000	1.208825
3790.000000	1.208500
3788.000000	1.208082
3786.000000	1.207726
3784.000000	1.207648
3782.000000	1.207168
3780.000000	1.206971
3778.000000	1.207926
3776.000000	1.208445
3774.000000	1.207560
3772.000000	1.206066
3770.000000	1.205835
3768.000000	1.206646
3766.000000	1.207050
3764.000000	1.207198
3762.000000	1.206327
3760.000000	1.205478
3758.000000	1.205978
3756.000000	1.204719
3754.000000	1.200447
3752.000000	1.198332
3750.000000	1.201248
3748.000000	1.202278
3746.000000	1.198927
3744.000000	1.201682
3742.000000	1.207676
3740.000000	1.205964
3738.000000	1.201767
3736.000000	1.201418
3734.000000	1.203146
3732.000000	1.205031
3730.000000	1.206209
3728.000000	1.205310
3726.000000	1.204555
3724.000000	1.204958
3722.000000	1.205336
3720.000000	1.205765
3718.000000	1.205844
3716.000000	1.204445
3714.000000	1.201787
3712.000000	1.201586
3710.000000	1.204404
3708.000000	1.206245
3706.000000	1.205781
3704.000000	1.204356
3702.000000	1.204066
3700.000000	1.205091
3698.000000	1.205538
3696.000000	1.205028
3694.000000	1.203554
3692.000000	1.200817
3690.000000	1.199113
3688.000000	1.202112
3686.000000	1.206007
3684.000000	1.205707
3682.000000	1.203903
3680.000000	1.201881
3678.000000	1.198430
3676.000000	1.197891
3674.000000	1.200779
3672.000000	1.200306
3670.000000	1.200657
3668.000000	1.204137
3666.000000	1.204914
3664.000000	1.203899
3662.000000	1.203359
3660.000000	1.202257
3658.000000	1.200575
3656.000000	1.201002
3654.000000	1.201207
3652.000000	1.197743
3650.000000	1.196308
3648.000000	1.200057
3646.000000	1.203318
3644.000000	1.203267
3642.000000	1.202362
3640.000000	1.202023
3638.000000	1.201750
3636.000000	1.201223
3634.000000	1.200319
3632.000000	1.197630
3630.000000	1.195604
3628.000000	1.198975
3626.000000	1.202438
3624.000000	1.201421
3622.000000	1.198976
3620.000000	1.198135
3618.000000	1.199541
3616.000000	1.200059
3614.000000	1.199070
3612.000000	1.198516
3610.000000	1.198374
3608.000000	1.199413
3606.000000	1.200710
3604.000000	1.200420
3602.000000	1.199649
3600.000000	1.199466
3598.000000	1.199334
3596.000000	1.199138
3594.000000	1.199449
3592.000000	1.199221
3590.000000	1.197774
3588.000000	1.197543
3586.000000	1.199211
3584.000000	1.200060
3582.000000	1.199664
3580.000000	1.199350
3578.000000	1.199351
3576.000000	1.199391
3574.000000	1.199373
3572.000000	1.198886
3570.000000	1.197626
3568.000000	1.197206
3566.000000	1.198565
3564.000000	1.199596
3562.000000	1.199575
3560.000000	1.199484
3558.000000	1.199512
3556.000000	1.199341
3554.000000	1.198999
3552.000000	1.198989
3550.000000	1.199015
3548.000000	1.198724
3546.000000	1.198886
3544.000000	1.199495
3542.000000	1.199850
3540.000000	1.199808
3538.000000	1.199654
3536.000000	1.199836
3534.000000	1.200119
3532.000000	1.199966
3530.000000	1.199645
3528.000000	1.199674
3526.000000	1.199893
3524.000000	1.200096
3522.000000	1.200424
3520.000000	1.200673
3518.000000	1.200886
3516.000000	1.201122
3514.000000	1.201124
3512.000000	1.201025
3510.000000	1.201245
3508.000000	1.201596
3506.000000	1.201531
3504.000000	1.201500
3502.000000	1.201971
3500.000000	1.202338
3498.000000	1.202378
3496.000000	1.202558
3494.000000	1.202935
3492.000000	1.203210
3490.000000	1.203366
3488.000000	1.203631
3486.000000	1.204000
3484.000000	1.204224
3482.000000	1.204429
3480.000000	1.204821
3478.000000	1.205183
3476.000000	1.205450
3474.000000	1.205765
3472.000000	1.206104
3470.000000	1.206435
3468.000000	1.206743
3466.000000	1.207034
3464.000000	1.207379
3462.000000	1.207784
3460.000000	1.208204
3458.000000	1.208589
3456.000000	1.208912
3454.000000	1.209267
3452.000000	1.209609
3450.000000	1.209851
3448.000000	1.210165
3446.000000	1.210660
3444.000000	1.211054
3442.000000	1.211402
3440.000000	1.211851
3438.000000	1.212242
3436.000000	1.212627
3434.000000	1.213135
3432.000000	1.213587
3430.000000	1.213897
3428.000000	1.214243
3426.000000	1.214603
3424.000000	1.214857
3422.000000	1.215101
3420.000000	1.215542
3418.000000	1.215962
3416.000000	1.216118
3414.000000	1.216223
3412.000000	1.216459
3410.000000	1.216750
3408.000000	1.216980
3406.000000	1.217223
3404.000000	1.217408
3402.000000	1.217497
3400.000000	1.217668
3398.000000	1.217940
3396.000000	1.218174
3394.000000	1.218274
3392.000000	1.218374
3390.000000	1.218608
3388.000000	1.218823
3386.000000	1.218906
3384.000000	1.218991
3382.000000	1.219103
3380.000000	1.219240
3378.000000	1.219373
3376.000000	1.219402
3374.000000	1.219470
3372.000000	1.219557
3370.000000	1.219574
3368.000000	1.219641
3366.000000	1.219784
3364.000000	1.219924
3362.000000	1.220016
3360.000000	1.220124
3358.000000	1.220214
3356.000000	1.220318
3354.000000	1.220421
3352.000000	1.220427
3350.000000	1.220458
3348.000000	1.220537
3346.000000	1.220609
3344.000000	1.220647
3342.000000	1.220658
3340.000000	1.220722
3338.000000	1.220791
3336.000000	1.220805
3334.000000	1.220876
3332.000000	1.221096
3330.000000	1.221304
3328.000000	1.221305
3326.000000	1.221187
3324.000000	1.221211
3322.000000	1.221311
3320.000000	1.221439
3318.000000	1.221568
3316.000000	1.221564
3314.000000	1.221482
3312.000000	1.221448
3310.000000	1.221505
3308.000000	1.221580
3306.000000	1.221649
3304.000000	1.221737
3302.000000	1.221852
3300.000000	1.221917
3298.000000	1.221885
3296.000000	1.221895
3294.000000	1.221923
3292.000000	1.221943
3290.000000	1.222096
3288.000000	1.222245
3286.000000	1.222233
3284.000000	1.222161
3282.000000	1.222221
3280.000000	1.222334
3278.000000	1.222378
3276.000000	1.222405
3274.000000	1.222445
3272.000000	1.222504
3270.000000	1.222571
3268.000000	1.222591
3266.000000	1.222600
3264.000000	1.222708
3262.000000	1.222828
3260.000000	1.222786
3258.000000	1.222735
3256.000000	1.222845
3254.000000	1.222978
3252.000000	1.222977
3250.000000	1.222909
3248.000000	1.222899
3246.000000	1.222972
3244.000000	1.223057
3242.000000	1.223163
3240.000000	1.223296
3238.000000	1.223376
3236.000000	1.223379
3234.000000	1.223361
3232.000000	1.223423
3230.000000	1.223475
3228.000000	1.223503
3226.000000	1.223656
3224.000000	1.223784
3222.000000	1.223752
3220.000000	1.223773
3218.000000	1.223828
3216.000000	1.223816
3214.000000	1.223904
3212.000000	1.223986
3210.000000	1.224000
3208.000000	1.224050
3206.000000	1.224074
3204.000000	1.224113
3202.000000	1.224151
3200.000000	1.224176
3198.000000	1.224182
3196.000000	1.224224
3194.000000	1.224293
3192.000000	1.224348
3190.000000	1.224453
3188.000000	1.224436
3186.000000	1.224357
3184.000000	1.224405
3182.000000	1.224488
3180.000000	1.224433
3178.000000	1.224428
3176.000000	1.224594
3174.000000	1.224681
3172.000000	1.224654
3170.000000	1.224648
3168.000000	1.224733
3166.000000	1.224910
3164.000000	1.224976
3162.000000	1.224980
3160.000000	1.225019
3158.000000	1.224989
3156.000000	1.225069
3154.000000	1.225139
3152.000000	1.225019
3150.000000	1.225073
3148.000000	1.225268
3146.000000	1.225365
3144.000000	1.225323
3142.000000	1.225289
3140.000000	1.225402
3138.000000	1.225456
3136.000000	1.225400
3134.000000	1.225401
3132.000000	1.225507
3130.000000	1.225587
3128.000000	1.225616
3126.000000	1.225647
3124.000000	1.225674
3122.000000	1.225641
3120.000000	1.225541
3118.000000	1.225472
3116.000000	1.225506
3114.000000	1.225672
3112.000000	1.225814
3110.000000	1.225799
3108.000000	1.225751
3106.000000	1.225685
3104.000000	1.225718
3102.000000	1.225746
3100.000000	1.225649
3098.000000	1.225598
3096.000000	1.225588
3094.000000	1.225543
3092.000000	1.225454
3090.000000	1.225382
3088.000000	1.225420
3086.000000	1.225388
3084.000000	1.225205
3082.000000	1.225136
3080.000000	1.225158
3078.000000	1.225167
3076.000000	1.225161
3074.000000	1.225052
3072.000000	1.225000
3070.000000	1.224950
3068.000000	1.224760
3066.000000	1.224683
3064.000000	1.224746
3062.000000	1.224732
3060.000000	1.224643
3058.000000	1.224594
3056.000000	1.224565
3054.000000	1.224611
3052.000000	1.224602
3050.000000	1.224498
3048.000000	1.224487
3046.000000	1.224417
3044.000000	1.224283
3042.000000	1.224219
3040.000000	1.224200
3038.000000	1.224201
3036.000000	1.224186
3034.000000	1.224057
3032.000000	1.223901
3030.000000	1.223827
3028.000000	1.223785
3026.000000	1.223739
3024.000000	1.223661
3022.000000	1.223631
3020.000000	1.223748
3018.000000	1.223998
3016.000000	1.224381
3014.000000	1.224612
3012.000000	1.224613
3010.000000	1.224556
3008.000000	1.224356
3006.000000	1.224101
3004.000000	1.223985
3002.000000	1.223956
3000.000000	1.223909
2998.000000	1.223794
2996.000000	1.223690
2994.000000	1.223643
2992.000000	1.223584
2990.000000	1.223563
2988.000000	1.223461
2986.000000	1.223344
2984.000000	1.223320
2982.000000	1.223313
2980.000000	1.223279
2978.000000	1.223217
2976.000000	1.223210
2974.000000	1.223186
2972.000000	1.223109
2970.000000	1.223143
2968.000000	1.223457
2966.000000	1.224027
2964.000000	1.224715
2962.000000	1.225331
2960.000000	1.225665
2958.000000	1.225608
2956.000000	1.225214
2954.000000	1.224634
2952.000000	1.224140
2950.000000	1.223719
2948.000000	1.223219
2946.000000	1.222707
2944.000000	1.222330
2942.000000	1.222115
2940.000000	1.221898
2938.000000	1.221756
2936.000000	1.221835
2934.000000	1.221957
2932.000000	1.221940
2930.000000	1.221902
2928.000000	1.222162
2926.000000	1.222833
2924.000000	1.223658
2922.000000	1.224459
2920.000000	1.225089
2918.000000	1.225341
2916.000000	1.225328
2914.000000	1.225147
2912.000000	1.224743
2910.000000	1.224312
2908.000000	1.224054
2906.000000	1.223858
2904.000000	1.223744
2902.000000	1.223627
2900.000000	1.223427
2898.000000	1.223272
2896.000000	1.223244
2894.000000	1.223181
2892.000000	1.223090
2890.000000	1.222975
2888.000000	1.222808
2886.000000	1.222557
2884.000000	1.222324
2882.000000	1.222175
2880.000000	1.222029
2878.000000	1.221874
2876.000000	1.221705
2874.000000	1.221429
2872.000000	1.221133
2870.000000	1.220851
2868.000000	1.220480
2866.000000	1.220204
2864.000000	1.220295
2862.000000	1.220769
2860.000000	1.221568
2858.000000	1.222300
2856.000000	1.222573
2854.000000	1.222623
2852.000000	1.222782
2850.000000	1.223000
2848.000000	1.223223
2846.000000	1.223180
2844.000000	1.222813
2842.000000	1.222552
2840.000000	1.222420
2838.000000	1.222218
2836.000000	1.222098
2834.000000	1.222070
2832.000000	1.221929
2830.000000	1.221784
2828.000000	1.221760
2826.000000	1.221784
2824.000000	1.221770
2822.000000	1.221711
2820.000000	1.221638
2818.000000	1.221574
2816.000000	1.221555
2814.000000	1.221502
2812.000000	1.221448
2810.000000	1.221382
2808.000000	1.221409
2806.000000	1.221478
2804.000000	1.221392
2802.000000	1.221297
2800.000000	1.221236
2798.000000	1.221133
2796.000000	1.221127
2794.000000	1.221157
2792.000000	1.221175
2790.000000	1.221221
2788.000000	1.221346
2786.000000	1.221424
2784.000000	1.221395
2782.000000	1.221318
2780.000000	1.221289
2778.000000	1.221274
2776.000000	1.221181
2774.000000	1.221078
2772.000000	1.221087
2770.000000	1.221118
2768.000000	1.221071
2766.000000	1.221068
2764.000000	1.221103
2762.000000	1.221051
2760.000000	1.221009
2758.000000	1.220999
2756.000000	1.220988
2754.000000	1.221017
2752.000000	1.221048
2750.000000	1.221069
2748.000000	1.221096
2746.000000	1.221090
2744.000000	1.221065
2742.000000	1.221080
2740.000000	1.221155
2738.000000	1.221181
2736.000000	1.221186
2734.000000	1.221240
2732.000000	1.221287
2730.000000	1.221287
2728.000000	1.221300
2726.000000	1.221302
2724.000000	1.221351
2722.000000	1.221391
2720.000000	1.221373
2718.000000	1.221401
2716.000000	1.221523
2714.000000	1.221650
2712.000000	1.221763
2710.000000	1.221821
2708.000000	1.221805
2706.000000	1.221820
2704.000000	1.221894
2702.000000	1.222024
2700.000000	1.222156
2698.000000	1.222205
2696.000000	1.222283
2694.000000	1.222435
2692.000000	1.222493
2690.000000	1.222522
2688.000000	1.222602
2686.000000	1.222674
2684.000000	1.222733
2682.000000	1.222767
2680.000000	1.222844
2678.000000	1.222974
2676.000000	1.223037
2674.000000	1.223062
2672.000000	1.223163
2670.000000	1.223306
2668.000000	1.223417
2666.000000	1.223453
2664.000000	1.223424
2662.000000	1.223494
2660.000000	1.223601
2658.000000	1.223705
2656.000000	1.223795
2654.000000	1.223776
2652.000000	1.223853
2650.000000	1.223970
2648.000000	1.224063
2646.000000	1.224085
2644.000000	1.224062
2642.000000	1.223995
2640.000000	1.223969
2638.000000	1.224040
2636.000000	1.224208
2634.000000	1.224296
2632.000000	1.224298
2630.000000	1.224294
2628.000000	1.224304
2626.000000	1.224284
2624.000000	1.224251
2622.000000	1.224283
2620.000000	1.224385
2618.000000	1.224390
2616.000000	1.224276
2614.000000	1.224223
2612.000000	1.224299
2610.000000	1.224447
2608.000000	1.224550
2606.000000	1.224526
2604.000000	1.224481
2602.000000	1.224469
2600.000000	1.224486
2598.000000	1.224472
2596.000000	1.224499
2594.000000	1.224550
2592.000000	1.224587
2590.000000	1.224681
2588.000000	1.224771
2586.000000	1.224779
2584.000000	1.224822
2582.000000	1.224855
2580.000000	1.224823
2578.000000	1.224801
2576.000000	1.224753
2574.000000	1.224720
2572.000000	1.224748
2570.000000	1.224790
2568.000000	1.224847
2566.000000	1.224833
2564.000000	1.224795
2562.000000	1.224791
2560.000000	1.224832
2558.000000	1.224883
2556.000000	1.224902
2554.000000	1.224902
2552.000000	1.224863
2550.000000	1.224841
2548.000000	1.224875
2546.000000	1.224881
2544.000000	1.224843
2542.000000	1.224740
2540.000000	1.224687
2538.000000	1.224766
2536.000000	1.224768
2534.000000	1.224713
2532.000000	1.224755
2530.000000	1.224792
2528.000000	1.224757
2526.000000	1.224731
2524.000000	1.224706
2522.000000	1.224753
2520.000000	1.224778
2518.000000	1.224704
2516.000000	1.224683
2514.000000	1.224659
2512.000000	1.224613
2510.000000	1.224678
2508.000000	1.224697
2506.000000	1.224631
2504.000000	1.224631
2502.000000	1.224672
2500.000000	1.224762
2498.000000	1.224744
2496.000000	1.224652
2494.000000	1.224617
2492.000000	1.224632
2490.000000	1.224630
2488.000000	1.224616
2486.000000	1.224587
2484.000000	1.224579
2482.000000	1.224568
2480.000000	1.224615
2478.000000	1.224648
2476.000000	1.224568
2474.000000	1.224538
2472.000000	1.224583
2470.000000	1.224573
2468.000000	1.224574
2466.000000	1.224611
2464.000000	1.224652
2462.000000	1.224636
2460.000000	1.224641
2458.000000	1.224657
2456.000000	1.224641
2454.000000	1.224631
2452.000000	1.224668
2450.000000	1.224730
2448.000000	1.224726
2446.000000	1.224672
2444.000000	1.224735
2442.000000	1.224747
2440.000000	1.224733
2438.000000	1.224687
2436.000000	1.224598
2434.000000	1.224545
2432.000000	1.224553
2430.000000	1.224538
2428.000000	1.224493
2426.000000	1.224531
2424.000000	1.224605
2422.000000	1.224584
2420.000000	1.224504
2418.000000	1.224494
2416.000000	1.224631
2414.000000	1.224622
2412.000000	1.224494
2410.000000	1.224454
2408.000000	1.224476
2406.000000	1.224477
2404.000000	1.224392
2402.000000	1.224299
2400.000000	1.224269
2398.000000	1.224306
2396.000000	1.224354
2394.000000	1.224364
2392.000000	1.224367
2390.000000	1.224366
2388.000000	1.224361
2386.000000	1.224363
2384.000000	1.224308
2382.000000	1.224133
2380.000000	1.223929
2378.000000	1.223692
2376.000000	1.223333
2374.000000	1.222895
2372.000000	1.222501
2370.000000	1.222193
2368.000000	1.221985
2366.000000	1.221831
2364.000000	1.221764
2362.000000	1.221928
2360.000000	1.222202
2358.000000	1.222466
2356.000000	1.222898
2354.000000	1.223445
2352.000000	1.223805
2350.000000	1.223688
2348.000000	1.223137
2346.000000	1.222760
2344.000000	1.222858
2342.000000	1.223428
2340.000000	1.224174
2338.000000	1.224266
2336.000000	1.223822
2334.000000	1.223501
2332.000000	1.223354
2330.000000	1.223268
2328.000000	1.223313
2326.000000	1.223489
2324.000000	1.223666
2322.000000	1.223675
2320.000000	1.223585
2318.000000	1.223589
2316.000000	1.223810
2314.000000	1.223976
2312.000000	1.223998
2310.000000	1.224034
2308.000000	1.224078
2306.000000	1.224134
2304.000000	1.224176
2302.000000	1.224093
2300.000000	1.223993
2298.000000	1.223953
2296.000000	1.224092
2294.000000	1.224230
2292.000000	1.224255
2290.000000	1.224263
2288.000000	1.224316
2286.000000	1.224242
2284.000000	1.224262
2282.000000	1.224284
2280.000000	1.224182
2278.000000	1.224158
2276.000000	1.224191
2274.000000	1.224152
2272.000000	1.224133
2270.000000	1.224150
2268.000000	1.224193
2266.000000	1.224108
2264.000000	1.224050
2262.000000	1.224123
2260.000000	1.224214
2258.000000	1.224194
2256.000000	1.224158
2254.000000	1.224121
2252.000000	1.224111
2250.000000	1.224130
2248.000000	1.224116
2246.000000	1.224095
2244.000000	1.224066
2242.000000	1.223958
2240.000000	1.223961
2238.000000	1.223998
2236.000000	1.223952
2234.000000	1.223861
2232.000000	1.223792
2230.000000	1.223854
2228.000000	1.223876
2226.000000	1.223707
2224.000000	1.223633
2222.000000	1.223644
2220.000000	1.223544
2218.000000	1.223505
2216.000000	1.223568
2214.000000	1.223593
2212.000000	1.223533
2210.000000	1.223391
2208.000000	1.223343
2206.000000	1.223387
2204.000000	1.223510
2202.000000	1.223524
2200.000000	1.223379
2198.000000	1.223229
2196.000000	1.223173
2194.000000	1.223212
2192.000000	1.223164
2190.000000	1.222926
2188.000000	1.222923
2186.000000	1.223000
2184.000000	1.222963
2182.000000	1.223013
2180.000000	1.222971
2178.000000	1.222862
2176.000000	1.222784
2174.000000	1.222771
2172.000000	1.222690
2170.000000	1.222573
2168.000000	1.222652
2166.000000	1.222611
2164.000000	1.222504
2162.000000	1.222432
2160.000000	1.222348
2158.000000	1.222229
2156.000000	1.222198
2154.000000	1.222216
2152.000000	1.222186
2150.000000	1.222104
2148.000000	1.222025
2146.000000	1.221987
2144.000000	1.221993
2142.000000	1.221897
2140.000000	1.221791
2138.000000	1.221709
2136.000000	1.221695
2134.000000	1.221676
2132.000000	1.221569
2130.000000	1.221456
2128.000000	1.221432
2126.000000	1.221406
2124.000000	1.221386
2122.000000	1.221333
2120.000000	1.221267
2118.000000	1.221210
2116.000000	1.221181
2114.000000	1.221165
2112.000000	1.221101
2110.000000	1.221019
2108.000000	1.221012
2106.000000	1.221013
2104.000000	1.220974
2102.000000	1.220944
2100.000000	1.220949
2098.000000	1.220912
2096.000000	1.220892
2094.000000	1.220808
2092.000000	1.220672
2090.000000	1.220571
2088.000000	1.220600
2086.000000	1.220653
2084.000000	1.220650
2082.000000	1.220519
2080.000000	1.220439
2078.000000	1.220416
2076.000000	1.220421
2074.000000	1.220366
2072.000000	1.220293
2070.000000	1.220202
2068.000000	1.220045
2066.000000	1.219948
2064.000000	1.220105
2062.000000	1.220114
2060.000000	1.220041
2058.000000	1.220052
2056.000000	1.220066
2054.000000	1.219963
2052.000000	1.219862
2050.000000	1.219835
2048.000000	1.219896
2046.000000	1.219896
2044.000000	1.219819
2042.000000	1.219718
2040.000000	1.219720
2038.000000	1.219669
2036.000000	1.219602
2034.000000	1.219578
2032.000000	1.219539
2030.000000	1.219481
2028.000000	1.219494
2026.000000	1.219425
2024.000000	1.219353
2022.000000	1.219329
2020.000000	1.219271
2018.000000	1.219119
2016.000000	1.219136
2014.000000	1.219143
2012.000000	1.219102
2010.000000	1.219120
2008.000000	1.219174
2006.000000	1.219166
2004.000000	1.219119
2002.000000	1.219053
2000.000000	1.219031
1998.000000	1.218940
1996.000000	1.218881
1994.000000	1.218657
1992.000000	1.218607
1990.000000	1.218799
1988.000000	1.218795
1986.000000	1.218743
1984.000000	1.218650
1982.000000	1.218611
1980.000000	1.218706
1978.000000	1.218739
1976.000000	1.218712
1974.000000	1.218705
1972.000000	1.218699
1970.000000	1.218549
1968.000000	1.218407
1966.000000	1.218568
1964.000000	1.218673
1962.000000	1.218483
1960.000000	1.218421
1958.000000	1.218737
1956.000000	1.218771
1954.000000	1.218563
1952.000000	1.218531
1950.000000	1.218553
1948.000000	1.218556
1946.000000	1.218372
1944.000000	1.218048
1942.000000	1.218218
1940.000000	1.218644
1938.000000	1.218648
1936.000000	1.218604
1934.000000	1.218518
1932.000000	1.218549
1930.000000	1.218610
1928.000000	1.218629
1926.000000	1.218453
1924.000000	1.218235
1922.000000	1.218254
1920.000000	1.217839
1918.000000	1.217843
1916.000000	1.218765
1914.000000	1.218849
1912.000000	1.218623
1910.000000	1.218500
1908.000000	1.218764
1906.000000	1.218856
1904.000000	1.218841
1902.000000	1.218852
1900.000000	1.218929
1898.000000	1.218783
1896.000000	1.218610
1894.000000	1.218629
1892.000000	1.218459
1890.000000	1.218221
1888.000000	1.218735
1886.000000	1.218894
1884.000000	1.218923
1882.000000	1.218886
1880.000000	1.218827
1878.000000	1.218823
1876.000000	1.218918
1874.000000	1.218794
1872.000000	1.218112
1870.000000	1.217159
1868.000000	1.217917
1866.000000	1.218754
1864.000000	1.218747
1862.000000	1.218626
1860.000000	1.218743
1858.000000	1.218710
1856.000000	1.218772
1854.000000	1.218786
1852.000000	1.218808
1850.000000	1.218556
1848.000000	1.217993
1846.000000	1.216298
1844.000000	1.216561
1842.000000	1.218612
1840.000000	1.218737
1838.000000	1.218447
1836.000000	1.218548
1834.000000	1.218414
1832.000000	1.217429
1830.000000	1.217202
1828.000000	1.218034
1826.000000	1.217831
1824.000000	1.218492
1822.000000	1.218988
1820.000000	1.218875
1818.000000	1.218788
1816.000000	1.218937
1814.000000	1.218753
1812.000000	1.218410
1810.000000	1.218564
1808.000000	1.218940
1806.000000	1.218802
1804.000000	1.218289
1802.000000	1.217642
1800.000000	1.217948
1798.000000	1.218420
1796.000000	1.217884
1794.000000	1.216025
1792.000000	1.216539
1790.000000	1.218601
1788.000000	1.218714
1786.000000	1.218012
1784.000000	1.218353
1782.000000	1.218344
1780.000000	1.218464
1778.000000	1.218598
1776.000000	1.217408
1774.000000	1.214837
1772.000000	1.215471
1770.000000	1.217519
1768.000000	1.217973
1766.000000	1.218936
1764.000000	1.217803
1762.000000	1.217305
1760.000000	1.218471
1758.000000	1.218147
1756.000000	1.218485
1754.000000	1.217784
1752.000000	1.215778
1750.000000	1.216898
1748.000000	1.218182
1746.000000	1.218556
1744.000000	1.218448
1742.000000	1.217671
1740.000000	1.217438
1738.000000	1.217940
1736.000000	1.213726
1734.000000	1.213250
1732.000000	1.218611
1730.000000	1.219811
1728.000000	1.219980
1726.000000	1.219909
1724.000000	1.219870
1722.000000	1.219373
1720.000000	1.215764
1718.000000	1.213199
1716.000000	1.216854
1714.000000	1.219513
1712.000000	1.220272
1710.000000	1.219766
1708.000000	1.218889
1706.000000	1.218155
1704.000000	1.217949
1702.000000	1.213051
1700.000000	1.213159
1698.000000	1.215093
1696.000000	1.214884
1694.000000	1.220191
1692.000000	1.221089
1690.000000	1.220081
1688.000000	1.218116
1686.000000	1.212648
1684.000000	1.214527
1682.000000	1.220446
1680.000000	1.220871
1678.000000	1.219410
1676.000000	1.217593
1674.000000	1.219382
1672.000000	1.218972
1670.000000	1.217961
1668.000000	1.220343
1666.000000	1.221187
1664.000000	1.219686
1662.000000	1.220526
1660.000000	1.221809
1658.000000	1.221052
1656.000000	1.215371
1654.000000	1.208693
1652.000000	1.215654
1650.000000	1.220993
1648.000000	1.217411
1646.000000	1.218265
1644.000000	1.221879
1642.000000	1.222351
1640.000000	1.221322
1638.000000	1.218004
1636.000000	1.216390
1634.000000	1.221001
1632.000000	1.222901
1630.000000	1.221731
1628.000000	1.221332
1626.000000	1.220873
1624.000000	1.219983
1622.000000	1.221323
1620.000000	1.220603
1618.000000	1.217001
1616.000000	1.218954
1614.000000	1.222422
1612.000000	1.222073
1610.000000	1.222220
1608.000000	1.222874
1606.000000	1.223469
1604.000000	1.223585
1602.000000	1.223807
1600.000000	1.223903
1598.000000	1.223912
1596.000000	1.223675
1594.000000	1.223697
1592.000000	1.223684
1590.000000	1.223632
1588.000000	1.223663
1586.000000	1.223765
1584.000000	1.223786
1582.000000	1.223820
1580.000000	1.222826
1578.000000	1.218840
1576.000000	1.218906
1574.000000	1.223414
1572.000000	1.222171
1570.000000	1.220876
1568.000000	1.222552
1566.000000	1.222952
1564.000000	1.222015
1562.000000	1.216841
1560.000000	1.210944
1558.000000	1.216183
1556.000000	1.220972
1554.000000	1.221978
1552.000000	1.223316
1550.000000	1.223372
1548.000000	1.223088
1546.000000	1.221278
1544.000000	1.218836
1542.000000	1.214965
1540.000000	1.214689
1538.000000	1.221188
1536.000000	1.222787
1534.000000	1.221148
1532.000000	1.222790
1530.000000	1.222877
1528.000000	1.221336
1526.000000	1.220529
1524.000000	1.218930
1522.000000	1.216837
1520.000000	1.219605
1518.000000	1.220831
1516.000000	1.221457
1514.000000	1.222322
1512.000000	1.221871
1510.000000	1.219329
1508.000000	1.214176
1506.000000	1.216077
1504.000000	1.221861
1502.000000	1.221254
1500.000000	1.217840
1498.000000	1.215336
1496.000000	1.218043
1494.000000	1.223510
1492.000000	1.224532
1490.000000	1.224256
1488.000000	1.224930
1486.000000	1.225274
1484.000000	1.224992
1482.000000	1.224220
1480.000000	1.223851
1478.000000	1.222593
1476.000000	1.220887
1474.000000	1.218972
1472.000000	1.220410
1470.000000	1.223198
1468.000000	1.222816
1466.000000	1.221210
1464.000000	1.222063
1462.000000	1.222613
1460.000000	1.218928
1458.000000	1.214632
1456.000000	1.217740
1454.000000	1.221864
1452.000000	1.222580
1450.000000	1.223533
1448.000000	1.224065
1446.000000	1.224418
1444.000000	1.223900
1442.000000	1.223473
1440.000000	1.222153
1438.000000	1.219626
1436.000000	1.220935
1434.000000	1.223315
1432.000000	1.222522
1430.000000	1.222317
1428.000000	1.222870
1426.000000	1.222733
1424.000000	1.222323
1422.000000	1.221058
1420.000000	1.218963
1418.000000	1.220962
1416.000000	1.222766
1414.000000	1.222888
1412.000000	1.222517
1410.000000	1.222237
1408.000000	1.221651
1406.000000	1.221463
1404.000000	1.222376
1402.000000	1.222995
1400.000000	1.222451
1398.000000	1.222527
1396.000000	1.221895
1394.000000	1.222309
1392.000000	1.223052
1390.000000	1.222048
1388.000000	1.220978
1386.000000	1.221847
1384.000000	1.222741
1382.000000	1.223061
1380.000000	1.222822
1378.000000	1.222443
1376.000000	1.221800
1374.000000	1.221757
1372.000000	1.222270
1370.000000	1.222206
1368.000000	1.222108
1366.000000	1.221883
1364.000000	1.221134
1362.000000	1.221191
1360.000000	1.221802
1358.000000	1.222014
1356.000000	1.221971
1354.000000	1.221947
1352.000000	1.221840
1350.000000	1.221714
1348.000000	1.221638
1346.000000	1.221691
1344.000000	1.221623
1342.000000	1.221222
1340.000000	1.220915
1338.000000	1.221276
1336.000000	1.221565
1334.000000	1.221630
1332.000000	1.221492
1330.000000	1.221409
1328.000000	1.221301
1326.000000	1.221216
1324.000000	1.221023
1322.000000	1.220739
1320.000000	1.220483
1318.000000	1.220514
1316.000000	1.220483
1314.000000	1.220494
1312.000000	1.220498
1310.000000	1.220442
1308.000000	1.220321
1306.000000	1.220201
1304.000000	1.220155
1302.000000	1.220192
1300.000000	1.220187
1298.000000	1.220157
1296.000000	1.220028
1294.000000	1.220023
1292.000000	1.220021
1290.000000	1.219924
1288.000000	1.219775
1286.000000	1.219773
1284.000000	1.219753
1282.000000	1.219857
1280.000000	1.219954
1278.000000	1.219965
1276.000000	1.219990
1274.000000	1.220094
1272.000000	1.220070
1270.000000	1.220225
1268.000000	1.220896
1266.000000	1.222195
1264.000000	1.224122
1262.000000	1.226638
1260.000000	1.228886
1258.000000	1.229701
1256.000000	1.228604
1254.000000	1.226598
1252.000000	1.224771
1250.000000	1.223678
1248.000000	1.223195
1246.000000	1.223010
1244.000000	1.222942
1242.000000	1.223159
1240.000000	1.223393
1238.000000	1.223598
1236.000000	1.224026
1234.000000	1.224461
1232.000000	1.224700
1230.000000	1.224934
1228.000000	1.225057
1226.000000	1.225342
1224.000000	1.225621
1222.000000	1.225835
1220.000000	1.225991
1218.000000	1.226168
1216.000000	1.226345
1214.000000	1.226723
1212.000000	1.227073
1210.000000	1.227405
1208.000000	1.227737
1206.000000	1.227974
1204.000000	1.228193
1202.000000	1.228548
1200.000000	1.228752
1198.000000	1.229041
1196.000000	1.229396
1194.000000	1.229740
1192.000000	1.230063
1190.000000	1.230393
1188.000000	1.230586
1186.000000	1.230823
1184.000000	1.230747
1182.000000	1.231068
1180.000000	1.232305
1178.000000	1.233118
1176.000000	1.232993
1174.000000	1.233134
1172.000000	1.233599
1170.000000	1.234096
1168.000000	1.234296
1166.000000	1.234577
1164.000000	1.234816
1162.000000	1.235259
1160.000000	1.235753
1158.000000	1.236205
1156.000000	1.236587
1154.000000	1.236953
1152.000000	1.237385
1150.000000	1.237921
1148.000000	1.238055
1146.000000	1.238172
1144.000000	1.238601
1142.000000	1.239108
1140.000000	1.239194
1138.000000	1.239268
1136.000000	1.239596
1134.000000	1.240033
1132.000000	1.240241
1130.000000	1.240233
1128.000000	1.240147
1126.000000	1.240474
1124.000000	1.240846
1122.000000	1.241138
1120.000000	1.241455
1118.000000	1.241987
1116.000000	1.242503
1114.000000	1.243128
1112.000000	1.243300
1110.000000	1.243540
1108.000000	1.244175
1106.000000	1.244693
1104.000000	1.245069
1102.000000	1.245616
1100.000000	1.246201
1098.000000	1.246716
1096.000000	1.246941
1094.000000	1.247339
1092.000000	1.247723
1090.000000	1.247669
1088.000000	1.247398
1086.000000	1.247084
1084.000000	1.246944
1082.000000	1.247062
1080.000000	1.246889
1078.000000	1.246820
1076.000000	1.246948
1074.000000	1.246570
1072.000000	1.245946
1070.000000	1.245491
1068.000000	1.244900
1066.000000	1.244638
1064.000000	1.244282
1062.000000	1.244047
1060.000000	1.243847
1058.000000	1.242860
1056.000000	1.241091
1054.000000	1.239671
1052.000000	1.239600
1050.000000	1.241413
1048.000000	1.242858
1046.000000	1.242257
1044.000000	1.240531
1042.000000	1.239433
1040.000000	1.238807
1038.000000	1.238680
1036.000000	1.238354
1034.000000	1.238140
1032.000000	1.237637
1030.000000	1.236338
1028.000000	1.235673
1026.000000	1.236183
1024.000000	1.236279
1022.000000	1.235766
1020.000000	1.235334
1018.000000	1.234930
1016.000000	1.234128
1014.000000	1.233046
1012.000000	1.231680
1010.000000	1.229835
1008.000000	1.228202
1006.000000	1.226720
1004.000000	1.225436
1002.000000	1.223509
1000.000000	1.220775
