PE IR       SUBTECH     SPECTRUM    ASCII       PEDS        4.00        
   -1
TE110A_063_125K_SB.ASC
20/05/14
14:39:43.00
20/05/14
14:39:43.00
Administrator
TE110A.Thursday, May 14 2020, 011.
1000.000000
#HDR
-1
-1
#GR
cm-1
EGY
1.0
0.0
6000.000000
-2.000000
2501
8
6.350941
0.648242
#DATA
6000.000000	0.992531
5998.000000	0.995061
5996.000000	0.997869
5994.000000	0.999825
5992.000000	1.002243
5990.000000	1.005050
5988.000000	1.007949
5986.000000	1.010538
5984.000000	1.012012
5982.000000	1.012643
5980.000000	1.013911
5978.000000	1.015887
5976.000000	1.017757
5974.000000	1.020024
5972.000000	1.022465
5970.000000	1.025671
5968.000000	1.028443
5966.000000	1.029976
5964.000000	1.031665
5962.000000	1.033794
5960.000000	1.035454
5958.000000	1.037210
5956.000000	1.039365
5954.000000	1.042164
5952.000000	1.045408
5950.000000	1.047356
5948.000000	1.049218
5946.000000	1.050891
5944.000000	1.053144
5942.000000	1.055565
5940.000000	1.057872
5938.000000	1.059769
5936.000000	1.061572
5934.000000	1.063594
5932.000000	1.065363
5930.000000	1.067458
5928.000000	1.070113
5926.000000	1.072878
5924.000000	1.074972
5922.000000	1.076408
5920.000000	1.077434
5918.000000	1.078972
5916.000000	1.080976
5914.000000	1.083153
5912.000000	1.085826
5910.000000	1.088920
5908.000000	1.092354
5906.000000	1.094888
5904.000000	1.096736
5902.000000	1.098520
5900.000000	1.100587
5898.000000	1.103282
5896.000000	1.104737
5894.000000	1.106374
5892.000000	1.108998
5890.000000	1.111253
5888.000000	1.113646
5886.000000	1.116201
5884.000000	1.118549
5882.000000	1.121743
5880.000000	1.124146
5878.000000	1.126422
5876.000000	1.129137
5874.000000	1.130911
5872.000000	1.133027
5870.000000	1.134725
5868.000000	1.136330
5866.000000	1.138313
5864.000000	1.141640
5862.000000	1.145968
5860.000000	1.148824
5858.000000	1.150575
5856.000000	1.151679
5854.000000	1.154046
5852.000000	1.156405
5850.000000	1.157778
5848.000000	1.158714
5846.000000	1.160635
5844.000000	1.163860
5842.000000	1.167622
5840.000000	1.170763
5838.000000	1.173268
5836.000000	1.175793
5834.000000	1.178942
5832.000000	1.181919
5830.000000	1.184361
5828.000000	1.184902
5826.000000	1.186043
5824.000000	1.188867
5822.000000	1.193471
5820.000000	1.197543
5818.000000	1.200087
5816.000000	1.201687
5814.000000	1.203416
5812.000000	1.206096
5810.000000	1.208357
5808.000000	1.209961
5806.000000	1.212274
5804.000000	1.215330
5802.000000	1.219198
5800.000000	1.221713
5798.000000	1.223827
5796.000000	1.226126
5794.000000	1.228380
5792.000000	1.229545
5790.000000	1.231050
5788.000000	1.234153
5786.000000	1.237667
5784.000000	1.240690
5782.000000	1.242686
5780.000000	1.244839
5778.000000	1.247957
5776.000000	1.250454
5774.000000	1.252589
5772.000000	1.254801
5770.000000	1.257736
5768.000000	1.260826
5766.000000	1.262832
5764.000000	1.264272
5762.000000	1.266648
5760.000000	1.269787
5758.000000	1.273098
5756.000000	1.277266
5754.000000	1.281043
5752.000000	1.283434
5750.000000	1.284936
5748.000000	1.286022
5746.000000	1.288284
5744.000000	1.290771
5742.000000	1.294014
5740.000000	1.297679
5738.000000	1.301046
5736.000000	1.303637
5734.000000	1.305196
5732.000000	1.307251
5730.000000	1.310111
5728.000000	1.313187
5726.000000	1.315689
5724.000000	1.317371
5722.000000	1.320305
5720.000000	1.323148
5718.000000	1.326237
5716.000000	1.329240
5714.000000	1.331746
5712.000000	1.334510
5710.000000	1.337051
5708.000000	1.339930
5706.000000	1.342291
5704.000000	1.344544
5702.000000	1.347398
5700.000000	1.350299
5698.000000	1.353535
5696.000000	1.356224
5694.000000	1.358765
5692.000000	1.361141
5690.000000	1.363198
5688.000000	1.365261
5686.000000	1.367510
5684.000000	1.371303
5682.000000	1.375624
5680.000000	1.378661
5678.000000	1.380319
5676.000000	1.382619
5674.000000	1.386411
5672.000000	1.390517
5670.000000	1.392794
5668.000000	1.394737
5666.000000	1.397107
5664.000000	1.399892
5662.000000	1.402063
5660.000000	1.404469
5658.000000	1.408349
5656.000000	1.412634
5654.000000	1.416114
5652.000000	1.417955
5650.000000	1.420047
5648.000000	1.423394
5646.000000	1.426896
5644.000000	1.429752
5642.000000	1.431495
5640.000000	1.434283
5638.000000	1.438446
5636.000000	1.442073
5634.000000	1.444583
5632.000000	1.446040
5630.000000	1.447435
5628.000000	1.449376
5626.000000	1.452082
5624.000000	1.455649
5622.000000	1.459217
5620.000000	1.462831
5618.000000	1.465859
5616.000000	1.468452
5614.000000	1.469968
5612.000000	1.471819
5610.000000	1.475240
5608.000000	1.479169
5606.000000	1.482121
5604.000000	1.484192
5602.000000	1.486799
5600.000000	1.490619
5598.000000	1.493243
5596.000000	1.495336
5594.000000	1.498479
5592.000000	1.502240
5590.000000	1.505760
5588.000000	1.508653
5586.000000	1.511725
5584.000000	1.515014
5582.000000	1.518169
5580.000000	1.521150
5578.000000	1.523216
5576.000000	1.524759
5574.000000	1.527628
5572.000000	1.531887
5570.000000	1.536021
5568.000000	1.538778
5566.000000	1.541316
5564.000000	1.544374
5562.000000	1.548175
5560.000000	1.551173
5558.000000	1.553031
5556.000000	1.554937
5554.000000	1.557782
5552.000000	1.561371
5550.000000	1.563829
5548.000000	1.566286
5546.000000	1.568718
5544.000000	1.571595
5542.000000	1.574718
5540.000000	1.577898
5538.000000	1.581207
5536.000000	1.583901
5534.000000	1.586463
5532.000000	1.589141
5530.000000	1.592552
5528.000000	1.596505
5526.000000	1.600331
5524.000000	1.603764
5522.000000	1.606484
5520.000000	1.608304
5518.000000	1.610436
5516.000000	1.614031
5514.000000	1.617968
5512.000000	1.620635
5510.000000	1.622594
5508.000000	1.625675
5506.000000	1.629622
5504.000000	1.633354
5502.000000	1.636720
5500.000000	1.640053
5498.000000	1.642989
5496.000000	1.644722
5494.000000	1.646200
5492.000000	1.648669
5490.000000	1.652079
5488.000000	1.655620
5486.000000	1.658414
5484.000000	1.661517
5482.000000	1.665234
5480.000000	1.669301
5478.000000	1.672507
5476.000000	1.674287
5474.000000	1.676519
5472.000000	1.679979
5470.000000	1.683966
5468.000000	1.687748
5466.000000	1.690518
5464.000000	1.692848
5462.000000	1.694751
5460.000000	1.697576
5458.000000	1.700959
5456.000000	1.704788
5454.000000	1.708749
5452.000000	1.711953
5450.000000	1.713926
5448.000000	1.715518
5446.000000	1.717746
5444.000000	1.720791
5442.000000	1.724164
5440.000000	1.728006
5438.000000	1.732185
5436.000000	1.735227
5434.000000	1.737060
5432.000000	1.739061
5430.000000	1.741884
5428.000000	1.746176
5426.000000	1.750115
5424.000000	1.752894
5422.000000	1.755345
5420.000000	1.757995
5418.000000	1.760855
5416.000000	1.763179
5414.000000	1.765609
5412.000000	1.768373
5410.000000	1.771147
5408.000000	1.774760
5406.000000	1.779260
5404.000000	1.784106
5402.000000	1.787828
5400.000000	1.790515
5398.000000	1.792716
5396.000000	1.795222
5394.000000	1.797597
5392.000000	1.799521
5390.000000	1.803431
5388.000000	1.807881
5386.000000	1.810834
5384.000000	1.812638
5382.000000	1.815877
5380.000000	1.820576
5378.000000	1.824237
5376.000000	1.826717
5374.000000	1.828913
5372.000000	1.832203
5370.000000	1.836610
5368.000000	1.840638
5366.000000	1.843996
5364.000000	1.847200
5362.000000	1.850318
5360.000000	1.853206
5358.000000	1.855578
5356.000000	1.858614
5354.000000	1.861426
5352.000000	1.863982
5350.000000	1.866748
5348.000000	1.869436
5346.000000	1.871356
5344.000000	1.872062
5342.000000	1.874449
5340.000000	1.879458
5338.000000	1.884544
5336.000000	1.888754
5334.000000	1.892354
5332.000000	1.896097
5330.000000	1.898754
5328.000000	1.900845
5326.000000	1.904125
5324.000000	1.908732
5322.000000	1.913189
5320.000000	1.916419
5318.000000	1.919249
5316.000000	1.922865
5314.000000	1.926207
5312.000000	1.929187
5310.000000	1.931400
5308.000000	1.933641
5306.000000	1.936151
5304.000000	1.940059
5302.000000	1.944900
5300.000000	1.948909
5298.000000	1.952290
5296.000000	1.955265
5294.000000	1.957712
5292.000000	1.960336
5290.000000	1.963273
5288.000000	1.966043
5286.000000	1.969457
5284.000000	1.974056
5282.000000	1.978454
5280.000000	1.981416
5278.000000	1.984363
5276.000000	1.988427
5274.000000	1.991876
5272.000000	1.994373
5270.000000	1.996311
5268.000000	1.998608
5266.000000	2.000870
5264.000000	2.003279
5262.000000	2.006976
5260.000000	2.011997
5258.000000	2.016424
5256.000000	2.019599
5254.000000	2.021728
5252.000000	2.024007
5250.000000	2.026874
5248.000000	2.030040
5246.000000	2.032293
5244.000000	2.034249
5242.000000	2.038230
5240.000000	2.043099
5238.000000	2.047435
5236.000000	2.050212
5234.000000	2.052908
5232.000000	2.055385
5230.000000	2.058755
5228.000000	2.062418
5226.000000	2.065706
5224.000000	2.068454
5222.000000	2.071810
5220.000000	2.075271
5218.000000	2.079126
5216.000000	2.084006
5214.000000	2.088563
5212.000000	2.091327
5210.000000	2.092757
5208.000000	2.093728
5206.000000	2.095046
5204.000000	2.099011
5202.000000	2.105371
5200.000000	2.110341
5198.000000	2.112378
5196.000000	2.114336
5194.000000	2.117835
5192.000000	2.122364
5190.000000	2.126510
5188.000000	2.130122
5186.000000	2.132484
5184.000000	2.134812
5182.000000	2.137493
5180.000000	2.141229
5178.000000	2.145373
5176.000000	2.148776
5174.000000	2.151998
5172.000000	2.155708
5170.000000	2.159837
5168.000000	2.162409
5166.000000	2.163550
5164.000000	2.165756
5162.000000	2.170007
5160.000000	2.175323
5158.000000	2.179967
5156.000000	2.183615
5154.000000	2.187025
5152.000000	2.190288
5150.000000	2.193860
5148.000000	2.197592
5146.000000	2.201045
5144.000000	2.203409
5142.000000	2.204951
5140.000000	2.207413
5138.000000	2.211167
5136.000000	2.215321
5134.000000	2.218877
5132.000000	2.222084
5130.000000	2.224482
5128.000000	2.226673
5126.000000	2.229616
5124.000000	2.234124
5122.000000	2.238749
5120.000000	2.242165
5118.000000	2.244973
5116.000000	2.247883
5114.000000	2.251938
5112.000000	2.256601
5110.000000	2.260882
5108.000000	2.263957
5106.000000	2.266500
5104.000000	2.269179
5102.000000	2.272143
5100.000000	2.275398
5098.000000	2.278733
5096.000000	2.282255
5094.000000	2.285900
5092.000000	2.290095
5090.000000	2.294311
5088.000000	2.298235
5086.000000	2.301757
5084.000000	2.304814
5082.000000	2.307922
5080.000000	2.311165
5078.000000	2.314394
5076.000000	2.317004
5074.000000	2.319330
5072.000000	2.323500
5070.000000	2.328648
5068.000000	2.332371
5066.000000	2.334135
5064.000000	2.337247
5062.000000	2.341955
5060.000000	2.345696
5058.000000	2.348551
5056.000000	2.351886
5054.000000	2.355472
5052.000000	2.358309
5050.000000	2.361245
5048.000000	2.365347
5046.000000	2.369252
5044.000000	2.372385
5042.000000	2.375281
5040.000000	2.378248
5038.000000	2.381404
5036.000000	2.384757
5034.000000	2.388301
5032.000000	2.391573
5030.000000	2.395093
5028.000000	2.399508
5026.000000	2.403847
5024.000000	2.407345
5022.000000	2.409552
5020.000000	2.412040
5018.000000	2.415818
5016.000000	2.420890
5014.000000	2.426010
5012.000000	2.429917
5010.000000	2.432432
5008.000000	2.434774
5006.000000	2.438468
5004.000000	2.442951
5002.000000	2.446029
5000.000000	2.447842
4998.000000	2.449936
4996.000000	2.453955
4994.000000	2.458460
4992.000000	2.462806
4990.000000	2.466315
4988.000000	2.469214
4986.000000	2.471808
4984.000000	2.474861
4982.000000	2.479027
4980.000000	2.483759
4978.000000	2.487787
4976.000000	2.490616
4974.000000	2.493765
4972.000000	2.497637
4970.000000	2.501632
4968.000000	2.505473
4966.000000	2.508787
4964.000000	2.511253
4962.000000	2.513725
4960.000000	2.516449
4958.000000	2.519546
4956.000000	2.523638
4954.000000	2.528353
4952.000000	2.531879
4950.000000	2.534256
4948.000000	2.537392
4946.000000	2.541854
4944.000000	2.545615
4942.000000	2.548367
4940.000000	2.551575
4938.000000	2.556081
4936.000000	2.560210
4934.000000	2.562921
4932.000000	2.565761
4930.000000	2.570274
4928.000000	2.574986
4926.000000	2.578048
4924.000000	2.580576
4922.000000	2.583633
4920.000000	2.586452
4918.000000	2.588966
4916.000000	2.592860
4914.000000	2.598012
4912.000000	2.602863
4910.000000	2.606645
4908.000000	2.610285
4906.000000	2.612929
4904.000000	2.615583
4902.000000	2.619557
4900.000000	2.623989
4898.000000	2.627000
4896.000000	2.629585
4894.000000	2.632603
4892.000000	2.636154
4890.000000	2.640197
4888.000000	2.644365
4886.000000	2.648219
4884.000000	2.652006
4882.000000	2.655853
4880.000000	2.659385
4878.000000	2.662080
4876.000000	2.664197
4874.000000	2.667516
4872.000000	2.672734
4870.000000	2.677061
4868.000000	2.679815
4866.000000	2.682746
4864.000000	2.686962
4862.000000	2.691029
4860.000000	2.694147
4858.000000	2.697164
4856.000000	2.700248
4854.000000	2.704072
4852.000000	2.708701
4850.000000	2.713003
4848.000000	2.716209
4846.000000	2.718745
4844.000000	2.721740
4842.000000	2.724877
4840.000000	2.728269
4838.000000	2.731835
4836.000000	2.735794
4834.000000	2.739516
4832.000000	2.742942
4830.000000	2.746293
4828.000000	2.750290
4826.000000	2.753593
4824.000000	2.755812
4822.000000	2.758735
4820.000000	2.763177
4818.000000	2.766945
4816.000000	2.770350
4814.000000	2.775195
4812.000000	2.779833
4810.000000	2.782896
4808.000000	2.785751
4806.000000	2.788948
4804.000000	2.791864
4802.000000	2.795881
4800.000000	2.800882
4798.000000	2.805141
4796.000000	2.808114
4794.000000	2.810969
4792.000000	2.814317
4790.000000	2.818094
4788.000000	2.821918
4786.000000	2.824932
4784.000000	2.828172
4782.000000	2.833258
4780.000000	2.838240
4778.000000	2.841346
4776.000000	2.844326
4774.000000	2.848237
4772.000000	2.851711
4770.000000	2.855005
4768.000000	2.857927
4766.000000	2.860558
4764.000000	2.863992
4762.000000	2.868457
4760.000000	2.873046
4758.000000	2.876846
4756.000000	2.880111
4754.000000	2.883922
4752.000000	2.888657
4750.000000	2.892945
4748.000000	2.896199
4746.000000	2.898448
4744.000000	2.900277
4742.000000	2.903288
4740.000000	2.907791
4738.000000	2.912267
4736.000000	2.916169
4734.000000	2.919589
4732.000000	2.923449
4730.000000	2.927498
4728.000000	2.931883
4726.000000	2.935558
4724.000000	2.938544
4722.000000	2.941960
4720.000000	2.946343
4718.000000	2.950616
4716.000000	2.954706
4714.000000	2.958458
4712.000000	2.961645
4710.000000	2.964604
4708.000000	2.967727
4706.000000	2.971022
4704.000000	2.975776
4702.000000	2.981129
4700.000000	2.985064
4698.000000	2.987950
4696.000000	2.991924
4694.000000	2.995763
4692.000000	2.999062
4690.000000	3.002869
4688.000000	3.006820
4686.000000	3.009772
4684.000000	3.012845
4682.000000	3.016490
4680.000000	3.020666
4678.000000	3.025266
4676.000000	3.028724
4674.000000	3.031295
4672.000000	3.034835
4670.000000	3.039223
4668.000000	3.043142
4666.000000	3.046737
4664.000000	3.050353
4662.000000	3.053559
4660.000000	3.057176
4658.000000	3.061018
4656.000000	3.064471
4654.000000	3.067705
4652.000000	3.071598
4650.000000	3.075399
4648.000000	3.080034
4646.000000	3.084929
4644.000000	3.088848
4642.000000	3.092095
4640.000000	3.096041
4638.000000	3.099923
4636.000000	3.103561
4634.000000	3.107612
4632.000000	3.111511
4630.000000	3.114032
4628.000000	3.116913
4626.000000	3.121843
4624.000000	3.126435
4622.000000	3.129584
4620.000000	3.133058
4618.000000	3.136482
4616.000000	3.139266
4614.000000	3.143000
4612.000000	3.146715
4610.000000	3.150255
4608.000000	3.154983
4606.000000	3.160663
4604.000000	3.164954
4602.000000	3.168558
4600.000000	3.172766
4598.000000	3.177113
4596.000000	3.179866
4594.000000	3.182471
4592.000000	3.187084
4590.000000	3.191548
4588.000000	3.194478
4586.000000	3.197924
4584.000000	3.202756
4582.000000	3.207342
4580.000000	3.211599
4578.000000	3.216079
4576.000000	3.219861
4574.000000	3.222517
4572.000000	3.225279
4570.000000	3.229237
4568.000000	3.233590
4566.000000	3.238082
4564.000000	3.241497
4562.000000	3.243958
4560.000000	3.247643
4558.000000	3.252790
4556.000000	3.257320
4554.000000	3.260615
4552.000000	3.264184
4550.000000	3.268179
4548.000000	3.272480
4546.000000	3.276637
4544.000000	3.280032
4542.000000	3.282727
4540.000000	3.286510
4538.000000	3.291586
4536.000000	3.296749
4534.000000	3.300655
4532.000000	3.303629
4530.000000	3.307247
4528.000000	3.311881
4526.000000	3.316069
4524.000000	3.319439
4522.000000	3.323137
4520.000000	3.327706
4518.000000	3.331662
4516.000000	3.334455
4514.000000	3.337421
4512.000000	3.341971
4510.000000	3.347034
4508.000000	3.350994
4506.000000	3.355060
4504.000000	3.359202
4502.000000	3.362233
4500.000000	3.365739
4498.000000	3.370449
4496.000000	3.373992
4494.000000	3.377090
4492.000000	3.381452
4490.000000	3.386145
4488.000000	3.390369
4486.000000	3.394290
4484.000000	3.397822
4482.000000	3.401699
4480.000000	3.406618
4478.000000	3.410721
4476.000000	3.413338
4474.000000	3.416108
4472.000000	3.420029
4470.000000	3.424268
4468.000000	3.427923
4466.000000	3.431056
4464.000000	3.434902
4462.000000	3.439572
4460.000000	3.444753
4458.000000	3.449121
4456.000000	3.452261
4454.000000	3.455931
4452.000000	3.460952
4450.000000	3.464752
4448.000000	3.467682
4446.000000	3.471393
4444.000000	3.474972
4442.000000	3.478020
4440.000000	3.481459
4438.000000	3.485400
4436.000000	3.489770
4434.000000	3.493547
4432.000000	3.496658
4430.000000	3.500999
4428.000000	3.506172
4426.000000	3.510353
4424.000000	3.513802
4422.000000	3.517573
4420.000000	3.521082
4418.000000	3.524393
4416.000000	3.527522
4414.000000	3.530925
4412.000000	3.534936
4410.000000	3.539162
4408.000000	3.543138
4406.000000	3.547521
4404.000000	3.552478
4402.000000	3.557965
4400.000000	3.562375
4398.000000	3.565016
4396.000000	3.567793
4394.000000	3.572084
4392.000000	3.577324
4390.000000	3.581766
4388.000000	3.584959
4386.000000	3.588088
4384.000000	3.591229
4382.000000	3.594825
4380.000000	3.599060
4378.000000	3.602610
4376.000000	3.605666
4374.000000	3.609189
4372.000000	3.612385
4370.000000	3.615748
4368.000000	3.619767
4366.000000	3.623275
4364.000000	3.626322
4362.000000	3.630232
4360.000000	3.635474
4358.000000	3.640599
4356.000000	3.643393
4354.000000	3.645653
4352.000000	3.650392
4350.000000	3.655403
4348.000000	3.659303
4346.000000	3.664022
4344.000000	3.668787
4342.000000	3.672433
4340.000000	3.676555
4338.000000	3.680546
4336.000000	3.683758
4334.000000	3.687676
4332.000000	3.691646
4330.000000	3.695004
4328.000000	3.699139
4326.000000	3.703773
4324.000000	3.708128
4322.000000	3.712423
4320.000000	3.716758
4318.000000	3.721274
4316.000000	3.725565
4314.000000	3.728929
4312.000000	3.731793
4310.000000	3.735890
4308.000000	3.741048
4306.000000	3.745543
4304.000000	3.749841
4302.000000	3.754162
4300.000000	3.758201
4298.000000	3.762263
4296.000000	3.765767
4294.000000	3.768827
4292.000000	3.772191
4290.000000	3.775553
4288.000000	3.780142
4286.000000	3.784786
4284.000000	3.787635
4282.000000	3.790929
4280.000000	3.795558
4278.000000	3.799661
4276.000000	3.803669
4274.000000	3.807662
4272.000000	3.811645
4270.000000	3.815811
4268.000000	3.818922
4266.000000	3.821193
4264.000000	3.825188
4262.000000	3.830532
4260.000000	3.834688
4258.000000	3.837396
4256.000000	3.840777
4254.000000	3.845604
4252.000000	3.850365
4250.000000	3.853854
4248.000000	3.857171
4246.000000	3.861266
4244.000000	3.865998
4242.000000	3.869968
4240.000000	3.873142
4238.000000	3.877255
4236.000000	3.882205
4234.000000	3.886358
4232.000000	3.890253
4230.000000	3.894530
4228.000000	3.898563
4226.000000	3.902124
4224.000000	3.905999
4222.000000	3.910388
4220.000000	3.914707
4218.000000	3.918354
4216.000000	3.922066
4214.000000	3.926393
4212.000000	3.930945
4210.000000	3.935784
4208.000000	3.940372
4206.000000	3.944514
4204.000000	3.948311
4202.000000	3.951958
4200.000000	3.955668
4198.000000	3.959548
4196.000000	3.964474
4194.000000	3.970068
4192.000000	3.974836
4190.000000	3.979177
4188.000000	3.982885
4186.000000	3.987076
4184.000000	3.991924
4182.000000	3.995359
4180.000000	3.998844
4178.000000	4.003684
4176.000000	4.007566
4174.000000	4.010659
4172.000000	4.014803
4170.000000	4.019381
4168.000000	4.022398
4166.000000	4.025600
4164.000000	4.031057
4162.000000	4.036940
4160.000000	4.041091
4158.000000	4.044654
4156.000000	4.050492
4154.000000	4.057089
4152.000000	4.060623
4150.000000	4.062697
4148.000000	4.065725
4146.000000	4.069674
4144.000000	4.074087
4142.000000	4.077662
4140.000000	4.080611
4138.000000	4.084806
4136.000000	4.090491
4134.000000	4.095459
4132.000000	4.099056
4130.000000	4.103321
4128.000000	4.108469
4126.000000	4.113190
4124.000000	4.117176
4122.000000	4.121154
4120.000000	4.125667
4118.000000	4.129939
4116.000000	4.134536
4114.000000	4.139617
4112.000000	4.144081
4110.000000	4.147546
4108.000000	4.150636
4106.000000	4.154781
4104.000000	4.159700
4102.000000	4.164248
4100.000000	4.168173
4098.000000	4.171759
4096.000000	4.175961
4094.000000	4.180579
4092.000000	4.184776
4090.000000	4.187768
4088.000000	4.190711
4086.000000	4.195654
4084.000000	4.201420
4082.000000	4.205805
4080.000000	4.209399
4078.000000	4.213750
4076.000000	4.218322
4074.000000	4.222802
4072.000000	4.228018
4070.000000	4.232787
4068.000000	4.236467
4066.000000	4.240671
4064.000000	4.245196
4062.000000	4.249321
4060.000000	4.253363
4058.000000	4.257330
4056.000000	4.261506
4054.000000	4.265489
4052.000000	4.269654
4050.000000	4.274602
4048.000000	4.278749
4046.000000	4.282158
4044.000000	4.285758
4042.000000	4.289957
4040.000000	4.294970
4038.000000	4.299553
4036.000000	4.304299
4034.000000	4.309475
4032.000000	4.313935
4030.000000	4.317919
4028.000000	4.322349
4026.000000	4.327240
4024.000000	4.331555
4022.000000	4.335464
4020.000000	4.340095
4018.000000	4.344788
4016.000000	4.348851
4014.000000	4.353517
4012.000000	4.358609
4010.000000	4.362848
4008.000000	4.366981
4006.000000	4.371394
4004.000000	4.376026
4002.000000	4.380497
4000.000000	4.384614
3998.000000	4.389164
3996.000000	4.394320
3994.000000	4.399292
3992.000000	4.402977
3990.000000	4.406181
3988.000000	4.409995
3986.000000	4.413838
3984.000000	4.417763
3982.000000	4.422092
3980.000000	4.426841
3978.000000	4.432257
3976.000000	4.437551
3974.000000	4.441270
3972.000000	4.444481
3970.000000	4.448315
3968.000000	4.451857
3966.000000	4.456222
3964.000000	4.461482
3962.000000	4.464814
3960.000000	4.467856
3958.000000	4.472601
3956.000000	4.476768
3954.000000	4.480485
3952.000000	4.484936
3950.000000	4.487642
3948.000000	4.489106
3946.000000	4.493544
3944.000000	4.498945
3942.000000	4.502116
3940.000000	4.507561
3938.000000	4.515929
3936.000000	4.521685
3934.000000	4.522530
3932.000000	4.520795
3930.000000	4.522803
3928.000000	4.530856
3926.000000	4.537587
3924.000000	4.540122
3922.000000	4.543310
3920.000000	4.546009
3918.000000	4.546122
3916.000000	4.550058
3914.000000	4.561414
3912.000000	4.573337
3910.000000	4.579883
3908.000000	4.580986
3906.000000	4.572874
3904.000000	4.555850
3902.000000	4.544161
3900.000000	4.548061
3898.000000	4.565177
3896.000000	4.588583
3894.000000	4.602784
3892.000000	4.597579
3890.000000	4.592107
3888.000000	4.598242
3886.000000	4.595988
3884.000000	4.592123
3882.000000	4.603772
3880.000000	4.614094
3878.000000	4.622360
3876.000000	4.634056
3874.000000	4.635173
3872.000000	4.624349
3870.000000	4.609235
3868.000000	4.607974
3866.000000	4.624051
3864.000000	4.634069
3862.000000	4.641764
3860.000000	4.659382
3858.000000	4.671427
3856.000000	4.645080
3854.000000	4.576145
3852.000000	4.544328
3850.000000	4.601477
3848.000000	4.676631
3846.000000	4.706169
3844.000000	4.704717
3842.000000	4.696448
3840.000000	4.680593
3838.000000	4.654685
3836.000000	4.648657
3834.000000	4.677674
3832.000000	4.707547
3830.000000	4.723785
3828.000000	4.736930
3826.000000	4.743875
3824.000000	4.740219
3822.000000	4.722266
3820.000000	4.707262
3818.000000	4.711145
3816.000000	4.711148
3814.000000	4.720449
3812.000000	4.758198
3810.000000	4.782753
3808.000000	4.771140
3806.000000	4.753033
3804.000000	4.752526
3802.000000	4.744471
3800.000000	4.735157
3798.000000	4.760900
3796.000000	4.792835
3794.000000	4.809597
3792.000000	4.824129
3790.000000	4.832768
3788.000000	4.835632
3786.000000	4.836946
3784.000000	4.837692
3782.000000	4.839804
3780.000000	4.839081
3778.000000	4.838856
3776.000000	4.848978
3774.000000	4.861451
3772.000000	4.862194
3770.000000	4.851874
3768.000000	4.848309
3766.000000	4.857491
3764.000000	4.867865
3762.000000	4.875469
3760.000000	4.874448
3758.000000	4.870881
3756.000000	4.876069
3754.000000	4.865703
3752.000000	4.821993
3750.000000	4.786797
3748.000000	4.798606
3746.000000	4.813776
3744.000000	4.797366
3742.000000	4.817446
3740.000000	4.879965
3738.000000	4.899700
3736.000000	4.877544
3734.000000	4.867102
3732.000000	4.880707
3730.000000	4.908589
3728.000000	4.935678
3726.000000	4.944778
3724.000000	4.945839
3722.000000	4.952403
3720.000000	4.962456
3718.000000	4.974066
3716.000000	4.981063
3714.000000	4.971632
3712.000000	4.946651
3710.000000	4.937862
3708.000000	4.961307
3706.000000	4.991200
3704.000000	5.005297
3702.000000	5.003671
3700.000000	5.004251
3698.000000	5.016197
3696.000000	5.025945
3694.000000	5.026793
3692.000000	5.015897
3690.000000	4.987530
3688.000000	4.963745
3686.000000	4.983903
3684.000000	5.030377
3682.000000	5.053901
3680.000000	5.051763
3678.000000	5.031644
3676.000000	4.992464
3674.000000	4.974182
3672.000000	4.991628
3670.000000	4.998302
3668.000000	5.012251
3666.000000	5.055160
3664.000000	5.085889
3662.000000	5.094376
3660.000000	5.094957
3658.000000	5.086418
3656.000000	5.071977
3654.000000	5.071723
3652.000000	5.070536
3650.000000	5.038824
3648.000000	5.015920
3646.000000	5.043265
3644.000000	5.089506
3642.000000	5.114495
3640.000000	5.121106
3638.000000	5.122688
3636.000000	5.121459
3634.000000	5.118817
3632.000000	5.110498
3630.000000	5.081034
3628.000000	5.052639
3626.000000	5.074388
3624.000000	5.117641
3622.000000	5.129651
3620.000000	5.114752
3618.000000	5.102232
3616.000000	5.110331
3614.000000	5.120229
3612.000000	5.116812
3610.000000	5.109850
3608.000000	5.107814
3606.000000	5.119963
3604.000000	5.139182
3602.000000	5.146782
3600.000000	5.144815
3598.000000	5.142164
3596.000000	5.139334
3594.000000	5.138081
3592.000000	5.140663
3590.000000	5.138070
3588.000000	5.123881
3586.000000	5.117642
3584.000000	5.132319
3582.000000	5.148316
3580.000000	5.152505
3578.000000	5.152529
3576.000000	5.153648
3574.000000	5.154286
3572.000000	5.153284
3570.000000	5.146202
3568.000000	5.130391
3566.000000	5.119410
3564.000000	5.127124
3562.000000	5.140602
3560.000000	5.146009
3558.000000	5.147958
3556.000000	5.148936
3554.000000	5.146511
3552.000000	5.142250
3550.000000	5.139984
3548.000000	5.137550
3546.000000	5.132678
3544.000000	5.131944
3542.000000	5.135927
3540.000000	5.138437
3538.000000	5.137221
3536.000000	5.133450
3534.000000	5.130860
3532.000000	5.129595
3530.000000	5.126253
3528.000000	5.121180
3526.000000	5.115878
3524.000000	5.110451
3522.000000	5.106469
3520.000000	5.105110
3518.000000	5.103479
3516.000000	5.099913
3514.000000	5.094934
3512.000000	5.089537
3510.000000	5.083626
3508.000000	5.078066
3506.000000	5.073448
3504.000000	5.067678
3502.000000	5.061484
3500.000000	5.056803
3498.000000	5.051816
3496.000000	5.045969
3494.000000	5.041024
3492.000000	5.036539
3490.000000	5.030899
3488.000000	5.024239
3486.000000	5.018973
3484.000000	5.013987
3482.000000	5.006636
3480.000000	5.000195
3478.000000	4.997086
3476.000000	4.994121
3474.000000	4.989901
3472.000000	4.986368
3470.000000	4.984170
3468.000000	4.982774
3466.000000	4.981076
3464.000000	4.978838
3462.000000	4.976150
3460.000000	4.973319
3458.000000	4.970158
3456.000000	4.967629
3454.000000	4.965804
3452.000000	4.963072
3450.000000	4.959546
3448.000000	4.954934
3446.000000	4.950536
3444.000000	4.949742
3442.000000	4.950096
3440.000000	4.949346
3438.000000	4.949587
3436.000000	4.951771
3434.000000	4.955253
3432.000000	4.958103
3430.000000	4.961216
3428.000000	4.966208
3426.000000	4.970680
3424.000000	4.974343
3422.000000	4.978107
3420.000000	4.980899
3418.000000	4.983201
3416.000000	4.986335
3414.000000	4.989701
3412.000000	4.992066
3410.000000	4.993960
3408.000000	4.995762
3406.000000	4.996845
3404.000000	4.997480
3402.000000	4.997937
3400.000000	4.998732
3398.000000	4.999236
3396.000000	5.001277
3394.000000	5.004940
3392.000000	5.007189
3390.000000	5.009441
3388.000000	5.012829
3386.000000	5.016227
3384.000000	5.019367
3382.000000	5.021407
3380.000000	5.023352
3378.000000	5.025421
3376.000000	5.026539
3374.000000	5.027847
3372.000000	5.030152
3370.000000	5.031697
3368.000000	5.032727
3366.000000	5.033412
3364.000000	5.034387
3362.000000	5.036780
3360.000000	5.038480
3358.000000	5.039887
3356.000000	5.042932
3354.000000	5.045659
3352.000000	5.046879
3350.000000	5.047442
3348.000000	5.048730
3346.000000	5.051134
3344.000000	5.054118
3342.000000	5.057437
3340.000000	5.058161
3338.000000	5.057910
3336.000000	5.059682
3334.000000	5.061836
3332.000000	5.063856
3330.000000	5.066230
3328.000000	5.068085
3326.000000	5.068951
3324.000000	5.070123
3322.000000	5.071345
3320.000000	5.072062
3318.000000	5.073733
3316.000000	5.075787
3314.000000	5.076816
3312.000000	5.078112
3310.000000	5.079924
3308.000000	5.080880
3306.000000	5.081978
3304.000000	5.083153
3302.000000	5.084732
3300.000000	5.087460
3298.000000	5.090314
3296.000000	5.092306
3294.000000	5.092966
3292.000000	5.094104
3290.000000	5.095675
3288.000000	5.097322
3286.000000	5.099300
3284.000000	5.101800
3282.000000	5.104298
3280.000000	5.106408
3278.000000	5.108412
3276.000000	5.109269
3274.000000	5.109753
3272.000000	5.111346
3270.000000	5.114543
3268.000000	5.117434
3266.000000	5.119299
3264.000000	5.121867
3262.000000	5.124480
3260.000000	5.125953
3258.000000	5.126724
3256.000000	5.127881
3254.000000	5.129019
3252.000000	5.131324
3250.000000	5.135346
3248.000000	5.138546
3246.000000	5.140366
3244.000000	5.141954
3242.000000	5.144149
3240.000000	5.146688
3238.000000	5.148231
3236.000000	5.150043
3234.000000	5.152856
3232.000000	5.155806
3230.000000	5.158045
3228.000000	5.158795
3226.000000	5.160953
3224.000000	5.164870
3222.000000	5.168483
3220.000000	5.170809
3218.000000	5.171902
3216.000000	5.174055
3214.000000	5.177533
3212.000000	5.181160
3210.000000	5.184719
3208.000000	5.187557
3206.000000	5.189442
3204.000000	5.192184
3202.000000	5.195869
3200.000000	5.200062
3198.000000	5.204672
3196.000000	5.208568
3194.000000	5.212328
3192.000000	5.216374
3190.000000	5.219579
3188.000000	5.222682
3186.000000	5.226786
3184.000000	5.231717
3182.000000	5.236538
3180.000000	5.240813
3178.000000	5.244517
3176.000000	5.248455
3174.000000	5.252164
3172.000000	5.255378
3170.000000	5.258870
3168.000000	5.262880
3166.000000	5.266597
3164.000000	5.270145
3162.000000	5.274407
3160.000000	5.279217
3158.000000	5.283861
3156.000000	5.287760
3154.000000	5.291758
3152.000000	5.295754
3150.000000	5.299759
3148.000000	5.303301
3146.000000	5.306663
3144.000000	5.310943
3142.000000	5.315587
3140.000000	5.318657
3138.000000	5.321261
3136.000000	5.324787
3134.000000	5.328296
3132.000000	5.331963
3130.000000	5.335997
3128.000000	5.340074
3126.000000	5.343442
3124.000000	5.347463
3122.000000	5.351467
3120.000000	5.353360
3118.000000	5.354884
3116.000000	5.358029
3114.000000	5.361878
3112.000000	5.365712
3110.000000	5.369346
3108.000000	5.372508
3106.000000	5.375007
3104.000000	5.378775
3102.000000	5.383128
3100.000000	5.386563
3098.000000	5.389705
3096.000000	5.393892
3094.000000	5.399575
3092.000000	5.405991
3090.000000	5.409774
3088.000000	5.412247
3086.000000	5.416643
3084.000000	5.421255
3082.000000	5.424040
3080.000000	5.426538
3078.000000	5.429212
3076.000000	5.431847
3074.000000	5.434447
3072.000000	5.437614
3070.000000	5.440713
3068.000000	5.442165
3066.000000	5.442492
3064.000000	5.443801
3062.000000	5.446937
3060.000000	5.450348
3058.000000	5.453772
3056.000000	5.458173
3054.000000	5.463333
3052.000000	5.467847
3050.000000	5.471026
3048.000000	5.473750
3046.000000	5.476388
3044.000000	5.479201
3042.000000	5.481673
3040.000000	5.483807
3038.000000	5.485453
3036.000000	5.486672
3034.000000	5.487449
3032.000000	5.487256
3030.000000	5.486698
3028.000000	5.484640
3026.000000	5.479814
3024.000000	5.473934
3022.000000	5.466927
3020.000000	5.460002
3018.000000	5.458116
3016.000000	5.463950
3014.000000	5.475508
3012.000000	5.491071
3010.000000	5.507695
3008.000000	5.523556
3006.000000	5.537673
3004.000000	5.547871
3002.000000	5.554051
3000.000000	5.558539
2998.000000	5.561818
2996.000000	5.563655
2994.000000	5.564661
2992.000000	5.565715
2990.000000	5.566999
2988.000000	5.566759
2986.000000	5.565346
2984.000000	5.562948
2982.000000	5.558348
2980.000000	5.551992
2978.000000	5.543053
2976.000000	5.530449
2974.000000	5.512486
2972.000000	5.488471
2970.000000	5.458220
2968.000000	5.423568
2966.000000	5.388313
2964.000000	5.358435
2962.000000	5.340352
2960.000000	5.337005
2958.000000	5.346259
2956.000000	5.363086
2954.000000	5.380140
2952.000000	5.393345
2950.000000	5.402435
2948.000000	5.406942
2946.000000	5.404356
2944.000000	5.393809
2942.000000	5.375532
2940.000000	5.349755
2938.000000	5.317900
2936.000000	5.286339
2934.000000	5.259988
2932.000000	5.236259
2930.000000	5.212676
2928.000000	5.189889
2926.000000	5.172470
2924.000000	5.168135
2922.000000	5.183022
2920.000000	5.216621
2918.000000	5.262544
2916.000000	5.313800
2914.000000	5.365221
2912.000000	5.412060
2910.000000	5.450050
2908.000000	5.479111
2906.000000	5.502902
2904.000000	5.523648
2902.000000	5.541665
2900.000000	5.558099
2898.000000	5.573396
2896.000000	5.587785
2894.000000	5.601601
2892.000000	5.614704
2890.000000	5.626846
2888.000000	5.638418
2886.000000	5.648881
2884.000000	5.657710
2882.000000	5.662948
2880.000000	5.664428
2878.000000	5.663035
2876.000000	5.658900
2874.000000	5.651425
2872.000000	5.640292
2870.000000	5.623082
2868.000000	5.598405
2866.000000	5.566773
2864.000000	5.531135
2862.000000	5.501538
2860.000000	5.487483
2858.000000	5.491490
2856.000000	5.507691
2854.000000	5.527431
2852.000000	5.549391
2850.000000	5.576195
2848.000000	5.609335
2846.000000	5.646877
2844.000000	5.683120
2842.000000	5.713584
2840.000000	5.738283
2838.000000	5.757178
2836.000000	5.770430
2834.000000	5.782691
2832.000000	5.794002
2830.000000	5.803113
2828.000000	5.811697
2826.000000	5.818910
2824.000000	5.824380
2822.000000	5.830336
2820.000000	5.836457
2818.000000	5.841550
2816.000000	5.846535
2814.000000	5.850866
2812.000000	5.854564
2810.000000	5.857863
2808.000000	5.860607
2806.000000	5.863653
2804.000000	5.867783
2802.000000	5.871407
2800.000000	5.873458
2798.000000	5.875256
2796.000000	5.878603
2794.000000	5.882406
2792.000000	5.885219
2790.000000	5.888277
2788.000000	5.892345
2786.000000	5.897151
2784.000000	5.902661
2782.000000	5.908556
2780.000000	5.913096
2778.000000	5.917249
2776.000000	5.921903
2774.000000	5.925593
2772.000000	5.929064
2770.000000	5.932160
2768.000000	5.935851
2766.000000	5.939402
2764.000000	5.942024
2762.000000	5.943641
2760.000000	5.945773
2758.000000	5.949452
2756.000000	5.952499
2754.000000	5.954609
2752.000000	5.956720
2750.000000	5.958476
2748.000000	5.960219
2746.000000	5.962167
2744.000000	5.963940
2742.000000	5.965803
2740.000000	5.968922
2738.000000	5.972053
2736.000000	5.973796
2734.000000	5.975035
2732.000000	5.976487
2730.000000	5.977909
2728.000000	5.979223
2726.000000	5.980074
2724.000000	5.980633
2722.000000	5.981588
2720.000000	5.982738
2718.000000	5.983837
2716.000000	5.984704
2714.000000	5.984903
2712.000000	5.986130
2710.000000	5.988418
2708.000000	5.988967
2706.000000	5.988283
2704.000000	5.989354
2702.000000	5.990929
2700.000000	5.991597
2698.000000	5.992157
2696.000000	5.994182
2694.000000	5.996802
2692.000000	5.999157
2690.000000	6.000621
2688.000000	6.001177
2686.000000	6.002494
2684.000000	6.004564
2682.000000	6.006459
2680.000000	6.006877
2678.000000	6.005808
2676.000000	6.006323
2674.000000	6.007902
2672.000000	6.009345
2670.000000	6.010131
2668.000000	6.010623
2666.000000	6.011209
2664.000000	6.012566
2662.000000	6.014087
2660.000000	6.015144
2658.000000	6.014416
2656.000000	6.013573
2654.000000	6.014468
2652.000000	6.017132
2650.000000	6.019871
2648.000000	6.021481
2646.000000	6.023952
2644.000000	6.026342
2642.000000	6.026562
2640.000000	6.027161
2638.000000	6.028700
2636.000000	6.029943
2634.000000	6.031258
2632.000000	6.032858
2630.000000	6.034140
2628.000000	6.035564
2626.000000	6.037867
2624.000000	6.040239
2622.000000	6.041857
2620.000000	6.043193
2618.000000	6.044320
2616.000000	6.045076
2614.000000	6.045835
2612.000000	6.047614
2610.000000	6.048447
2608.000000	6.049155
2606.000000	6.049186
2604.000000	6.049228
2602.000000	6.050207
2600.000000	6.050550
2598.000000	6.051642
2596.000000	6.052528
2594.000000	6.052884
2592.000000	6.054247
2590.000000	6.055038
2588.000000	6.056669
2586.000000	6.059996
2584.000000	6.062538
2582.000000	6.065704
2580.000000	6.069541
2578.000000	6.072804
2576.000000	6.075644
2574.000000	6.078827
2572.000000	6.082393
2570.000000	6.085251
2568.000000	6.086802
2566.000000	6.087961
2564.000000	6.088948
2562.000000	6.090145
2560.000000	6.092402
2558.000000	6.094911
2556.000000	6.096756
2554.000000	6.098043
2552.000000	6.098708
2550.000000	6.099258
2548.000000	6.100478
2546.000000	6.102717
2544.000000	6.104383
2542.000000	6.105269
2540.000000	6.106498
2538.000000	6.107927
2536.000000	6.110685
2534.000000	6.111934
2532.000000	6.112948
2530.000000	6.115154
2528.000000	6.116318
2526.000000	6.116976
2524.000000	6.118729
2522.000000	6.121032
2520.000000	6.123196
2518.000000	6.123798
2516.000000	6.124840
2514.000000	6.126653
2512.000000	6.127944
2510.000000	6.129545
2508.000000	6.130590
2506.000000	6.130780
2504.000000	6.132473
2502.000000	6.133373
2500.000000	6.134072
2498.000000	6.137094
2496.000000	6.140323
2494.000000	6.141961
2492.000000	6.142874
2490.000000	6.143571
2488.000000	6.145505
2486.000000	6.147942
2484.000000	6.150298
2482.000000	6.150927
2480.000000	6.151705
2478.000000	6.153983
2476.000000	6.155640
2474.000000	6.156494
2472.000000	6.157220
2470.000000	6.158220
2468.000000	6.158943
2466.000000	6.158750
2464.000000	6.158628
2462.000000	6.158817
2460.000000	6.159426
2458.000000	6.161488
2456.000000	6.164018
2454.000000	6.165190
2452.000000	6.165811
2450.000000	6.166053
2448.000000	6.167776
2446.000000	6.171039
2444.000000	6.171021
2442.000000	6.169116
2440.000000	6.169580
2438.000000	6.171469
2436.000000	6.173096
2434.000000	6.174656
2432.000000	6.176648
2430.000000	6.177446
2428.000000	6.177585
2426.000000	6.177878
2424.000000	6.179595
2422.000000	6.180471
2420.000000	6.179483
2418.000000	6.179357
2416.000000	6.181631
2414.000000	6.183735
2412.000000	6.183929
2410.000000	6.184456
2408.000000	6.184516
2406.000000	6.185142
2404.000000	6.186466
2402.000000	6.186661
2400.000000	6.187217
2398.000000	6.189557
2396.000000	6.192173
2394.000000	6.193246
2392.000000	6.194467
2390.000000	6.196019
2388.000000	6.196405
2386.000000	6.196297
2384.000000	6.195078
2382.000000	6.193334
2380.000000	6.191429
2378.000000	6.187177
2376.000000	6.179374
2374.000000	6.167172
2372.000000	6.152196
2370.000000	6.136231
2368.000000	6.120778
2366.000000	6.106520
2364.000000	6.096307
2362.000000	6.091311
2360.000000	6.092297
2358.000000	6.099043
2356.000000	6.112733
2354.000000	6.131750
2352.000000	6.153525
2350.000000	6.174989
2348.000000	6.182821
2346.000000	6.170910
2344.000000	6.149713
2342.000000	6.126425
2340.000000	6.107438
2338.000000	6.100908
2336.000000	6.106070
2334.000000	6.115128
2332.000000	6.122069
2330.000000	6.128677
2328.000000	6.138176
2326.000000	6.146810
2324.000000	6.153863
2322.000000	6.162651
2320.000000	6.171699
2318.000000	6.179069
2316.000000	6.185852
2314.000000	6.190928
2312.000000	6.194933
2310.000000	6.199675
2308.000000	6.203510
2306.000000	6.205515
2304.000000	6.208276
2302.000000	6.211045
2300.000000	6.211747
2298.000000	6.212238
2296.000000	6.213388
2294.000000	6.214227
2292.000000	6.215417
2290.000000	6.216722
2288.000000	6.217359
2286.000000	6.216831
2284.000000	6.216889
2282.000000	6.217108
2280.000000	6.216651
2278.000000	6.215636
2276.000000	6.215347
2274.000000	6.215868
2272.000000	6.216503
2270.000000	6.217450
2268.000000	6.217733
2266.000000	6.216104
2264.000000	6.215079
2262.000000	6.215079
2260.000000	6.214789
2258.000000	6.214375
2256.000000	6.215061
2254.000000	6.215774
2252.000000	6.215939
2250.000000	6.216291
2248.000000	6.218116
2246.000000	6.220245
2244.000000	6.221231
2242.000000	6.221121
2240.000000	6.220895
2238.000000	6.223078
2236.000000	6.225266
2234.000000	6.225489
2232.000000	6.226178
2230.000000	6.227222
2228.000000	6.229267
2226.000000	6.230150
2224.000000	6.231585
2222.000000	6.232858
2220.000000	6.233761
2218.000000	6.234358
2216.000000	6.235312
2214.000000	6.235892
2212.000000	6.234944
2210.000000	6.234364
2208.000000	6.235518
2206.000000	6.236548
2204.000000	6.238198
2202.000000	6.241136
2200.000000	6.242442
2198.000000	6.242781
2196.000000	6.242331
2194.000000	6.241139
2192.000000	6.241121
2190.000000	6.242691
2188.000000	6.243933
2186.000000	6.243518
2184.000000	6.244130
2182.000000	6.246725
2180.000000	6.248866
2178.000000	6.248570
2176.000000	6.248459
2174.000000	6.248337
2172.000000	6.247799
2170.000000	6.246792
2168.000000	6.247811
2166.000000	6.249940
2164.000000	6.250505
2162.000000	6.250835
2160.000000	6.251171
2158.000000	6.252085
2156.000000	6.253780
2154.000000	6.254694
2152.000000	6.255527
2150.000000	6.255545
2148.000000	6.256693
2146.000000	6.258000
2144.000000	6.257186
2142.000000	6.257024
2140.000000	6.258525
2138.000000	6.259821
2136.000000	6.259930
2134.000000	6.259640
2132.000000	6.260407
2130.000000	6.261904
2128.000000	6.263213
2126.000000	6.263470
2124.000000	6.263500
2122.000000	6.264804
2120.000000	6.266129
2118.000000	6.266321
2116.000000	6.266384
2114.000000	6.268197
2112.000000	6.269747
2110.000000	6.269843
2108.000000	6.271258
2106.000000	6.273426
2104.000000	6.275275
2102.000000	6.276828
2100.000000	6.278588
2098.000000	6.278800
2096.000000	6.279670
2094.000000	6.281712
2092.000000	6.282129
2090.000000	6.281859
2088.000000	6.283929
2086.000000	6.286276
2084.000000	6.287260
2082.000000	6.288280
2080.000000	6.290790
2078.000000	6.293545
2076.000000	6.294693
2074.000000	6.296566
2072.000000	6.299371
2070.000000	6.300657
2068.000000	6.300981
2066.000000	6.302029
2064.000000	6.304438
2062.000000	6.306932
2060.000000	6.308848
2058.000000	6.309780
2056.000000	6.311059
2054.000000	6.313938
2052.000000	6.316877
2050.000000	6.318086
2048.000000	6.319190
2046.000000	6.321080
2044.000000	6.322342
2042.000000	6.322700
2040.000000	6.324169
2038.000000	6.325468
2036.000000	6.326251
2034.000000	6.327743
2032.000000	6.329428
2030.000000	6.330193
2028.000000	6.329976
2026.000000	6.331255
2024.000000	6.334337
2022.000000	6.336416
2020.000000	6.336450
2018.000000	6.335948
2016.000000	6.336881
2014.000000	6.339784
2012.000000	6.342948
2010.000000	6.344130
2008.000000	6.344377
2006.000000	6.345672
2004.000000	6.346241
2002.000000	6.347049
2000.000000	6.347834
1998.000000	6.347891
1996.000000	6.349046
1994.000000	6.349031
1992.000000	6.344722
1990.000000	6.344878
1988.000000	6.349528
1986.000000	6.350934
1984.000000	6.350657
1982.000000	6.350636
1980.000000	6.350941
1978.000000	6.350696
1976.000000	6.350247
1974.000000	6.348360
1972.000000	6.347449
1970.000000	6.345692
1968.000000	6.341759
1966.000000	6.340422
1964.000000	6.342439
1962.000000	6.340519
1960.000000	6.333870
1958.000000	6.329851
1956.000000	6.333527
1954.000000	6.335496
1952.000000	6.334561
1950.000000	6.333442
1948.000000	6.332982
1946.000000	6.330218
1944.000000	6.323464
1942.000000	6.317961
1940.000000	6.321551
1938.000000	6.325906
1936.000000	6.325867
1934.000000	6.322843
1932.000000	6.320686
1930.000000	6.319191
1928.000000	6.316382
1926.000000	6.314000
1924.000000	6.308813
1922.000000	6.303088
1920.000000	6.298576
1918.000000	6.286282
1916.000000	6.286920
1914.000000	6.295951
1912.000000	6.295046
1910.000000	6.289132
1908.000000	6.284814
1906.000000	6.283078
1904.000000	6.280623
1902.000000	6.278027
1900.000000	6.275224
1898.000000	6.271616
1896.000000	6.266772
1894.000000	6.263483
1892.000000	6.261642
1890.000000	6.253001
1888.000000	6.250958
1886.000000	6.258326
1884.000000	6.259704
1882.000000	6.259269
1880.000000	6.258668
1878.000000	6.256921
1876.000000	6.255009
1874.000000	6.253936
1872.000000	6.247603
1870.000000	6.226769
1868.000000	6.214048
1866.000000	6.228418
1864.000000	6.241743
1862.000000	6.243155
1860.000000	6.240635
1858.000000	6.239198
1856.000000	6.237882
1854.000000	6.236139
1852.000000	6.234071
1850.000000	6.231285
1848.000000	6.223538
1846.000000	6.200480
1844.000000	6.168606
1842.000000	6.182233
1840.000000	6.210489
1838.000000	6.211516
1836.000000	6.207605
1834.000000	6.204802
1832.000000	6.191821
1830.000000	6.167634
1828.000000	6.164596
1826.000000	6.167031
1824.000000	6.164104
1822.000000	6.174444
1820.000000	6.176160
1818.000000	6.170116
1816.000000	6.165974
1814.000000	6.162110
1812.000000	6.151109
1810.000000	6.140816
1808.000000	6.139239
1806.000000	6.138938
1804.000000	6.130632
1802.000000	6.113783
1800.000000	6.099543
1798.000000	6.099291
1796.000000	6.097785
1794.000000	6.070063
1792.000000	6.035691
1790.000000	6.050089
1788.000000	6.074507
1786.000000	6.066231
1784.000000	6.052084
1782.000000	6.048121
1780.000000	6.040292
1778.000000	6.037560
1776.000000	6.026830
1774.000000	5.983205
1772.000000	5.936700
1770.000000	5.951794
1768.000000	5.972508
1766.000000	5.985623
1764.000000	5.989276
1762.000000	5.962816
1760.000000	5.957649
1758.000000	5.960734
1756.000000	5.948437
1754.000000	5.942086
1752.000000	5.902967
1750.000000	5.869733
1748.000000	5.881178
1746.000000	5.892839
1744.000000	5.889175
1742.000000	5.870972
1740.000000	5.844060
1738.000000	5.839323
1736.000000	5.809015
1734.000000	5.725927
1732.000000	5.747321
1730.000000	5.817526
1728.000000	5.839476
1726.000000	5.843343
1724.000000	5.836334
1722.000000	5.828618
1720.000000	5.793089
1718.000000	5.708471
1716.000000	5.686136
1714.000000	5.743299
1712.000000	5.782654
1710.000000	5.791266
1708.000000	5.774827
1706.000000	5.746337
1704.000000	5.729633
1702.000000	5.682692
1700.000000	5.599310
1698.000000	5.611219
1696.000000	5.608167
1694.000000	5.645038
1692.000000	5.727062
1690.000000	5.736063
1688.000000	5.718763
1686.000000	5.639668
1684.000000	5.556969
1682.000000	5.620499
1680.000000	5.697604
1678.000000	5.702118
1676.000000	5.662333
1674.000000	5.642286
1672.000000	5.658019
1670.000000	5.632380
1668.000000	5.630633
1666.000000	5.663451
1664.000000	5.655866
1662.000000	5.632278
1660.000000	5.645846
1658.000000	5.651028
1656.000000	5.601164
1654.000000	5.452918
1652.000000	5.388838
1650.000000	5.509526
1648.000000	5.545600
1646.000000	5.504826
1644.000000	5.536202
1642.000000	5.578221
1640.000000	5.572870
1638.000000	5.531671
1636.000000	5.455184
1634.000000	5.451811
1632.000000	5.511820
1630.000000	5.519038
1628.000000	5.492384
1626.000000	5.469091
1624.000000	5.433866
1622.000000	5.406148
1620.000000	5.396997
1618.000000	5.333730
1616.000000	5.271402
1614.000000	5.292301
1612.000000	5.293450
1610.000000	5.252827
1608.000000	5.226400
1606.000000	5.223230
1604.000000	5.234352
1602.000000	5.247911
1600.000000	5.262842
1598.000000	5.275342
1596.000000	5.284423
1594.000000	5.290836
1592.000000	5.296826
1590.000000	5.298579
1588.000000	5.297315
1586.000000	5.292196
1584.000000	5.286917
1582.000000	5.283766
1580.000000	5.279067
1578.000000	5.233672
1576.000000	5.168623
1574.000000	5.203113
1572.000000	5.248465
1570.000000	5.218945
1568.000000	5.212090
1566.000000	5.224027
1564.000000	5.213432
1562.000000	5.159685
1560.000000	5.025854
1558.000000	4.971321
1556.000000	5.063094
1554.000000	5.127856
1552.000000	5.167330
1550.000000	5.194842
1548.000000	5.210112
1546.000000	5.205452
1544.000000	5.178381
1542.000000	5.130941
1540.000000	5.080013
1538.000000	5.131539
1536.000000	5.238863
1534.000000	5.255453
1532.000000	5.264284
1530.000000	5.294145
1528.000000	5.289796
1526.000000	5.266641
1524.000000	5.246631
1522.000000	5.197732
1520.000000	5.183520
1518.000000	5.218151
1516.000000	5.224109
1514.000000	5.229485
1512.000000	5.221103
1510.000000	5.194249
1508.000000	5.109972
1506.000000	5.031573
1504.000000	5.065335
1502.000000	5.073768
1500.000000	4.953130
1498.000000	4.754292
1496.000000	4.571550
1494.000000	4.520859
1492.000000	4.573785
1490.000000	4.662481
1488.000000	4.778196
1486.000000	4.888233
1484.000000	4.966925
1482.000000	5.006347
1480.000000	5.025023
1478.000000	5.024806
1476.000000	4.999372
1474.000000	4.956573
1472.000000	4.929823
1470.000000	4.958375
1468.000000	4.972671
1466.000000	4.935762
1464.000000	4.901717
1462.000000	4.895875
1460.000000	4.851997
1458.000000	4.735553
1456.000000	4.646604
1454.000000	4.648857
1452.000000	4.638398
1450.000000	4.629661
1448.000000	4.665282
1446.000000	4.727491
1444.000000	4.771323
1442.000000	4.784668
1440.000000	4.781772
1438.000000	4.749808
1436.000000	4.727721
1434.000000	4.766125
1432.000000	4.787705
1430.000000	4.780648
1428.000000	4.781064
1426.000000	4.785250
1424.000000	4.778430
1422.000000	4.766156
1420.000000	4.724593
1418.000000	4.706933
1416.000000	4.732893
1414.000000	4.738356
1412.000000	4.720864
1410.000000	4.692283
1408.000000	4.651586
1406.000000	4.600086
1404.000000	4.564305
1402.000000	4.560592
1400.000000	4.567472
1398.000000	4.587115
1396.000000	4.610017
1394.000000	4.626838
1392.000000	4.656601
1390.000000	4.668981
1388.000000	4.648121
1386.000000	4.629328
1384.000000	4.627413
1382.000000	4.631286
1380.000000	4.638324
1378.000000	4.637456
1376.000000	4.628012
1374.000000	4.616257
1372.000000	4.617366
1370.000000	4.617268
1368.000000	4.608012
1366.000000	4.599096
1364.000000	4.582972
1362.000000	4.566991
1360.000000	4.563672
1358.000000	4.560752
1356.000000	4.552219
1354.000000	4.541157
1352.000000	4.529869
1350.000000	4.516839
1348.000000	4.503787
1346.000000	4.491032
1344.000000	4.476992
1342.000000	4.460030
1340.000000	4.441445
1338.000000	4.430517
1336.000000	4.428353
1334.000000	4.426616
1332.000000	4.420278
1330.000000	4.409632
1328.000000	4.396916
1326.000000	4.382435
1324.000000	4.367466
1322.000000	4.351125
1320.000000	4.333306
1318.000000	4.315627
1316.000000	4.298828
1314.000000	4.280116
1312.000000	4.262636
1310.000000	4.245840
1308.000000	4.226368
1306.000000	4.205828
1304.000000	4.186480
1302.000000	4.167559
1300.000000	4.148589
1298.000000	4.128856
1296.000000	4.107625
1294.000000	4.086344
1292.000000	4.064416
1290.000000	4.040502
1288.000000	4.016210
1286.000000	3.991129
1284.000000	3.965920
1282.000000	3.940170
1280.000000	3.912941
1278.000000	3.883302
1276.000000	3.849713
1274.000000	3.811104
1272.000000	3.766628
1270.000000	3.711586
1268.000000	3.641325
1266.000000	3.552810
1264.000000	3.454173
1262.000000	3.367089
1260.000000	3.316737
1258.000000	3.311495
1256.000000	3.338162
1254.000000	3.369048
1252.000000	3.383356
1250.000000	3.377134
1248.000000	3.357707
1246.000000	3.329899
1244.000000	3.297993
1242.000000	3.266466
1240.000000	3.235248
1238.000000	3.203766
1236.000000	3.173082
1234.000000	3.143459
1232.000000	3.114970
1230.000000	3.087365
1228.000000	3.059483
1226.000000	3.029498
1224.000000	3.000176
1222.000000	2.970450
1220.000000	2.939787
1218.000000	2.908971
1216.000000	2.877098
1214.000000	2.844161
1212.000000	2.812224
1210.000000	2.782388
1208.000000	2.755702
1206.000000	2.730598
1204.000000	2.707197
1202.000000	2.683676
1200.000000	2.658666
1198.000000	2.632508
1196.000000	2.606640
1194.000000	2.581205
1192.000000	2.555190
1190.000000	2.527912
1188.000000	2.500231
1186.000000	2.470747
1184.000000	2.436217
1182.000000	2.392736
1180.000000	2.354077
1178.000000	2.333846
1176.000000	2.318391
1174.000000	2.297406
1172.000000	2.272374
1170.000000	2.245091
1168.000000	2.216059
1166.000000	2.186074
1164.000000	2.155950
1162.000000	2.126299
1160.000000	2.097844
1158.000000	2.070522
1156.000000	2.044981
1154.000000	2.019685
1152.000000	1.994101
1150.000000	1.968429
1148.000000	1.942432
1146.000000	1.916742
1144.000000	1.890812
1142.000000	1.866899
1140.000000	1.846829
1138.000000	1.827485
1136.000000	1.805989
1134.000000	1.782023
1132.000000	1.757546
1130.000000	1.732869
1128.000000	1.708425
1126.000000	1.683248
1124.000000	1.657646
1122.000000	1.631627
1120.000000	1.605222
1118.000000	1.577771
1116.000000	1.549764
1114.000000	1.521130
1112.000000	1.492327
1110.000000	1.463362
1108.000000	1.435826
1106.000000	1.409959
1104.000000	1.384832
1102.000000	1.359406
1100.000000	1.335002
1098.000000	1.310896
1096.000000	1.287365
1094.000000	1.264175
1092.000000	1.243257
1090.000000	1.223328
1088.000000	1.204891
1086.000000	1.186460
1084.000000	1.166796
1082.000000	1.147240
1080.000000	1.128821
1078.000000	1.111160
1076.000000	1.094848
1074.000000	1.081816
1072.000000	1.072183
1070.000000	1.061082
1068.000000	1.048948
1066.000000	1.036960
1064.000000	1.023512
1062.000000	1.010476
1060.000000	0.998410
1058.000000	0.984143
1056.000000	0.965823
1054.000000	0.939111
1052.000000	0.909378
1050.000000	0.889458
1048.000000	0.885447
1046.000000	0.890984
1044.000000	0.893197
1042.000000	0.887585
1040.000000	0.878182
1038.000000	0.867153
1036.000000	0.855295
1034.000000	0.842743
1032.000000	0.829255
1030.000000	0.816214
1028.000000	0.801941
1026.000000	0.786346
1024.000000	0.771005
1022.000000	0.756394
1020.000000	0.742517
1018.000000	0.729664
1016.000000	0.718219
1014.000000	0.707937
1012.000000	0.700382
1010.000000	0.694383
1008.000000	0.688308
1006.000000	0.680545
1004.000000	0.671009
1002.000000	0.659759
1000.000000	0.648242
