PE IR       SUBTECH     SPECTRUM    ASCII       PEDS        4.00        
   -1
TE110A_018_80K_AFTER_90K_SB.ASC
20/05/14
12:10:25.00
20/05/14
12:10:25.00
Administrator
TE110A.Thursday, May 14 2020, 001.
1000.000000
#HDR
-1
-1
#GR
cm-1
EGY
1.0
0.0
6000.000000
-2.000000
2501
8
5.463796
0.556066
#DATA
6000.000000	0.835758
5998.000000	0.837279
5996.000000	0.838453
5994.000000	0.838775
5992.000000	0.839618
5990.000000	0.841658
5988.000000	0.844830
5986.000000	0.847184
5984.000000	0.848866
5982.000000	0.850733
5980.000000	0.852107
5978.000000	0.853095
5976.000000	0.855259
5974.000000	0.857535
5972.000000	0.859323
5970.000000	0.859221
5968.000000	0.860374
5966.000000	0.862351
5964.000000	0.863522
5962.000000	0.864813
5960.000000	0.866235
5958.000000	0.870017
5956.000000	0.873862
5954.000000	0.875691
5952.000000	0.876880
5950.000000	0.877708
5948.000000	0.880473
5946.000000	0.882888
5944.000000	0.883907
5942.000000	0.885685
5940.000000	0.887526
5938.000000	0.889000
5936.000000	0.889717
5934.000000	0.891012
5932.000000	0.894255
5930.000000	0.897413
5928.000000	0.899048
5926.000000	0.899317
5924.000000	0.899616
5922.000000	0.901429
5920.000000	0.903900
5918.000000	0.906540
5916.000000	0.908814
5914.000000	0.910381
5912.000000	0.911958
5910.000000	0.913706
5908.000000	0.916365
5906.000000	0.919082
5904.000000	0.920689
5902.000000	0.921518
5900.000000	0.923853
5898.000000	0.926393
5896.000000	0.928849
5894.000000	0.929971
5892.000000	0.931459
5890.000000	0.933630
5888.000000	0.936076
5886.000000	0.937946
5884.000000	0.939223
5882.000000	0.941333
5880.000000	0.943919
5878.000000	0.946385
5876.000000	0.947698
5874.000000	0.948830
5872.000000	0.950152
5870.000000	0.951680
5868.000000	0.954373
5866.000000	0.957378
5864.000000	0.960290
5862.000000	0.961816
5860.000000	0.962983
5858.000000	0.964094
5856.000000	0.965061
5854.000000	0.967115
5852.000000	0.969949
5850.000000	0.972896
5848.000000	0.974725
5846.000000	0.976785
5844.000000	0.979398
5842.000000	0.981800
5840.000000	0.982799
5838.000000	0.984325
5836.000000	0.987584
5834.000000	0.991670
5832.000000	0.993996
5830.000000	0.994409
5828.000000	0.994680
5826.000000	0.996657
5824.000000	0.999837
5822.000000	1.002823
5820.000000	1.004734
5818.000000	1.006098
5816.000000	1.007538
5814.000000	1.009793
5812.000000	1.012685
5810.000000	1.015521
5808.000000	1.018095
5806.000000	1.020174
5804.000000	1.021544
5802.000000	1.023253
5800.000000	1.025029
5798.000000	1.027739
5796.000000	1.031013
5794.000000	1.033664
5792.000000	1.036388
5790.000000	1.038114
5788.000000	1.040351
5786.000000	1.042076
5784.000000	1.042892
5782.000000	1.043708
5780.000000	1.046193
5778.000000	1.049870
5776.000000	1.053332
5774.000000	1.055582
5772.000000	1.057309
5770.000000	1.059243
5768.000000	1.060497
5766.000000	1.062070
5764.000000	1.063496
5762.000000	1.065037
5760.000000	1.067470
5758.000000	1.070257
5756.000000	1.073335
5754.000000	1.075814
5752.000000	1.078631
5750.000000	1.081098
5748.000000	1.083523
5746.000000	1.086037
5744.000000	1.088037
5742.000000	1.089703
5740.000000	1.091042
5738.000000	1.093422
5736.000000	1.095769
5734.000000	1.098060
5732.000000	1.099901
5730.000000	1.101217
5728.000000	1.102526
5726.000000	1.105321
5724.000000	1.109099
5722.000000	1.112236
5720.000000	1.113883
5718.000000	1.114951
5716.000000	1.116969
5714.000000	1.119833
5712.000000	1.123149
5710.000000	1.125922
5708.000000	1.127537
5706.000000	1.128926
5704.000000	1.130247
5702.000000	1.132063
5700.000000	1.134887
5698.000000	1.138127
5696.000000	1.140820
5694.000000	1.143575
5692.000000	1.146249
5690.000000	1.148263
5688.000000	1.149304
5686.000000	1.151016
5684.000000	1.153961
5682.000000	1.157457
5680.000000	1.159515
5678.000000	1.161232
5676.000000	1.162543
5674.000000	1.165306
5672.000000	1.168900
5670.000000	1.171799
5668.000000	1.174262
5666.000000	1.176323
5664.000000	1.179012
5662.000000	1.181240
5660.000000	1.183385
5658.000000	1.185372
5656.000000	1.187953
5654.000000	1.190525
5652.000000	1.193760
5650.000000	1.196966
5648.000000	1.199476
5646.000000	1.200578
5644.000000	1.201333
5642.000000	1.203288
5640.000000	1.206388
5638.000000	1.209131
5636.000000	1.211486
5634.000000	1.214003
5632.000000	1.217176
5630.000000	1.219942
5628.000000	1.222053
5626.000000	1.223889
5624.000000	1.225828
5622.000000	1.227870
5620.000000	1.230118
5618.000000	1.233123
5616.000000	1.236621
5614.000000	1.238444
5612.000000	1.239943
5610.000000	1.241919
5608.000000	1.245127
5606.000000	1.248704
5604.000000	1.251529
5602.000000	1.254280
5600.000000	1.256949
5598.000000	1.259593
5596.000000	1.262340
5594.000000	1.264228
5592.000000	1.265748
5590.000000	1.266833
5588.000000	1.268232
5586.000000	1.271061
5584.000000	1.274388
5582.000000	1.277430
5580.000000	1.279605
5578.000000	1.282292
5576.000000	1.284994
5574.000000	1.287619
5572.000000	1.290847
5570.000000	1.293956
5568.000000	1.296392
5566.000000	1.298544
5564.000000	1.301246
5562.000000	1.304473
5560.000000	1.306484
5558.000000	1.307895
5556.000000	1.309833
5554.000000	1.312924
5552.000000	1.316977
5550.000000	1.320850
5548.000000	1.323477
5546.000000	1.324499
5544.000000	1.326020
5542.000000	1.328590
5540.000000	1.330665
5538.000000	1.331953
5536.000000	1.334270
5534.000000	1.337284
5532.000000	1.339783
5530.000000	1.342299
5528.000000	1.346041
5526.000000	1.349599
5524.000000	1.351440
5522.000000	1.353658
5520.000000	1.356149
5518.000000	1.359261
5516.000000	1.361280
5514.000000	1.362964
5512.000000	1.364567
5510.000000	1.366879
5508.000000	1.369987
5506.000000	1.373202
5504.000000	1.375978
5502.000000	1.378168
5500.000000	1.380412
5498.000000	1.382983
5496.000000	1.386499
5494.000000	1.389754
5492.000000	1.391725
5490.000000	1.393282
5488.000000	1.395228
5486.000000	1.398001
5484.000000	1.401842
5482.000000	1.405417
5480.000000	1.408302
5478.000000	1.409455
5476.000000	1.410592
5474.000000	1.413137
5472.000000	1.416673
5470.000000	1.420597
5468.000000	1.422995
5466.000000	1.424457
5464.000000	1.425620
5462.000000	1.427775
5460.000000	1.430143
5458.000000	1.433149
5456.000000	1.437383
5454.000000	1.441773
5452.000000	1.443939
5450.000000	1.444903
5448.000000	1.446415
5446.000000	1.448840
5444.000000	1.451432
5442.000000	1.453316
5440.000000	1.456056
5438.000000	1.459139
5436.000000	1.461627
5434.000000	1.463617
5432.000000	1.465644
5430.000000	1.468277
5428.000000	1.470759
5426.000000	1.473425
5424.000000	1.478053
5422.000000	1.482806
5420.000000	1.486240
5418.000000	1.488675
5416.000000	1.491189
5414.000000	1.492758
5412.000000	1.493108
5410.000000	1.494751
5408.000000	1.499104
5406.000000	1.503605
5404.000000	1.506934
5402.000000	1.509856
5400.000000	1.512815
5398.000000	1.515192
5396.000000	1.515829
5394.000000	1.516864
5392.000000	1.519678
5390.000000	1.523298
5388.000000	1.526242
5386.000000	1.528112
5384.000000	1.530439
5382.000000	1.534209
5380.000000	1.538375
5378.000000	1.541392
5376.000000	1.542843
5374.000000	1.544461
5372.000000	1.547567
5370.000000	1.550455
5368.000000	1.553223
5366.000000	1.555818
5364.000000	1.559077
5362.000000	1.562737
5360.000000	1.566202
5358.000000	1.569483
5356.000000	1.571277
5354.000000	1.572445
5352.000000	1.573620
5350.000000	1.575546
5348.000000	1.578903
5346.000000	1.582140
5344.000000	1.583797
5342.000000	1.585456
5340.000000	1.588499
5338.000000	1.592505
5336.000000	1.596134
5334.000000	1.599139
5332.000000	1.601536
5330.000000	1.602952
5328.000000	1.604619
5326.000000	1.608186
5324.000000	1.611997
5322.000000	1.616072
5320.000000	1.620391
5318.000000	1.623442
5316.000000	1.624996
5314.000000	1.626325
5312.000000	1.629459
5310.000000	1.633337
5308.000000	1.635218
5306.000000	1.636560
5304.000000	1.638942
5302.000000	1.642801
5300.000000	1.646744
5298.000000	1.649348
5296.000000	1.652152
5294.000000	1.654355
5292.000000	1.656674
5290.000000	1.659034
5288.000000	1.661151
5286.000000	1.663615
5284.000000	1.666194
5282.000000	1.669217
5280.000000	1.671655
5278.000000	1.674012
5276.000000	1.677532
5274.000000	1.681471
5272.000000	1.684672
5270.000000	1.687009
5268.000000	1.689162
5266.000000	1.691466
5264.000000	1.692999
5262.000000	1.695772
5260.000000	1.699723
5258.000000	1.703451
5256.000000	1.706290
5254.000000	1.708720
5252.000000	1.711847
5250.000000	1.714090
5248.000000	1.715172
5246.000000	1.716247
5244.000000	1.718731
5242.000000	1.723142
5240.000000	1.727886
5238.000000	1.731701
5236.000000	1.734337
5234.000000	1.736174
5232.000000	1.737738
5230.000000	1.739597
5228.000000	1.741596
5226.000000	1.744069
5224.000000	1.746691
5222.000000	1.750045
5220.000000	1.754076
5218.000000	1.757913
5216.000000	1.761530
5214.000000	1.764076
5212.000000	1.765715
5210.000000	1.767296
5208.000000	1.769906
5206.000000	1.772554
5204.000000	1.774813
5202.000000	1.778242
5200.000000	1.782668
5198.000000	1.786660
5196.000000	1.789813
5194.000000	1.792653
5192.000000	1.795509
5190.000000	1.797803
5188.000000	1.799681
5186.000000	1.802101
5184.000000	1.805571
5182.000000	1.808750
5180.000000	1.811750
5178.000000	1.814853
5176.000000	1.817389
5174.000000	1.819961
5172.000000	1.823386
5170.000000	1.827394
5168.000000	1.830165
5166.000000	1.831887
5164.000000	1.833633
5162.000000	1.836386
5160.000000	1.840724
5158.000000	1.844146
5156.000000	1.845495
5154.000000	1.847178
5152.000000	1.850350
5150.000000	1.853622
5148.000000	1.855670
5146.000000	1.857328
5144.000000	1.860138
5142.000000	1.863938
5140.000000	1.867917
5138.000000	1.871313
5136.000000	1.874134
5134.000000	1.877410
5132.000000	1.880378
5130.000000	1.882538
5128.000000	1.884261
5126.000000	1.885936
5124.000000	1.888410
5122.000000	1.892235
5120.000000	1.896269
5118.000000	1.899082
5116.000000	1.900954
5114.000000	1.904359
5112.000000	1.908344
5110.000000	1.911619
5108.000000	1.914614
5106.000000	1.917710
5104.000000	1.921075
5102.000000	1.924194
5100.000000	1.926914
5098.000000	1.929488
5096.000000	1.931854
5094.000000	1.934097
5092.000000	1.936631
5090.000000	1.940035
5088.000000	1.943691
5086.000000	1.946269
5084.000000	1.948176
5082.000000	1.950072
5080.000000	1.952904
5078.000000	1.955991
5076.000000	1.958976
5074.000000	1.961963
5072.000000	1.965723
5070.000000	1.968963
5068.000000	1.971833
5066.000000	1.975012
5064.000000	1.979200
5062.000000	1.982777
5060.000000	1.984350
5058.000000	1.985163
5056.000000	1.986788
5054.000000	1.989355
5052.000000	1.992283
5050.000000	1.995924
5048.000000	1.999797
5046.000000	2.003197
5044.000000	2.005500
5042.000000	2.008215
5040.000000	2.011303
5038.000000	2.014187
5036.000000	2.016658
5034.000000	2.020301
5032.000000	2.024321
5030.000000	2.026874
5028.000000	2.029524
5026.000000	2.033162
5024.000000	2.036541
5022.000000	2.038350
5020.000000	2.040475
5018.000000	2.044362
5016.000000	2.048248
5014.000000	2.050739
5012.000000	2.052386
5010.000000	2.055367
5008.000000	2.059375
5006.000000	2.062123
5004.000000	2.063338
5002.000000	2.065456
5000.000000	2.069972
4998.000000	2.074626
4996.000000	2.078221
4994.000000	2.081846
4992.000000	2.085392
4990.000000	2.087927
4988.000000	2.089988
4986.000000	2.093050
4984.000000	2.096567
4982.000000	2.099242
4980.000000	2.101677
4978.000000	2.104108
4976.000000	2.106170
4974.000000	2.107698
4972.000000	2.110342
4970.000000	2.114330
4968.000000	2.118661
4966.000000	2.121925
4964.000000	2.124500
4962.000000	2.127162
4960.000000	2.129647
4958.000000	2.132166
4956.000000	2.135176
4954.000000	2.138416
4952.000000	2.141397
4950.000000	2.143885
4948.000000	2.145957
4946.000000	2.148696
4944.000000	2.152858
4942.000000	2.157067
4940.000000	2.160388
4938.000000	2.162368
4936.000000	2.164185
4934.000000	2.167808
4932.000000	2.172651
4930.000000	2.175866
4928.000000	2.177475
4926.000000	2.179981
4924.000000	2.183976
4922.000000	2.187467
4920.000000	2.189820
4918.000000	2.192003
4916.000000	2.194491
4914.000000	2.197133
4912.000000	2.200399
4910.000000	2.204616
4908.000000	2.208880
4906.000000	2.212660
4904.000000	2.215263
4902.000000	2.216322
4900.000000	2.217240
4898.000000	2.219939
4896.000000	2.224117
4894.000000	2.228335
4892.000000	2.232517
4890.000000	2.236421
4888.000000	2.239386
4886.000000	2.242210
4884.000000	2.245379
4882.000000	2.248011
4880.000000	2.250143
4878.000000	2.253274
4876.000000	2.256809
4874.000000	2.260225
4872.000000	2.263617
4870.000000	2.266959
4868.000000	2.270692
4866.000000	2.273997
4864.000000	2.276226
4862.000000	2.277999
4860.000000	2.280759
4858.000000	2.283324
4856.000000	2.285506
4854.000000	2.288517
4852.000000	2.291664
4850.000000	2.293411
4848.000000	2.295587
4846.000000	2.299167
4844.000000	2.303283
4842.000000	2.306923
4840.000000	2.310491
4838.000000	2.313975
4836.000000	2.317106
4834.000000	2.320518
4832.000000	2.323322
4830.000000	2.325638
4828.000000	2.327646
4826.000000	2.330878
4824.000000	2.334751
4822.000000	2.338180
4820.000000	2.341788
4818.000000	2.345861
4816.000000	2.349462
4814.000000	2.352275
4812.000000	2.354821
4810.000000	2.357375
4808.000000	2.360170
4806.000000	2.363628
4804.000000	2.366649
4802.000000	2.369174
4800.000000	2.371347
4798.000000	2.373923
4796.000000	2.377220
4794.000000	2.381623
4792.000000	2.386389
4790.000000	2.390006
4788.000000	2.392336
4786.000000	2.394693
4784.000000	2.396778
4782.000000	2.398922
4780.000000	2.401799
4778.000000	2.405635
4776.000000	2.408913
4774.000000	2.411773
4772.000000	2.414482
4770.000000	2.417011
4768.000000	2.419460
4766.000000	2.422213
4764.000000	2.425877
4762.000000	2.430237
4760.000000	2.433774
4758.000000	2.436490
4756.000000	2.439293
4754.000000	2.442869
4752.000000	2.445918
4750.000000	2.448624
4748.000000	2.451822
4746.000000	2.455221
4744.000000	2.457411
4742.000000	2.459623
4740.000000	2.462936
4738.000000	2.466301
4736.000000	2.469196
4734.000000	2.473276
4732.000000	2.477257
4730.000000	2.479859
4728.000000	2.481715
4726.000000	2.485215
4724.000000	2.489800
4722.000000	2.492913
4720.000000	2.494813
4718.000000	2.498200
4716.000000	2.502428
4714.000000	2.505331
4712.000000	2.507811
4710.000000	2.511308
4708.000000	2.515449
4706.000000	2.519153
4704.000000	2.522045
4702.000000	2.525346
4700.000000	2.528741
4698.000000	2.531491
4696.000000	2.533943
4694.000000	2.537465
4692.000000	2.542037
4690.000000	2.545692
4688.000000	2.547926
4686.000000	2.550370
4684.000000	2.554446
4682.000000	2.558598
4680.000000	2.561905
4678.000000	2.564685
4676.000000	2.567404
4674.000000	2.569882
4672.000000	2.572067
4670.000000	2.575037
4668.000000	2.579030
4666.000000	2.582616
4664.000000	2.585459
4662.000000	2.588622
4660.000000	2.592522
4658.000000	2.595288
4656.000000	2.597403
4654.000000	2.600612
4652.000000	2.604718
4650.000000	2.607997
4648.000000	2.611284
4646.000000	2.614642
4644.000000	2.617380
4642.000000	2.620130
4640.000000	2.623849
4638.000000	2.628072
4636.000000	2.632250
4634.000000	2.635885
4632.000000	2.638624
4630.000000	2.641090
4628.000000	2.643664
4626.000000	2.646703
4624.000000	2.649681
4622.000000	2.653335
4620.000000	2.657448
4618.000000	2.661446
4616.000000	2.664517
4614.000000	2.666440
4612.000000	2.668284
4610.000000	2.671868
4608.000000	2.676439
4606.000000	2.680030
4604.000000	2.683603
4602.000000	2.687562
4600.000000	2.690614
4598.000000	2.693357
4596.000000	2.696463
4594.000000	2.699730
4592.000000	2.702760
4590.000000	2.706058
4588.000000	2.709468
4586.000000	2.713395
4584.000000	2.717528
4582.000000	2.721141
4580.000000	2.723774
4578.000000	2.725653
4576.000000	2.728285
4574.000000	2.731554
4572.000000	2.734534
4570.000000	2.738013
4568.000000	2.742803
4566.000000	2.747125
4564.000000	2.750773
4562.000000	2.754445
4560.000000	2.757746
4558.000000	2.760685
4556.000000	2.763193
4554.000000	2.765201
4552.000000	2.768105
4550.000000	2.772673
4548.000000	2.776743
4546.000000	2.779467
4544.000000	2.781745
4542.000000	2.784609
4540.000000	2.788177
4538.000000	2.792132
4536.000000	2.796262
4534.000000	2.800616
4532.000000	2.804426
4530.000000	2.807262
4528.000000	2.809835
4526.000000	2.813454
4524.000000	2.817813
4522.000000	2.821232
4520.000000	2.823885
4518.000000	2.827515
4516.000000	2.830962
4514.000000	2.833061
4512.000000	2.835657
4510.000000	2.839488
4508.000000	2.843342
4506.000000	2.846726
4504.000000	2.850303
4502.000000	2.853394
4500.000000	2.855866
4498.000000	2.858454
4496.000000	2.862788
4494.000000	2.868209
4492.000000	2.872383
4490.000000	2.874842
4488.000000	2.877833
4486.000000	2.881410
4484.000000	2.885126
4482.000000	2.889704
4480.000000	2.893279
4478.000000	2.895181
4476.000000	2.897908
4474.000000	2.901636
4472.000000	2.904344
4470.000000	2.906540
4468.000000	2.909669
4466.000000	2.913649
4464.000000	2.916783
4462.000000	2.918564
4460.000000	2.921447
4458.000000	2.926008
4456.000000	2.930455
4454.000000	2.933859
4452.000000	2.937319
4450.000000	2.940832
4448.000000	2.943618
4446.000000	2.946390
4444.000000	2.950308
4442.000000	2.954187
4440.000000	2.957335
4438.000000	2.960131
4436.000000	2.962455
4434.000000	2.965310
4432.000000	2.968645
4430.000000	2.972095
4428.000000	2.975916
4426.000000	2.979843
4424.000000	2.983301
4422.000000	2.986747
4420.000000	2.990259
4418.000000	2.994576
4416.000000	2.998764
4414.000000	3.001109
4412.000000	3.002777
4410.000000	3.005469
4408.000000	3.008748
4406.000000	3.011883
4404.000000	3.015485
4402.000000	3.020005
4400.000000	3.024690
4398.000000	3.028773
4396.000000	3.032238
4394.000000	3.034853
4392.000000	3.037278
4390.000000	3.040410
4388.000000	3.043479
4386.000000	3.046489
4384.000000	3.050330
4382.000000	3.053753
4380.000000	3.055900
4378.000000	3.058271
4376.000000	3.061566
4374.000000	3.065282
4372.000000	3.069074
4370.000000	3.072835
4368.000000	3.076265
4366.000000	3.079067
4364.000000	3.082119
4362.000000	3.085967
4360.000000	3.089721
4358.000000	3.092793
4356.000000	3.095296
4354.000000	3.098028
4352.000000	3.101779
4350.000000	3.105726
4348.000000	3.109210
4346.000000	3.113292
4344.000000	3.117025
4342.000000	3.119248
4340.000000	3.121642
4338.000000	3.125396
4336.000000	3.129703
4334.000000	3.133997
4332.000000	3.137600
4330.000000	3.140745
4328.000000	3.144783
4326.000000	3.148795
4324.000000	3.152229
4322.000000	3.155752
4320.000000	3.159015
4318.000000	3.161816
4316.000000	3.165657
4314.000000	3.169835
4312.000000	3.172875
4310.000000	3.174947
4308.000000	3.178335
4306.000000	3.183055
4304.000000	3.187098
4302.000000	3.190520
4300.000000	3.194917
4298.000000	3.199404
4296.000000	3.202901
4294.000000	3.205435
4292.000000	3.207969
4290.000000	3.211129
4288.000000	3.214056
4286.000000	3.216841
4284.000000	3.220195
4282.000000	3.223366
4280.000000	3.226581
4278.000000	3.229540
4276.000000	3.231747
4274.000000	3.235640
4272.000000	3.240782
4270.000000	3.244310
4268.000000	3.247112
4266.000000	3.249835
4264.000000	3.252276
4262.000000	3.255882
4260.000000	3.259681
4258.000000	3.262422
4256.000000	3.265427
4254.000000	3.269806
4252.000000	3.274475
4250.000000	3.278471
4248.000000	3.281932
4246.000000	3.285637
4244.000000	3.289342
4242.000000	3.292643
4240.000000	3.295575
4238.000000	3.299319
4236.000000	3.303526
4234.000000	3.306676
4232.000000	3.309335
4230.000000	3.312751
4228.000000	3.316817
4226.000000	3.320449
4224.000000	3.323397
4222.000000	3.327017
4220.000000	3.331495
4218.000000	3.335114
4216.000000	3.337804
4214.000000	3.340590
4212.000000	3.344245
4210.000000	3.348825
4208.000000	3.353644
4206.000000	3.357282
4204.000000	3.359943
4202.000000	3.363092
4200.000000	3.367046
4198.000000	3.371080
4196.000000	3.374493
4194.000000	3.377836
4192.000000	3.381813
4190.000000	3.385106
4188.000000	3.387720
4186.000000	3.391926
4184.000000	3.397109
4182.000000	3.400879
4180.000000	3.403463
4178.000000	3.406654
4176.000000	3.410446
4174.000000	3.414296
4172.000000	3.418007
4170.000000	3.421529
4168.000000	3.425236
4166.000000	3.428985
4164.000000	3.432681
4162.000000	3.436273
4160.000000	3.439618
4158.000000	3.442974
4156.000000	3.446630
4154.000000	3.450201
4152.000000	3.453522
4150.000000	3.457145
4148.000000	3.460836
4146.000000	3.464362
4144.000000	3.468538
4142.000000	3.472559
4140.000000	3.475484
4138.000000	3.478756
4136.000000	3.483859
4134.000000	3.488889
4132.000000	3.491611
4130.000000	3.494161
4128.000000	3.498073
4126.000000	3.502620
4124.000000	3.507450
4122.000000	3.511797
4120.000000	3.515277
4118.000000	3.518848
4116.000000	3.522598
4114.000000	3.525922
4112.000000	3.529256
4110.000000	3.532845
4108.000000	3.536660
4106.000000	3.540804
4104.000000	3.544124
4102.000000	3.546176
4100.000000	3.548722
4098.000000	3.552714
4096.000000	3.557783
4094.000000	3.562544
4092.000000	3.565973
4090.000000	3.568184
4088.000000	3.570562
4086.000000	3.574184
4084.000000	3.578565
4082.000000	3.582863
4080.000000	3.587472
4078.000000	3.591831
4076.000000	3.595583
4074.000000	3.598852
4072.000000	3.601681
4070.000000	3.605069
4068.000000	3.608950
4066.000000	3.612288
4064.000000	3.615757
4062.000000	3.619579
4060.000000	3.623261
4058.000000	3.626751
4056.000000	3.630273
4054.000000	3.634529
4052.000000	3.639419
4050.000000	3.644155
4048.000000	3.648744
4046.000000	3.652576
4044.000000	3.655683
4042.000000	3.659621
4040.000000	3.663858
4038.000000	3.667563
4036.000000	3.671531
4034.000000	3.675536
4032.000000	3.678872
4030.000000	3.681412
4028.000000	3.684944
4026.000000	3.689550
4024.000000	3.693915
4022.000000	3.698747
4020.000000	3.703233
4018.000000	3.706555
4016.000000	3.710612
4014.000000	3.714877
4012.000000	3.717700
4010.000000	3.720170
4008.000000	3.723945
4006.000000	3.728170
4004.000000	3.731926
4002.000000	3.735962
4000.000000	3.740978
3998.000000	3.745370
3996.000000	3.747969
3994.000000	3.750130
3992.000000	3.753438
3990.000000	3.758290
3988.000000	3.763150
3986.000000	3.766635
3984.000000	3.770227
3982.000000	3.774250
3980.000000	3.777711
3978.000000	3.780786
3976.000000	3.783720
3974.000000	3.786467
3972.000000	3.789854
3970.000000	3.794161
3968.000000	3.798599
3966.000000	3.802377
3964.000000	3.806042
3962.000000	3.809381
3960.000000	3.812189
3958.000000	3.815793
3956.000000	3.820085
3954.000000	3.823751
3952.000000	3.827039
3950.000000	3.829570
3948.000000	3.831125
3946.000000	3.834208
3944.000000	3.838376
3942.000000	3.840890
3940.000000	3.845763
3938.000000	3.853217
3936.000000	3.858239
3934.000000	3.859684
3932.000000	3.858762
3930.000000	3.860909
3928.000000	3.868000
3926.000000	3.872718
3924.000000	3.874560
3922.000000	3.878065
3920.000000	3.880248
3918.000000	3.878997
3916.000000	3.880796
3914.000000	3.890642
3912.000000	3.902109
3910.000000	3.908885
3908.000000	3.911781
3906.000000	3.905688
3904.000000	3.889294
3902.000000	3.876702
3900.000000	3.878631
3898.000000	3.894049
3896.000000	3.916480
3894.000000	3.930345
3892.000000	3.925302
3890.000000	3.917953
3888.000000	3.923117
3886.000000	3.923134
3884.000000	3.918476
3882.000000	3.928120
3880.000000	3.938036
3878.000000	3.944900
3876.000000	3.955836
3874.000000	3.956952
3872.000000	3.946773
3870.000000	3.931720
3868.000000	3.928970
3866.000000	3.944979
3864.000000	3.955599
3862.000000	3.963105
3860.000000	3.978464
3858.000000	3.987599
3856.000000	3.965638
3854.000000	3.903157
3852.000000	3.867747
3850.000000	3.916839
3848.000000	3.988636
3846.000000	4.019412
3844.000000	4.019574
3842.000000	4.010555
3840.000000	3.994629
3838.000000	3.969699
3836.000000	3.962016
3834.000000	3.988820
3832.000000	4.017525
3830.000000	4.030812
3828.000000	4.040783
3826.000000	4.047222
3824.000000	4.046984
3822.000000	4.033563
3820.000000	4.017528
3818.000000	4.019069
3816.000000	4.018935
3814.000000	4.024560
3812.000000	4.058849
3810.000000	4.084087
3808.000000	4.074670
3806.000000	4.056622
3804.000000	4.055750
3802.000000	4.049241
3800.000000	4.037332
3798.000000	4.059872
3796.000000	4.091026
3794.000000	4.105124
3792.000000	4.117845
3790.000000	4.127118
3788.000000	4.130025
3786.000000	4.130886
3784.000000	4.132502
3782.000000	4.135172
3780.000000	4.134079
3778.000000	4.133372
3776.000000	4.142074
3774.000000	4.152710
3772.000000	4.152997
3770.000000	4.143333
3768.000000	4.139357
3766.000000	4.148019
3764.000000	4.158451
3762.000000	4.165230
3760.000000	4.163762
3758.000000	4.158973
3756.000000	4.161726
3754.000000	4.153612
3752.000000	4.115072
3750.000000	4.080462
3748.000000	4.089101
3746.000000	4.104165
3744.000000	4.088453
3742.000000	4.105080
3740.000000	4.166689
3738.000000	4.188593
3736.000000	4.165620
3734.000000	4.152126
3732.000000	4.163014
3730.000000	4.188233
3728.000000	4.213904
3726.000000	4.222945
3724.000000	4.223957
3722.000000	4.230110
3720.000000	4.239024
3718.000000	4.249048
3716.000000	4.255451
3714.000000	4.248533
3712.000000	4.225539
3710.000000	4.213598
3708.000000	4.231186
3706.000000	4.256767
3704.000000	4.270938
3702.000000	4.271975
3700.000000	4.272840
3698.000000	4.283483
3696.000000	4.293527
3694.000000	4.295257
3692.000000	4.285962
3690.000000	4.259330
3688.000000	4.233220
3686.000000	4.248936
3684.000000	4.294567
3682.000000	4.319255
3680.000000	4.317980
3678.000000	4.300141
3676.000000	4.263228
3674.000000	4.242951
3672.000000	4.259603
3670.000000	4.267151
3668.000000	4.275710
3666.000000	4.314242
3664.000000	4.345429
3662.000000	4.354401
3660.000000	4.356119
3658.000000	4.348519
3656.000000	4.332823
3654.000000	4.331349
3652.000000	4.332400
3650.000000	4.304173
3648.000000	4.279978
3646.000000	4.302698
3644.000000	4.346850
3642.000000	4.371930
3640.000000	4.377240
3638.000000	4.378425
3636.000000	4.379580
3634.000000	4.377860
3632.000000	4.369271
3630.000000	4.342149
3628.000000	4.312819
3626.000000	4.329852
3624.000000	4.373134
3622.000000	4.387203
3620.000000	4.371494
3618.000000	4.357014
3616.000000	4.364405
3614.000000	4.374582
3612.000000	4.371767
3610.000000	4.366831
3608.000000	4.365533
3606.000000	4.375110
3604.000000	4.391433
3602.000000	4.398239
3600.000000	4.396011
3598.000000	4.393758
3596.000000	4.392704
3594.000000	4.391567
3592.000000	4.393518
3590.000000	4.392113
3588.000000	4.379402
3586.000000	4.372869
3584.000000	4.386399
3582.000000	4.402415
3580.000000	4.407545
3578.000000	4.407556
3576.000000	4.407422
3574.000000	4.406872
3572.000000	4.405452
3570.000000	4.400637
3568.000000	4.387900
3566.000000	4.376759
3564.000000	4.382038
3562.000000	4.394532
3560.000000	4.401401
3558.000000	4.404440
3556.000000	4.405798
3554.000000	4.404160
3552.000000	4.400311
3550.000000	4.397871
3548.000000	4.396207
3546.000000	4.391717
3544.000000	4.388770
3542.000000	4.391107
3540.000000	4.395011
3538.000000	4.395459
3536.000000	4.393751
3534.000000	4.392949
3532.000000	4.391446
3530.000000	4.387864
3528.000000	4.382641
3526.000000	4.377593
3524.000000	4.374356
3522.000000	4.371838
3520.000000	4.369678
3518.000000	4.367599
3516.000000	4.364866
3514.000000	4.361624
3512.000000	4.358046
3510.000000	4.352770
3508.000000	4.348316
3506.000000	4.345399
3504.000000	4.338730
3502.000000	4.331185
3500.000000	4.328235
3498.000000	4.326207
3496.000000	4.321939
3494.000000	4.317035
3492.000000	4.312750
3490.000000	4.308057
3488.000000	4.302591
3486.000000	4.297419
3484.000000	4.292282
3482.000000	4.287039
3480.000000	4.283515
3478.000000	4.281047
3476.000000	4.277862
3474.000000	4.274525
3472.000000	4.272816
3470.000000	4.270680
3468.000000	4.266593
3466.000000	4.263274
3464.000000	4.261783
3462.000000	4.259608
3460.000000	4.256972
3458.000000	4.255629
3456.000000	4.253980
3454.000000	4.252065
3452.000000	4.250393
3450.000000	4.247871
3448.000000	4.243546
3446.000000	4.238252
3444.000000	4.236163
3442.000000	4.236008
3440.000000	4.234512
3438.000000	4.234221
3436.000000	4.235980
3434.000000	4.238013
3432.000000	4.239954
3430.000000	4.241346
3428.000000	4.242356
3426.000000	4.245514
3424.000000	4.249737
3422.000000	4.252149
3420.000000	4.252599
3418.000000	4.253110
3416.000000	4.256525
3414.000000	4.260052
3412.000000	4.260897
3410.000000	4.260958
3408.000000	4.261139
3406.000000	4.260829
3404.000000	4.261110
3402.000000	4.262263
3400.000000	4.262397
3398.000000	4.262287
3396.000000	4.263908
3394.000000	4.265435
3392.000000	4.266942
3390.000000	4.269606
3388.000000	4.272046
3386.000000	4.273642
3384.000000	4.275365
3382.000000	4.277902
3380.000000	4.279260
3378.000000	4.279661
3376.000000	4.280652
3374.000000	4.281274
3372.000000	4.281422
3370.000000	4.282037
3368.000000	4.283472
3366.000000	4.284580
3364.000000	4.284862
3362.000000	4.286558
3360.000000	4.289248
3358.000000	4.290681
3356.000000	4.291499
3354.000000	4.292482
3352.000000	4.293651
3350.000000	4.294641
3348.000000	4.296062
3346.000000	4.298045
3344.000000	4.299476
3342.000000	4.300178
3340.000000	4.301200
3338.000000	4.303218
3336.000000	4.305052
3334.000000	4.306237
3332.000000	4.307603
3330.000000	4.308837
3328.000000	4.310692
3326.000000	4.312256
3324.000000	4.311935
3322.000000	4.312060
3320.000000	4.313890
3318.000000	4.315800
3316.000000	4.317078
3314.000000	4.317757
3312.000000	4.318835
3310.000000	4.320876
3308.000000	4.321818
3306.000000	4.321864
3304.000000	4.322636
3302.000000	4.323411
3300.000000	4.325476
3298.000000	4.327649
3296.000000	4.328436
3294.000000	4.328788
3292.000000	4.329972
3290.000000	4.332199
3288.000000	4.334076
3286.000000	4.334869
3284.000000	4.335422
3282.000000	4.336488
3280.000000	4.338431
3278.000000	4.339963
3276.000000	4.340535
3274.000000	4.341317
3272.000000	4.342464
3270.000000	4.344241
3268.000000	4.346720
3266.000000	4.348706
3264.000000	4.349699
3262.000000	4.350968
3260.000000	4.353160
3258.000000	4.355733
3256.000000	4.357883
3254.000000	4.359417
3252.000000	4.360622
3250.000000	4.362159
3248.000000	4.365370
3246.000000	4.368212
3244.000000	4.369507
3242.000000	4.371775
3240.000000	4.373998
3238.000000	4.374912
3236.000000	4.376745
3234.000000	4.379531
3232.000000	4.381701
3230.000000	4.382952
3228.000000	4.385443
3226.000000	4.388486
3224.000000	4.389591
3222.000000	4.389858
3220.000000	4.391805
3218.000000	4.394854
3216.000000	4.398716
3214.000000	4.401023
3212.000000	4.401444
3210.000000	4.403577
3208.000000	4.406463
3206.000000	4.408499
3204.000000	4.411693
3202.000000	4.415364
3200.000000	4.419849
3198.000000	4.424409
3196.000000	4.427487
3194.000000	4.431221
3192.000000	4.435359
3190.000000	4.438832
3188.000000	4.442650
3186.000000	4.446219
3184.000000	4.449193
3182.000000	4.452055
3180.000000	4.455296
3178.000000	4.459242
3176.000000	4.463346
3174.000000	4.468094
3172.000000	4.472956
3170.000000	4.475891
3168.000000	4.479069
3166.000000	4.483258
3164.000000	4.487196
3162.000000	4.489897
3160.000000	4.492238
3158.000000	4.496247
3156.000000	4.500523
3154.000000	4.504144
3152.000000	4.508224
3150.000000	4.512044
3148.000000	4.515858
3146.000000	4.519539
3144.000000	4.523345
3142.000000	4.527655
3140.000000	4.530692
3138.000000	4.533572
3136.000000	4.535847
3134.000000	4.537442
3132.000000	4.540595
3130.000000	4.544816
3128.000000	4.548246
3126.000000	4.549874
3124.000000	4.552565
3122.000000	4.556631
3120.000000	4.558962
3118.000000	4.561049
3116.000000	4.563863
3114.000000	4.566829
3112.000000	4.569674
3110.000000	4.571766
3108.000000	4.574440
3106.000000	4.577819
3104.000000	4.580112
3102.000000	4.582751
3100.000000	4.587496
3098.000000	4.592143
3096.000000	4.596134
3094.000000	4.599804
3092.000000	4.603431
3090.000000	4.607338
3088.000000	4.610025
3086.000000	4.613268
3084.000000	4.617176
3082.000000	4.619849
3080.000000	4.622450
3078.000000	4.625576
3076.000000	4.628290
3074.000000	4.630701
3072.000000	4.632815
3070.000000	4.633703
3068.000000	4.634428
3066.000000	4.636470
3064.000000	4.638820
3062.000000	4.641838
3060.000000	4.645081
3058.000000	4.648291
3056.000000	4.652803
3054.000000	4.658094
3052.000000	4.661494
3050.000000	4.664087
3048.000000	4.668222
3046.000000	4.672012
3044.000000	4.674103
3042.000000	4.676134
3040.000000	4.677881
3038.000000	4.678830
3036.000000	4.680076
3034.000000	4.681398
3032.000000	4.681865
3030.000000	4.681160
3028.000000	4.679722
3026.000000	4.676945
3024.000000	4.671317
3022.000000	4.665115
3020.000000	4.661466
3018.000000	4.660209
3016.000000	4.663581
3014.000000	4.672721
3012.000000	4.685837
3010.000000	4.700925
3008.000000	4.715964
3006.000000	4.728103
3004.000000	4.736436
3002.000000	4.742333
3000.000000	4.746726
2998.000000	4.749456
2996.000000	4.752184
2994.000000	4.754484
2992.000000	4.755100
2990.000000	4.754993
2988.000000	4.754410
2986.000000	4.753395
2984.000000	4.751618
2982.000000	4.748733
2980.000000	4.743189
2978.000000	4.735542
2976.000000	4.725436
2974.000000	4.710790
2972.000000	4.691603
2970.000000	4.667586
2968.000000	4.637598
2966.000000	4.607453
2964.000000	4.582047
2962.000000	4.564639
2960.000000	4.561072
2958.000000	4.568938
2956.000000	4.582587
2954.000000	4.597601
2952.000000	4.610188
2950.000000	4.619048
2948.000000	4.623060
2946.000000	4.620678
2944.000000	4.611776
2942.000000	4.595807
2940.000000	4.572771
2938.000000	4.547396
2936.000000	4.522208
2934.000000	4.498504
2932.000000	4.477786
2930.000000	4.458760
2928.000000	4.440406
2926.000000	4.425055
2924.000000	4.420208
2922.000000	4.432209
2920.000000	4.461360
2918.000000	4.500837
2916.000000	4.543884
2914.000000	4.586892
2912.000000	4.627071
2910.000000	4.660462
2908.000000	4.686780
2906.000000	4.707574
2904.000000	4.724804
2902.000000	4.740476
2900.000000	4.754511
2898.000000	4.767726
2896.000000	4.780504
2894.000000	4.792339
2892.000000	4.804213
2890.000000	4.815289
2888.000000	4.825021
2886.000000	4.833779
2884.000000	4.840869
2882.000000	4.845294
2880.000000	4.847035
2878.000000	4.847160
2876.000000	4.844414
2874.000000	4.837390
2872.000000	4.827723
2870.000000	4.813483
2868.000000	4.792831
2866.000000	4.766094
2864.000000	4.736332
2862.000000	4.712305
2860.000000	4.700361
2858.000000	4.702026
2856.000000	4.714942
2854.000000	4.732929
2852.000000	4.752589
2850.000000	4.775191
2848.000000	4.803102
2846.000000	4.835637
2844.000000	4.867166
2842.000000	4.892311
2840.000000	4.912576
2838.000000	4.929301
2836.000000	4.942273
2834.000000	4.952407
2832.000000	4.961466
2830.000000	4.970156
2828.000000	4.977776
2826.000000	4.983918
2824.000000	4.989763
2822.000000	4.995144
2820.000000	5.000358
2818.000000	5.004896
2816.000000	5.008034
2814.000000	5.011973
2812.000000	5.016712
2810.000000	5.020068
2808.000000	5.022590
2806.000000	5.025388
2804.000000	5.028487
2802.000000	5.031636
2800.000000	5.034627
2798.000000	5.037084
2796.000000	5.039732
2794.000000	5.043118
2792.000000	5.046257
2790.000000	5.049139
2788.000000	5.051656
2786.000000	5.055046
2784.000000	5.060069
2782.000000	5.064248
2780.000000	5.067959
2778.000000	5.072514
2776.000000	5.077023
2774.000000	5.080176
2772.000000	5.082807
2770.000000	5.085108
2768.000000	5.088080
2766.000000	5.092135
2764.000000	5.094949
2762.000000	5.095731
2760.000000	5.097144
2758.000000	5.099960
2756.000000	5.102561
2754.000000	5.105027
2752.000000	5.107438
2750.000000	5.109786
2748.000000	5.112140
2746.000000	5.113733
2744.000000	5.115472
2742.000000	5.117873
2740.000000	5.120596
2738.000000	5.122808
2736.000000	5.123858
2734.000000	5.123716
2732.000000	5.124587
2730.000000	5.125979
2728.000000	5.127288
2726.000000	5.128375
2724.000000	5.129421
2722.000000	5.131011
2720.000000	5.132962
2718.000000	5.133824
2716.000000	5.133971
2714.000000	5.134077
2712.000000	5.134835
2710.000000	5.136005
2708.000000	5.136069
2706.000000	5.136521
2704.000000	5.137819
2702.000000	5.139295
2700.000000	5.141018
2698.000000	5.142332
2696.000000	5.143737
2694.000000	5.145061
2692.000000	5.146554
2690.000000	5.147980
2688.000000	5.149003
2686.000000	5.149950
2684.000000	5.150801
2682.000000	5.151364
2680.000000	5.151959
2678.000000	5.152866
2676.000000	5.153435
2674.000000	5.153554
2672.000000	5.155215
2670.000000	5.156393
2668.000000	5.156702
2666.000000	5.157431
2664.000000	5.158248
2662.000000	5.159721
2660.000000	5.161562
2658.000000	5.161418
2656.000000	5.160113
2654.000000	5.160891
2652.000000	5.163237
2650.000000	5.164195
2648.000000	5.163499
2646.000000	5.163576
2644.000000	5.164649
2642.000000	5.166528
2640.000000	5.168706
2638.000000	5.169711
2636.000000	5.170718
2634.000000	5.172133
2632.000000	5.172693
2630.000000	5.173218
2628.000000	5.175107
2626.000000	5.176777
2624.000000	5.178470
2622.000000	5.179298
2620.000000	5.179400
2618.000000	5.180070
2616.000000	5.182061
2614.000000	5.182667
2612.000000	5.182090
2610.000000	5.182016
2608.000000	5.182524
2606.000000	5.182914
2604.000000	5.183493
2602.000000	5.183964
2600.000000	5.184930
2598.000000	5.185182
2596.000000	5.184962
2594.000000	5.185603
2592.000000	5.186418
2590.000000	5.188016
2588.000000	5.190021
2586.000000	5.191609
2584.000000	5.193360
2582.000000	5.195547
2580.000000	5.197687
2578.000000	5.201247
2576.000000	5.205336
2574.000000	5.208375
2572.000000	5.209724
2570.000000	5.210891
2568.000000	5.212569
2566.000000	5.214377
2564.000000	5.216440
2562.000000	5.216937
2560.000000	5.217749
2558.000000	5.219004
2556.000000	5.220415
2554.000000	5.221466
2552.000000	5.222879
2550.000000	5.224267
2548.000000	5.225354
2546.000000	5.227327
2544.000000	5.229538
2542.000000	5.231134
2540.000000	5.233208
2538.000000	5.234819
2536.000000	5.235656
2534.000000	5.236946
2532.000000	5.238764
2530.000000	5.239972
2528.000000	5.241296
2526.000000	5.242956
2524.000000	5.244265
2522.000000	5.245930
2520.000000	5.247659
2518.000000	5.247898
2516.000000	5.248891
2514.000000	5.250320
2512.000000	5.251107
2510.000000	5.252479
2508.000000	5.253524
2506.000000	5.254648
2504.000000	5.256912
2502.000000	5.258362
2500.000000	5.259172
2498.000000	5.259958
2496.000000	5.262360
2494.000000	5.265610
2492.000000	5.267560
2490.000000	5.268958
2488.000000	5.270545
2486.000000	5.270716
2484.000000	5.271129
2482.000000	5.272777
2480.000000	5.274828
2478.000000	5.277208
2476.000000	5.279491
2474.000000	5.280190
2472.000000	5.280104
2470.000000	5.280824
2468.000000	5.281357
2466.000000	5.281333
2464.000000	5.282379
2462.000000	5.284859
2460.000000	5.286722
2458.000000	5.286220
2456.000000	5.285164
2454.000000	5.286514
2452.000000	5.288586
2450.000000	5.289017
2448.000000	5.289601
2446.000000	5.290505
2444.000000	5.292425
2442.000000	5.294289
2440.000000	5.295407
2438.000000	5.295491
2436.000000	5.295012
2434.000000	5.296963
2432.000000	5.299655
2430.000000	5.300977
2428.000000	5.301578
2426.000000	5.301240
2424.000000	5.302371
2422.000000	5.304088
2420.000000	5.304183
2418.000000	5.304531
2416.000000	5.306424
2414.000000	5.307246
2412.000000	5.307602
2410.000000	5.309181
2408.000000	5.312218
2406.000000	5.314169
2404.000000	5.315779
2402.000000	5.317393
2400.000000	5.317560
2398.000000	5.318093
2396.000000	5.319338
2394.000000	5.320684
2392.000000	5.322873
2390.000000	5.325272
2388.000000	5.326781
2386.000000	5.326564
2384.000000	5.326824
2382.000000	5.325201
2380.000000	5.315098
2378.000000	5.298790
2376.000000	5.281881
2374.000000	5.264724
2372.000000	5.247881
2370.000000	5.230970
2368.000000	5.215207
2366.000000	5.201229
2364.000000	5.189689
2362.000000	5.182409
2360.000000	5.180446
2358.000000	5.184670
2356.000000	5.196339
2354.000000	5.213641
2352.000000	5.233900
2350.000000	5.254465
2348.000000	5.261853
2346.000000	5.248539
2344.000000	5.227175
2342.000000	5.207305
2340.000000	5.191104
2338.000000	5.183495
2336.000000	5.187380
2334.000000	5.196065
2332.000000	5.204965
2330.000000	5.212225
2328.000000	5.220878
2326.000000	5.233212
2324.000000	5.244492
2322.000000	5.251963
2320.000000	5.259636
2318.000000	5.268581
2316.000000	5.277489
2314.000000	5.283862
2312.000000	5.288483
2310.000000	5.292326
2308.000000	5.296068
2306.000000	5.300400
2304.000000	5.303610
2302.000000	5.305754
2300.000000	5.308895
2298.000000	5.312758
2296.000000	5.315312
2294.000000	5.315654
2292.000000	5.314961
2290.000000	5.315856
2288.000000	5.316940
2286.000000	5.317629
2284.000000	5.317185
2282.000000	5.313756
2280.000000	5.313275
2278.000000	5.317755
2276.000000	5.319477
2274.000000	5.318261
2272.000000	5.319437
2270.000000	5.320305
2268.000000	5.321015
2266.000000	5.321644
2264.000000	5.321719
2262.000000	5.322298
2260.000000	5.322400
2258.000000	5.322029
2256.000000	5.322402
2254.000000	5.322892
2252.000000	5.324878
2250.000000	5.326860
2248.000000	5.327949
2246.000000	5.329092
2244.000000	5.330974
2242.000000	5.331678
2240.000000	5.333733
2238.000000	5.335881
2236.000000	5.337110
2234.000000	5.339159
2232.000000	5.341069
2230.000000	5.342573
2228.000000	5.343437
2226.000000	5.343731
2224.000000	5.345049
2222.000000	5.346095
2220.000000	5.346625
2218.000000	5.348522
2216.000000	5.350550
2214.000000	5.353225
2212.000000	5.355587
2210.000000	5.355402
2208.000000	5.354740
2206.000000	5.356004
2204.000000	5.358224
2202.000000	5.359464
2200.000000	5.360575
2198.000000	5.361311
2196.000000	5.360929
2194.000000	5.360833
2192.000000	5.361454
2190.000000	5.361801
2188.000000	5.362727
2186.000000	5.364926
2184.000000	5.365686
2182.000000	5.366262
2180.000000	5.365954
2178.000000	5.365066
2176.000000	5.365812
2174.000000	5.367724
2172.000000	5.369216
2170.000000	5.368739
2168.000000	5.368466
2166.000000	5.371206
2164.000000	5.372705
2162.000000	5.372476
2160.000000	5.374174
2158.000000	5.375025
2156.000000	5.375756
2154.000000	5.377702
2152.000000	5.380135
2150.000000	5.381518
2148.000000	5.381079
2146.000000	5.380484
2144.000000	5.382153
2142.000000	5.382978
2140.000000	5.380738
2138.000000	5.381498
2136.000000	5.383287
2134.000000	5.381441
2132.000000	5.381138
2130.000000	5.383023
2128.000000	5.385143
2126.000000	5.388512
2124.000000	5.392502
2122.000000	5.392680
2120.000000	5.389271
2118.000000	5.387006
2116.000000	5.388282
2114.000000	5.389157
2112.000000	5.390037
2110.000000	5.393789
2108.000000	5.395740
2106.000000	5.395527
2104.000000	5.396613
2102.000000	5.398957
2100.000000	5.399904
2098.000000	5.400779
2096.000000	5.403157
2094.000000	5.404666
2092.000000	5.404817
2090.000000	5.406143
2088.000000	5.407646
2086.000000	5.408138
2084.000000	5.408608
2082.000000	5.409642
2080.000000	5.410636
2078.000000	5.411586
2076.000000	5.412289
2074.000000	5.413476
2072.000000	5.416152
2070.000000	5.417900
2068.000000	5.418797
2066.000000	5.419182
2064.000000	5.420753
2062.000000	5.422973
2060.000000	5.425154
2058.000000	5.427165
2056.000000	5.427819
2054.000000	5.428837
2052.000000	5.430485
2050.000000	5.433391
2048.000000	5.435696
2046.000000	5.436779
2044.000000	5.438455
2042.000000	5.439347
2040.000000	5.440054
2038.000000	5.441527
2036.000000	5.442266
2034.000000	5.442974
2032.000000	5.443716
2030.000000	5.443574
2028.000000	5.444153
2026.000000	5.446948
2024.000000	5.448438
2022.000000	5.448324
2020.000000	5.449699
2018.000000	5.449559
2016.000000	5.449574
2014.000000	5.451783
2012.000000	5.453238
2010.000000	5.454776
2008.000000	5.456118
2006.000000	5.458064
2004.000000	5.460375
2002.000000	5.461467
2000.000000	5.461327
1998.000000	5.461442
1996.000000	5.461550
1994.000000	5.460545
1992.000000	5.457565
1990.000000	5.458240
1988.000000	5.460766
1986.000000	5.461159
1984.000000	5.462510
1982.000000	5.463796
1980.000000	5.462897
1978.000000	5.461393
1976.000000	5.461522
1974.000000	5.460526
1972.000000	5.459621
1970.000000	5.458919
1968.000000	5.455586
1966.000000	5.452536
1964.000000	5.453080
1962.000000	5.452570
1960.000000	5.447863
1958.000000	5.443047
1956.000000	5.445645
1954.000000	5.449187
1952.000000	5.448821
1950.000000	5.446589
1948.000000	5.445224
1946.000000	5.442910
1944.000000	5.437446
1942.000000	5.432718
1940.000000	5.436835
1938.000000	5.440703
1936.000000	5.439940
1934.000000	5.437240
1932.000000	5.434829
1930.000000	5.433446
1928.000000	5.431207
1926.000000	5.428560
1924.000000	5.423679
1922.000000	5.418653
1920.000000	5.414572
1918.000000	5.403697
1916.000000	5.404327
1914.000000	5.413313
1912.000000	5.413147
1910.000000	5.407968
1908.000000	5.404068
1906.000000	5.402925
1904.000000	5.402050
1902.000000	5.399666
1900.000000	5.395067
1898.000000	5.391526
1896.000000	5.386783
1894.000000	5.382890
1892.000000	5.382790
1890.000000	5.376723
1888.000000	5.373575
1886.000000	5.379481
1884.000000	5.381136
1882.000000	5.381211
1880.000000	5.380343
1878.000000	5.378803
1876.000000	5.377173
1874.000000	5.375669
1872.000000	5.371074
1870.000000	5.353449
1868.000000	5.340179
1866.000000	5.351638
1864.000000	5.363815
1862.000000	5.366046
1860.000000	5.364321
1858.000000	5.362381
1856.000000	5.361323
1854.000000	5.360438
1852.000000	5.358165
1850.000000	5.354644
1848.000000	5.347382
1846.000000	5.327578
1844.000000	5.297309
1842.000000	5.308031
1840.000000	5.335529
1838.000000	5.338262
1836.000000	5.334181
1834.000000	5.331197
1832.000000	5.320081
1830.000000	5.297472
1828.000000	5.294163
1826.000000	5.297638
1824.000000	5.294065
1822.000000	5.302400
1820.000000	5.304766
1818.000000	5.299742
1816.000000	5.296837
1814.000000	5.295336
1812.000000	5.285491
1810.000000	5.276073
1808.000000	5.274417
1806.000000	5.274138
1804.000000	5.266966
1802.000000	5.251339
1800.000000	5.237763
1798.000000	5.238182
1796.000000	5.238168
1794.000000	5.214073
1792.000000	5.181218
1790.000000	5.192323
1788.000000	5.216054
1786.000000	5.210549
1784.000000	5.197599
1782.000000	5.194536
1780.000000	5.188613
1778.000000	5.186617
1776.000000	5.177782
1774.000000	5.138833
1772.000000	5.093827
1770.000000	5.106348
1768.000000	5.126582
1766.000000	5.139671
1764.000000	5.144271
1762.000000	5.118774
1760.000000	5.112512
1758.000000	5.116571
1756.000000	5.106390
1754.000000	5.102455
1752.000000	5.068553
1750.000000	5.037000
1748.000000	5.047277
1746.000000	5.059266
1744.000000	5.056697
1742.000000	5.040810
1740.000000	5.016385
1738.000000	5.010727
1736.000000	4.985381
1734.000000	4.908488
1732.000000	4.925368
1730.000000	4.992420
1728.000000	5.014123
1726.000000	5.017864
1724.000000	5.012595
1722.000000	5.006637
1720.000000	4.974828
1718.000000	4.896163
1716.000000	4.871700
1714.000000	4.924615
1712.000000	4.963408
1710.000000	4.972039
1708.000000	4.956132
1706.000000	4.930092
1704.000000	4.916236
1702.000000	4.876463
1700.000000	4.795874
1698.000000	4.804660
1696.000000	4.804316
1694.000000	4.835939
1692.000000	4.912775
1690.000000	4.921556
1688.000000	4.906102
1686.000000	4.836747
1684.000000	4.757875
1682.000000	4.814394
1680.000000	4.887678
1678.000000	4.893398
1676.000000	4.857405
1674.000000	4.836879
1672.000000	4.852517
1670.000000	4.830479
1668.000000	4.827996
1666.000000	4.857346
1664.000000	4.851287
1662.000000	4.829988
1660.000000	4.842988
1658.000000	4.849561
1656.000000	4.806894
1654.000000	4.669124
1652.000000	4.603208
1650.000000	4.717115
1648.000000	4.756088
1646.000000	4.716843
1644.000000	4.743460
1642.000000	4.783614
1640.000000	4.780783
1638.000000	4.744959
1636.000000	4.674278
1634.000000	4.668636
1632.000000	4.725235
1630.000000	4.734395
1628.000000	4.710833
1626.000000	4.689957
1624.000000	4.659490
1622.000000	4.635292
1620.000000	4.629569
1618.000000	4.574269
1616.000000	4.515364
1614.000000	4.535951
1612.000000	4.542877
1610.000000	4.508536
1608.000000	4.484665
1606.000000	4.481505
1604.000000	4.490500
1602.000000	4.500540
1600.000000	4.514022
1598.000000	4.525818
1596.000000	4.533556
1594.000000	4.538419
1592.000000	4.543334
1590.000000	4.544521
1588.000000	4.544516
1586.000000	4.542518
1584.000000	4.538327
1582.000000	4.533784
1580.000000	4.529203
1578.000000	4.490754
1576.000000	4.429907
1574.000000	4.457962
1572.000000	4.502536
1570.000000	4.476627
1568.000000	4.470962
1566.000000	4.484098
1564.000000	4.474295
1562.000000	4.426925
1560.000000	4.304986
1558.000000	4.249243
1556.000000	4.333896
1554.000000	4.396733
1552.000000	4.434201
1550.000000	4.459093
1548.000000	4.471977
1546.000000	4.466414
1544.000000	4.439627
1542.000000	4.395878
1540.000000	4.347045
1538.000000	4.391027
1536.000000	4.491342
1534.000000	4.507201
1532.000000	4.513965
1530.000000	4.541948
1528.000000	4.538501
1526.000000	4.516998
1524.000000	4.498435
1522.000000	4.453421
1520.000000	4.439523
1518.000000	4.474189
1516.000000	4.481177
1514.000000	4.484824
1512.000000	4.478115
1510.000000	4.456206
1508.000000	4.381604
1506.000000	4.307752
1504.000000	4.339747
1502.000000	4.354951
1500.000000	4.252953
1498.000000	4.081240
1496.000000	3.921989
1494.000000	3.879035
1492.000000	3.924130
1490.000000	3.996587
1488.000000	4.096783
1486.000000	4.194915
1484.000000	4.264815
1482.000000	4.299140
1480.000000	4.313582
1478.000000	4.313385
1476.000000	4.291599
1474.000000	4.253402
1472.000000	4.227813
1470.000000	4.252602
1468.000000	4.268223
1466.000000	4.237383
1464.000000	4.206582
1462.000000	4.202726
1460.000000	4.166216
1458.000000	4.062991
1456.000000	3.983381
1454.000000	3.989713
1452.000000	3.984000
1450.000000	3.974682
1448.000000	4.004577
1446.000000	4.059925
1444.000000	4.099013
1442.000000	4.109548
1440.000000	4.106706
1438.000000	4.078981
1436.000000	4.056447
1434.000000	4.089140
1432.000000	4.110162
1430.000000	4.105702
1428.000000	4.107783
1426.000000	4.112377
1424.000000	4.105674
1422.000000	4.094789
1420.000000	4.056580
1418.000000	4.038246
1416.000000	4.063734
1414.000000	4.072001
1412.000000	4.058204
1410.000000	4.034660
1408.000000	3.999780
1406.000000	3.953635
1404.000000	3.920968
1402.000000	3.916913
1400.000000	3.921465
1398.000000	3.938306
1396.000000	3.961148
1394.000000	3.975604
1392.000000	4.000960
1390.000000	4.011575
1388.000000	3.992507
1386.000000	3.975645
1384.000000	3.975082
1382.000000	3.980561
1380.000000	3.987629
1378.000000	3.985960
1376.000000	3.976441
1374.000000	3.965121
1372.000000	3.965706
1370.000000	3.964796
1368.000000	3.957475
1366.000000	3.951396
1364.000000	3.938496
1362.000000	3.923773
1360.000000	3.920740
1358.000000	3.919397
1356.000000	3.912666
1354.000000	3.902396
1352.000000	3.891100
1350.000000	3.880042
1348.000000	3.869318
1346.000000	3.857488
1344.000000	3.845224
1342.000000	3.831111
1340.000000	3.816198
1338.000000	3.807106
1336.000000	3.804121
1334.000000	3.801787
1332.000000	3.797396
1330.000000	3.787921
1328.000000	3.776509
1326.000000	3.765495
1324.000000	3.753591
1322.000000	3.738937
1320.000000	3.721951
1318.000000	3.705359
1316.000000	3.692279
1314.000000	3.677716
1312.000000	3.660897
1310.000000	3.644995
1308.000000	3.629303
1306.000000	3.613963
1304.000000	3.597840
1302.000000	3.579415
1300.000000	3.562374
1298.000000	3.544271
1296.000000	3.524478
1294.000000	3.506592
1292.000000	3.488599
1290.000000	3.467788
1288.000000	3.445746
1286.000000	3.425274
1284.000000	3.405414
1282.000000	3.383374
1280.000000	3.358982
1278.000000	3.332566
1276.000000	3.304877
1274.000000	3.272192
1272.000000	3.233759
1270.000000	3.185254
1268.000000	3.123763
1266.000000	3.048132
1264.000000	2.964164
1262.000000	2.889039
1260.000000	2.845831
1258.000000	2.841334
1256.000000	2.862931
1254.000000	2.888506
1252.000000	2.900297
1250.000000	2.894983
1248.000000	2.878174
1246.000000	2.854325
1244.000000	2.828002
1242.000000	2.800064
1240.000000	2.771720
1238.000000	2.744283
1236.000000	2.718975
1234.000000	2.694805
1232.000000	2.670076
1230.000000	2.644669
1228.000000	2.620390
1226.000000	2.596272
1224.000000	2.570610
1222.000000	2.544961
1220.000000	2.519470
1218.000000	2.492207
1216.000000	2.463903
1214.000000	2.435703
1212.000000	2.408621
1210.000000	2.383249
1208.000000	2.360074
1206.000000	2.338621
1204.000000	2.316953
1202.000000	2.295500
1200.000000	2.274716
1198.000000	2.252806
1196.000000	2.230538
1194.000000	2.208732
1192.000000	2.186507
1190.000000	2.162978
1188.000000	2.138709
1186.000000	2.113409
1184.000000	2.084905
1182.000000	2.047776
1180.000000	2.013975
1178.000000	1.997089
1176.000000	1.984072
1174.000000	1.965513
1172.000000	1.943467
1170.000000	1.918933
1168.000000	1.893890
1166.000000	1.868642
1164.000000	1.843264
1162.000000	1.819666
1160.000000	1.796113
1158.000000	1.771979
1156.000000	1.749411
1154.000000	1.726997
1152.000000	1.704411
1150.000000	1.681905
1148.000000	1.660845
1146.000000	1.638271
1144.000000	1.616301
1142.000000	1.595718
1140.000000	1.577820
1138.000000	1.561882
1136.000000	1.545224
1134.000000	1.525112
1132.000000	1.503129
1130.000000	1.480618
1128.000000	1.459103
1126.000000	1.438521
1124.000000	1.416842
1122.000000	1.393503
1120.000000	1.369832
1118.000000	1.346572
1116.000000	1.324232
1114.000000	1.300454
1112.000000	1.275804
1110.000000	1.251893
1108.000000	1.228601
1106.000000	1.205507
1104.000000	1.183696
1102.000000	1.162425
1100.000000	1.142145
1098.000000	1.122362
1096.000000	1.102299
1094.000000	1.082776
1092.000000	1.064829
1090.000000	1.047386
1088.000000	1.030331
1086.000000	1.014529
1084.000000	0.999311
1082.000000	0.983173
1080.000000	0.967160
1078.000000	0.952141
1076.000000	0.938868
1074.000000	0.927396
1072.000000	0.916967
1070.000000	0.906784
1068.000000	0.897077
1066.000000	0.886631
1064.000000	0.875144
1062.000000	0.864812
1060.000000	0.853957
1058.000000	0.841179
1056.000000	0.825174
1054.000000	0.802696
1052.000000	0.777207
1050.000000	0.760382
1048.000000	0.758025
1046.000000	0.761699
1044.000000	0.762667
1042.000000	0.759059
1040.000000	0.751561
1038.000000	0.742315
1036.000000	0.732039
1034.000000	0.720870
1032.000000	0.709464
1030.000000	0.697212
1028.000000	0.685129
1026.000000	0.672164
1024.000000	0.659349
1022.000000	0.647366
1020.000000	0.635176
1018.000000	0.623326
1016.000000	0.614302
1014.000000	0.606857
1012.000000	0.600574
1010.000000	0.594791
1008.000000	0.588179
1006.000000	0.582340
1004.000000	0.575974
1002.000000	0.566502
1000.000000	0.556066
