PE IR       SUBTECH     SPECTRUM    ASCII       PEDS        4.00        
   -1
TE110A_095_160K.ASC
20/05/14
17:06:30.00
20/05/14
17:06:31.00
Administrator
TE110A.Thursday, May 14 2020, 005.
1000.000000
#HDR
-1
-1
#GR
cm-1
A
1.0
0.0
6000.000000
-2.000000
2501
8
1.143291
1.088619
#DATA
6000.000000	1.105953
5998.000000	1.105821
5996.000000	1.105668
5994.000000	1.105645
5992.000000	1.105715
5990.000000	1.105762
5988.000000	1.105739
5986.000000	1.105393
5984.000000	1.105083
5982.000000	1.104835
5980.000000	1.104931
5978.000000	1.105069
5976.000000	1.105185
5974.000000	1.105186
5972.000000	1.105101
5970.000000	1.104875
5968.000000	1.104686
5966.000000	1.104684
5964.000000	1.104892
5962.000000	1.105409
5960.000000	1.105589
5958.000000	1.105578
5956.000000	1.105252
5954.000000	1.104786
5952.000000	1.104799
5950.000000	1.104862
5948.000000	1.105063
5946.000000	1.105108
5944.000000	1.104922
5942.000000	1.104689
5940.000000	1.104506
5938.000000	1.104758
5936.000000	1.104839
5934.000000	1.104809
5932.000000	1.104629
5930.000000	1.104481
5928.000000	1.104456
5926.000000	1.104358
5924.000000	1.104509
5922.000000	1.104877
5920.000000	1.104903
5918.000000	1.104705
5916.000000	1.104503
5914.000000	1.104509
5912.000000	1.104538
5910.000000	1.104573
5908.000000	1.104539
5906.000000	1.104699
5904.000000	1.104976
5902.000000	1.104854
5900.000000	1.104887
5898.000000	1.104914
5896.000000	1.104963
5894.000000	1.104873
5892.000000	1.104576
5890.000000	1.104539
5888.000000	1.104637
5886.000000	1.104397
5884.000000	1.104191
5882.000000	1.104073
5880.000000	1.104098
5878.000000	1.104221
5876.000000	1.104404
5874.000000	1.104445
5872.000000	1.104452
5870.000000	1.104359
5868.000000	1.104437
5866.000000	1.104459
5864.000000	1.104263
5862.000000	1.104099
5860.000000	1.104034
5858.000000	1.103775
5856.000000	1.103525
5854.000000	1.103443
5852.000000	1.103465
5850.000000	1.103532
5848.000000	1.103390
5846.000000	1.103460
5844.000000	1.103706
5842.000000	1.103866
5840.000000	1.103838
5838.000000	1.103811
5836.000000	1.104081
5834.000000	1.104581
5832.000000	1.104880
5830.000000	1.104697
5828.000000	1.104293
5826.000000	1.104065
5824.000000	1.104175
5822.000000	1.104393
5820.000000	1.104329
5818.000000	1.104134
5816.000000	1.103863
5814.000000	1.103676
5812.000000	1.103664
5810.000000	1.103809
5808.000000	1.103902
5806.000000	1.103810
5804.000000	1.103804
5802.000000	1.104087
5800.000000	1.104289
5798.000000	1.104326
5796.000000	1.104199
5794.000000	1.104236
5792.000000	1.104255
5790.000000	1.104154
5788.000000	1.103982
5786.000000	1.103789
5784.000000	1.103567
5782.000000	1.103617
5780.000000	1.103547
5778.000000	1.103552
5776.000000	1.103663
5774.000000	1.103727
5772.000000	1.103740
5770.000000	1.103464
5768.000000	1.103375
5766.000000	1.103469
5764.000000	1.103597
5762.000000	1.103729
5760.000000	1.103780
5758.000000	1.103860
5756.000000	1.103877
5754.000000	1.103873
5752.000000	1.103881
5750.000000	1.103918
5748.000000	1.103894
5746.000000	1.103766
5744.000000	1.103563
5742.000000	1.103310
5740.000000	1.103154
5738.000000	1.103198
5736.000000	1.103376
5734.000000	1.103488
5732.000000	1.103528
5730.000000	1.103471
5728.000000	1.103492
5726.000000	1.103370
5724.000000	1.103150
5722.000000	1.103108
5720.000000	1.103141
5718.000000	1.103544
5716.000000	1.103862
5714.000000	1.103760
5712.000000	1.103563
5710.000000	1.103279
5708.000000	1.103402
5706.000000	1.103506
5704.000000	1.103530
5702.000000	1.103441
5700.000000	1.103278
5698.000000	1.103238
5696.000000	1.103299
5694.000000	1.103495
5692.000000	1.103428
5690.000000	1.103298
5688.000000	1.103370
5686.000000	1.103510
5684.000000	1.103590
5682.000000	1.103533
5680.000000	1.103614
5678.000000	1.103701
5676.000000	1.103545
5674.000000	1.103189
5672.000000	1.102909
5670.000000	1.102624
5668.000000	1.102482
5666.000000	1.102677
5664.000000	1.103059
5662.000000	1.103238
5660.000000	1.103176
5658.000000	1.103023
5656.000000	1.103050
5654.000000	1.103257
5652.000000	1.103382
5650.000000	1.103388
5648.000000	1.103118
5646.000000	1.102641
5644.000000	1.102521
5642.000000	1.102740
5640.000000	1.103173
5638.000000	1.103309
5636.000000	1.103177
5634.000000	1.103064
5632.000000	1.103203
5630.000000	1.103332
5628.000000	1.103368
5626.000000	1.103160
5624.000000	1.103159
5622.000000	1.103302
5620.000000	1.103264
5618.000000	1.103022
5616.000000	1.102840
5614.000000	1.102833
5612.000000	1.102899
5610.000000	1.102954
5608.000000	1.103049
5606.000000	1.103048
5604.000000	1.102834
5602.000000	1.102581
5600.000000	1.102478
5598.000000	1.102659
5596.000000	1.102884
5594.000000	1.102866
5592.000000	1.102551
5590.000000	1.102395
5588.000000	1.102387
5586.000000	1.102451
5584.000000	1.102531
5582.000000	1.102660
5580.000000	1.102609
5578.000000	1.102513
5576.000000	1.102631
5574.000000	1.102842
5572.000000	1.102872
5570.000000	1.102677
5568.000000	1.102501
5566.000000	1.102330
5564.000000	1.102250
5562.000000	1.102434
5560.000000	1.102593
5558.000000	1.102550
5556.000000	1.102583
5554.000000	1.102600
5552.000000	1.102552
5550.000000	1.102313
5548.000000	1.102305
5546.000000	1.102416
5544.000000	1.102431
5542.000000	1.102397
5540.000000	1.102382
5538.000000	1.102409
5536.000000	1.102405
5534.000000	1.102472
5532.000000	1.102565
5530.000000	1.102475
5528.000000	1.102288
5526.000000	1.102196
5524.000000	1.102497
5522.000000	1.102734
5520.000000	1.102799
5518.000000	1.102681
5516.000000	1.102651
5514.000000	1.102696
5512.000000	1.102488
5510.000000	1.102198
5508.000000	1.101942
5506.000000	1.101909
5504.000000	1.102093
5502.000000	1.102045
5500.000000	1.101941
5498.000000	1.101949
5496.000000	1.101986
5494.000000	1.101867
5492.000000	1.101525
5490.000000	1.101534
5488.000000	1.101897
5486.000000	1.102281
5484.000000	1.102444
5482.000000	1.102359
5480.000000	1.102039
5478.000000	1.101646
5476.000000	1.101595
5474.000000	1.101746
5472.000000	1.101856
5470.000000	1.101574
5468.000000	1.101266
5466.000000	1.101234
5464.000000	1.101375
5462.000000	1.101576
5460.000000	1.101662
5458.000000	1.101759
5456.000000	1.101884
5454.000000	1.101986
5452.000000	1.101874
5450.000000	1.101621
5448.000000	1.101387
5446.000000	1.101390
5444.000000	1.101563
5442.000000	1.101766
5440.000000	1.101745
5438.000000	1.101612
5436.000000	1.101599
5434.000000	1.101521
5432.000000	1.101428
5430.000000	1.101412
5428.000000	1.101656
5426.000000	1.101907
5424.000000	1.101899
5422.000000	1.101696
5420.000000	1.101479
5418.000000	1.101191
5416.000000	1.101008
5414.000000	1.100938
5412.000000	1.101104
5410.000000	1.101450
5408.000000	1.101670
5406.000000	1.101751
5404.000000	1.101801
5402.000000	1.101752
5400.000000	1.101524
5398.000000	1.101057
5396.000000	1.100820
5394.000000	1.101114
5392.000000	1.101581
5390.000000	1.101731
5388.000000	1.101342
5386.000000	1.101003
5384.000000	1.101047
5382.000000	1.101293
5380.000000	1.101106
5378.000000	1.100890
5376.000000	1.101007
5374.000000	1.101472
5372.000000	1.101627
5370.000000	1.101457
5368.000000	1.101472
5366.000000	1.101584
5364.000000	1.101708
5362.000000	1.101824
5360.000000	1.101843
5358.000000	1.101540
5356.000000	1.100915
5354.000000	1.100798
5352.000000	1.101142
5350.000000	1.101213
5348.000000	1.100684
5346.000000	1.100327
5344.000000	1.100567
5342.000000	1.100831
5340.000000	1.100823
5338.000000	1.100841
5336.000000	1.100987
5334.000000	1.101027
5332.000000	1.100870
5330.000000	1.100774
5328.000000	1.100972
5326.000000	1.101253
5324.000000	1.101502
5322.000000	1.101491
5320.000000	1.101423
5318.000000	1.101477
5316.000000	1.101601
5314.000000	1.101577
5312.000000	1.101312
5310.000000	1.101161
5308.000000	1.101288
5306.000000	1.101366
5304.000000	1.101311
5302.000000	1.101105
5300.000000	1.100962
5298.000000	1.100925
5296.000000	1.100927
5294.000000	1.100791
5292.000000	1.100699
5290.000000	1.100881
5288.000000	1.101102
5286.000000	1.101032
5284.000000	1.100909
5282.000000	1.100899
5280.000000	1.101039
5278.000000	1.101140
5276.000000	1.101201
5274.000000	1.101150
5272.000000	1.101045
5270.000000	1.100919
5268.000000	1.100785
5266.000000	1.100730
5264.000000	1.100760
5262.000000	1.100924
5260.000000	1.101028
5258.000000	1.100833
5256.000000	1.100690
5254.000000	1.100933
5252.000000	1.101276
5250.000000	1.101212
5248.000000	1.101002
5246.000000	1.101127
5244.000000	1.101406
5242.000000	1.101386
5240.000000	1.101140
5238.000000	1.100926
5236.000000	1.100861
5234.000000	1.100854
5232.000000	1.100907
5230.000000	1.100960
5228.000000	1.100917
5226.000000	1.100957
5224.000000	1.101127
5222.000000	1.101182
5220.000000	1.101018
5218.000000	1.101020
5216.000000	1.101210
5214.000000	1.101275
5212.000000	1.100958
5210.000000	1.100354
5208.000000	1.100198
5206.000000	1.100641
5204.000000	1.101202
5202.000000	1.101173
5200.000000	1.100875
5198.000000	1.100739
5196.000000	1.100694
5194.000000	1.100806
5192.000000	1.100937
5190.000000	1.100908
5188.000000	1.100625
5186.000000	1.100502
5184.000000	1.100664
5182.000000	1.100834
5180.000000	1.100958
5178.000000	1.100930
5176.000000	1.100950
5174.000000	1.100978
5172.000000	1.101075
5170.000000	1.101101
5168.000000	1.101048
5166.000000	1.100992
5164.000000	1.100921
5162.000000	1.100969
5160.000000	1.101044
5158.000000	1.100981
5156.000000	1.100831
5154.000000	1.100861
5152.000000	1.101040
5150.000000	1.101076
5148.000000	1.101123
5146.000000	1.101274
5144.000000	1.101312
5142.000000	1.101191
5140.000000	1.101077
5138.000000	1.101062
5136.000000	1.101042
5134.000000	1.101056
5132.000000	1.101031
5130.000000	1.100994
5128.000000	1.101087
5126.000000	1.101149
5124.000000	1.101081
5122.000000	1.100991
5120.000000	1.101041
5118.000000	1.101147
5116.000000	1.101265
5114.000000	1.101246
5112.000000	1.101121
5110.000000	1.101055
5108.000000	1.101038
5106.000000	1.101088
5104.000000	1.101233
5102.000000	1.101244
5100.000000	1.101032
5098.000000	1.100908
5096.000000	1.101052
5094.000000	1.101092
5092.000000	1.100968
5090.000000	1.100934
5088.000000	1.100951
5086.000000	1.100927
5084.000000	1.100867
5082.000000	1.100838
5080.000000	1.100942
5078.000000	1.101099
5076.000000	1.101190
5074.000000	1.101108
5072.000000	1.101001
5070.000000	1.100984
5068.000000	1.100999
5066.000000	1.100991
5064.000000	1.100973
5062.000000	1.101051
5060.000000	1.101239
5058.000000	1.101461
5056.000000	1.101627
5054.000000	1.101648
5052.000000	1.101542
5050.000000	1.101441
5048.000000	1.101364
5046.000000	1.101253
5044.000000	1.101161
5042.000000	1.101252
5040.000000	1.101462
5038.000000	1.101469
5036.000000	1.101278
5034.000000	1.101171
5032.000000	1.101312
5030.000000	1.101440
5028.000000	1.101422
5026.000000	1.101299
5024.000000	1.101276
5022.000000	1.101366
5020.000000	1.101414
5018.000000	1.101381
5016.000000	1.101349
5014.000000	1.101360
5012.000000	1.101435
5010.000000	1.101572
5008.000000	1.101573
5006.000000	1.101363
5004.000000	1.101269
5002.000000	1.101332
5000.000000	1.101425
4998.000000	1.101427
4996.000000	1.101485
4994.000000	1.101633
4992.000000	1.101725
4990.000000	1.101642
4988.000000	1.101449
4986.000000	1.101374
4984.000000	1.101434
4982.000000	1.101548
4980.000000	1.101590
4978.000000	1.101540
4976.000000	1.101498
4974.000000	1.101586
4972.000000	1.101684
4970.000000	1.101672
4968.000000	1.101650
4966.000000	1.101748
4964.000000	1.101811
4962.000000	1.101745
4960.000000	1.101637
4958.000000	1.101626
4956.000000	1.101695
4954.000000	1.101726
4952.000000	1.101715
4950.000000	1.101823
4948.000000	1.102009
4946.000000	1.102135
4944.000000	1.102139
4942.000000	1.102074
4940.000000	1.101949
4938.000000	1.101865
4936.000000	1.101802
4934.000000	1.101718
4932.000000	1.101653
4930.000000	1.101653
4928.000000	1.101675
4926.000000	1.101720
4924.000000	1.101876
4922.000000	1.102031
4920.000000	1.102040
4918.000000	1.101895
4916.000000	1.101808
4914.000000	1.101798
4912.000000	1.101775
4910.000000	1.101774
4908.000000	1.101835
4906.000000	1.101801
4904.000000	1.101650
4902.000000	1.101600
4900.000000	1.101738
4898.000000	1.101779
4896.000000	1.101669
4894.000000	1.101639
4892.000000	1.101740
4890.000000	1.101783
4888.000000	1.101717
4886.000000	1.101694
4884.000000	1.101742
4882.000000	1.101795
4880.000000	1.101858
4878.000000	1.101900
4876.000000	1.101919
4874.000000	1.101990
4872.000000	1.102063
4870.000000	1.102008
4868.000000	1.101903
4866.000000	1.101896
4864.000000	1.102009
4862.000000	1.102081
4860.000000	1.102052
4858.000000	1.102047
4856.000000	1.102169
4854.000000	1.102295
4852.000000	1.102277
4850.000000	1.102220
4848.000000	1.102223
4846.000000	1.102230
4844.000000	1.102197
4842.000000	1.102137
4840.000000	1.102128
4838.000000	1.102140
4836.000000	1.102109
4834.000000	1.102112
4832.000000	1.102206
4830.000000	1.102296
4828.000000	1.102226
4826.000000	1.102091
4824.000000	1.102129
4822.000000	1.102245
4820.000000	1.102230
4818.000000	1.102156
4816.000000	1.102317
4814.000000	1.102499
4812.000000	1.102529
4810.000000	1.102533
4808.000000	1.102559
4806.000000	1.102423
4804.000000	1.102222
4802.000000	1.102091
4800.000000	1.102071
4798.000000	1.102095
4796.000000	1.102072
4794.000000	1.102012
4792.000000	1.102070
4790.000000	1.102202
4788.000000	1.102305
4786.000000	1.102370
4784.000000	1.102345
4782.000000	1.102193
4780.000000	1.102103
4778.000000	1.102182
4776.000000	1.102324
4774.000000	1.102398
4772.000000	1.102362
4770.000000	1.102268
4768.000000	1.102272
4766.000000	1.102424
4764.000000	1.102595
4762.000000	1.102634
4760.000000	1.102561
4758.000000	1.102486
4756.000000	1.102514
4754.000000	1.102592
4752.000000	1.102540
4750.000000	1.102313
4748.000000	1.102275
4746.000000	1.102494
4744.000000	1.102740
4742.000000	1.102687
4740.000000	1.102462
4738.000000	1.102316
4736.000000	1.102381
4734.000000	1.102471
4732.000000	1.102418
4730.000000	1.102345
4728.000000	1.102383
4726.000000	1.102501
4724.000000	1.102481
4722.000000	1.102352
4720.000000	1.102322
4718.000000	1.102357
4716.000000	1.102386
4714.000000	1.102496
4712.000000	1.102573
4710.000000	1.102434
4708.000000	1.102289
4706.000000	1.102251
4704.000000	1.102237
4702.000000	1.102221
4700.000000	1.102269
4698.000000	1.102319
4696.000000	1.102397
4694.000000	1.102439
4692.000000	1.102388
4690.000000	1.102358
4688.000000	1.102443
4686.000000	1.102527
4684.000000	1.102477
4682.000000	1.102407
4680.000000	1.102326
4678.000000	1.102232
4676.000000	1.102263
4674.000000	1.102429
4672.000000	1.102539
4670.000000	1.102607
4668.000000	1.102686
4666.000000	1.102665
4664.000000	1.102554
4662.000000	1.102526
4660.000000	1.102662
4658.000000	1.102755
4656.000000	1.102709
4654.000000	1.102615
4652.000000	1.102616
4650.000000	1.102726
4648.000000	1.102802
4646.000000	1.102722
4644.000000	1.102631
4642.000000	1.102685
4640.000000	1.102813
4638.000000	1.102917
4636.000000	1.102934
4634.000000	1.102829
4632.000000	1.102696
4630.000000	1.102637
4628.000000	1.102734
4626.000000	1.102824
4624.000000	1.102692
4622.000000	1.102481
4620.000000	1.102538
4618.000000	1.102694
4616.000000	1.102680
4614.000000	1.102617
4612.000000	1.102691
4610.000000	1.102772
4608.000000	1.102816
4606.000000	1.102806
4604.000000	1.102719
4602.000000	1.102644
4600.000000	1.102719
4598.000000	1.102890
4596.000000	1.103001
4594.000000	1.102900
4592.000000	1.102744
4590.000000	1.102711
4588.000000	1.102736
4586.000000	1.102732
4584.000000	1.102781
4582.000000	1.102868
4580.000000	1.102976
4578.000000	1.103044
4576.000000	1.103019
4574.000000	1.102984
4572.000000	1.102991
4570.000000	1.102972
4568.000000	1.102930
4566.000000	1.102907
4564.000000	1.102945
4562.000000	1.103068
4560.000000	1.103195
4558.000000	1.103146
4556.000000	1.102996
4554.000000	1.102934
4552.000000	1.102948
4550.000000	1.102958
4548.000000	1.102978
4546.000000	1.103068
4544.000000	1.103209
4542.000000	1.103201
4540.000000	1.102998
4538.000000	1.102869
4536.000000	1.102873
4534.000000	1.102946
4532.000000	1.103093
4530.000000	1.103193
4528.000000	1.103128
4526.000000	1.103029
4524.000000	1.103017
4522.000000	1.103057
4520.000000	1.103094
4518.000000	1.103117
4516.000000	1.103092
4514.000000	1.103057
4512.000000	1.103126
4510.000000	1.103176
4508.000000	1.103076
4506.000000	1.103068
4504.000000	1.103164
4502.000000	1.103064
4500.000000	1.102902
4498.000000	1.102954
4496.000000	1.103073
4494.000000	1.103099
4492.000000	1.103107
4490.000000	1.103076
4488.000000	1.102985
4486.000000	1.102916
4484.000000	1.103008
4482.000000	1.103174
4480.000000	1.103247
4478.000000	1.103215
4476.000000	1.103205
4474.000000	1.103227
4472.000000	1.103252
4470.000000	1.103274
4468.000000	1.103324
4466.000000	1.103355
4464.000000	1.103264
4462.000000	1.103168
4460.000000	1.103241
4458.000000	1.103427
4456.000000	1.103539
4454.000000	1.103525
4452.000000	1.103417
4450.000000	1.103334
4448.000000	1.103281
4446.000000	1.103217
4444.000000	1.103227
4442.000000	1.103333
4440.000000	1.103358
4438.000000	1.103298
4436.000000	1.103323
4434.000000	1.103385
4432.000000	1.103371
4430.000000	1.103342
4428.000000	1.103339
4426.000000	1.103324
4424.000000	1.103329
4422.000000	1.103414
4420.000000	1.103501
4418.000000	1.103460
4416.000000	1.103401
4414.000000	1.103434
4412.000000	1.103446
4410.000000	1.103439
4408.000000	1.103451
4406.000000	1.103411
4404.000000	1.103327
4402.000000	1.103236
4400.000000	1.103173
4398.000000	1.103168
4396.000000	1.103236
4394.000000	1.103417
4392.000000	1.103584
4390.000000	1.103553
4388.000000	1.103462
4386.000000	1.103475
4384.000000	1.103525
4382.000000	1.103505
4380.000000	1.103426
4378.000000	1.103449
4376.000000	1.103580
4374.000000	1.103655
4372.000000	1.103634
4370.000000	1.103608
4368.000000	1.103614
4366.000000	1.103695
4364.000000	1.103705
4362.000000	1.103561
4360.000000	1.103419
4358.000000	1.103420
4356.000000	1.103498
4354.000000	1.103545
4352.000000	1.103559
4350.000000	1.103566
4348.000000	1.103510
4346.000000	1.103413
4344.000000	1.103422
4342.000000	1.103488
4340.000000	1.103471
4338.000000	1.103407
4336.000000	1.103382
4334.000000	1.103469
4332.000000	1.103607
4330.000000	1.103591
4328.000000	1.103465
4326.000000	1.103404
4324.000000	1.103462
4322.000000	1.103561
4320.000000	1.103603
4318.000000	1.103616
4316.000000	1.103646
4314.000000	1.103646
4312.000000	1.103530
4310.000000	1.103299
4308.000000	1.103217
4306.000000	1.103313
4304.000000	1.103377
4302.000000	1.103407
4300.000000	1.103425
4298.000000	1.103442
4296.000000	1.103526
4294.000000	1.103591
4292.000000	1.103564
4290.000000	1.103538
4288.000000	1.103544
4286.000000	1.103508
4284.000000	1.103467
4282.000000	1.103477
4280.000000	1.103492
4278.000000	1.103559
4276.000000	1.103689
4274.000000	1.103769
4272.000000	1.103730
4270.000000	1.103613
4268.000000	1.103555
4266.000000	1.103588
4264.000000	1.103550
4262.000000	1.103510
4260.000000	1.103576
4258.000000	1.103625
4256.000000	1.103586
4254.000000	1.103577
4252.000000	1.103584
4250.000000	1.103575
4248.000000	1.103533
4246.000000	1.103468
4244.000000	1.103447
4242.000000	1.103508
4240.000000	1.103492
4238.000000	1.103393
4236.000000	1.103379
4234.000000	1.103441
4232.000000	1.103446
4230.000000	1.103377
4228.000000	1.103315
4226.000000	1.103327
4224.000000	1.103417
4222.000000	1.103484
4220.000000	1.103460
4218.000000	1.103445
4216.000000	1.103456
4214.000000	1.103400
4212.000000	1.103333
4210.000000	1.103331
4208.000000	1.103321
4206.000000	1.103247
4204.000000	1.103231
4202.000000	1.103303
4200.000000	1.103360
4198.000000	1.103367
4196.000000	1.103315
4194.000000	1.103274
4192.000000	1.103339
4190.000000	1.103427
4188.000000	1.103427
4186.000000	1.103401
4184.000000	1.103367
4182.000000	1.103286
4180.000000	1.103205
4178.000000	1.103213
4176.000000	1.103214
4174.000000	1.103190
4172.000000	1.103224
4170.000000	1.103321
4168.000000	1.103428
4166.000000	1.103445
4164.000000	1.103328
4162.000000	1.103287
4160.000000	1.103321
4158.000000	1.103307
4156.000000	1.103238
4154.000000	1.103179
4152.000000	1.103224
4150.000000	1.103330
4148.000000	1.103220
4146.000000	1.102985
4144.000000	1.102943
4142.000000	1.103031
4140.000000	1.103043
4138.000000	1.103038
4136.000000	1.103030
4134.000000	1.102992
4132.000000	1.103001
4130.000000	1.103017
4128.000000	1.102973
4126.000000	1.102956
4124.000000	1.102970
4122.000000	1.102930
4120.000000	1.102826
4118.000000	1.102767
4116.000000	1.102780
4114.000000	1.102799
4112.000000	1.102862
4110.000000	1.102927
4108.000000	1.102874
4106.000000	1.102826
4104.000000	1.102827
4102.000000	1.102774
4100.000000	1.102734
4098.000000	1.102747
4096.000000	1.102716
4094.000000	1.102695
4092.000000	1.102727
4090.000000	1.102751
4088.000000	1.102754
4086.000000	1.102801
4084.000000	1.102853
4082.000000	1.102844
4080.000000	1.102815
4078.000000	1.102793
4076.000000	1.102697
4074.000000	1.102583
4072.000000	1.102566
4070.000000	1.102612
4068.000000	1.102645
4066.000000	1.102669
4064.000000	1.102623
4062.000000	1.102484
4060.000000	1.102376
4058.000000	1.102372
4056.000000	1.102338
4054.000000	1.102292
4052.000000	1.102324
4050.000000	1.102328
4048.000000	1.102271
4046.000000	1.102272
4044.000000	1.102295
4042.000000	1.102312
4040.000000	1.102301
4038.000000	1.102288
4036.000000	1.102277
4034.000000	1.102202
4032.000000	1.102123
4030.000000	1.102102
4028.000000	1.102076
4026.000000	1.102068
4024.000000	1.102103
4022.000000	1.102145
4020.000000	1.102142
4018.000000	1.102081
4016.000000	1.101993
4014.000000	1.101940
4012.000000	1.101877
4010.000000	1.101840
4008.000000	1.101904
4006.000000	1.101926
4004.000000	1.101829
4002.000000	1.101815
4000.000000	1.101877
3998.000000	1.101889
3996.000000	1.101869
3994.000000	1.101806
3992.000000	1.101757
3990.000000	1.101866
3988.000000	1.101926
3986.000000	1.101828
3984.000000	1.101764
3982.000000	1.101757
3980.000000	1.101750
3978.000000	1.101746
3976.000000	1.101695
3974.000000	1.101629
3972.000000	1.101602
3970.000000	1.101625
3968.000000	1.101619
3966.000000	1.101513
3964.000000	1.101332
3962.000000	1.101309
3960.000000	1.101458
3958.000000	1.101472
3956.000000	1.101389
3954.000000	1.101330
3952.000000	1.101089
3950.000000	1.100863
3948.000000	1.100963
3946.000000	1.100964
3944.000000	1.100754
3942.000000	1.100978
3940.000000	1.101336
3938.000000	1.101298
3936.000000	1.100964
3934.000000	1.100498
3932.000000	1.100486
3930.000000	1.100866
3928.000000	1.100699
3926.000000	1.100335
3924.000000	1.100461
3922.000000	1.100368
3920.000000	1.099754
3918.000000	1.099686
3916.000000	1.100467
3914.000000	1.101019
3912.000000	1.100948
3910.000000	1.100680
3908.000000	1.099616
3906.000000	1.097771
3904.000000	1.097056
3902.000000	1.097859
3900.000000	1.099188
3898.000000	1.100550
3896.000000	1.100674
3894.000000	1.099186
3892.000000	1.098559
3890.000000	1.099334
3888.000000	1.098581
3886.000000	1.097950
3884.000000	1.099141
3882.000000	1.099268
3880.000000	1.099385
3878.000000	1.100049
3876.000000	1.099279
3874.000000	1.097899
3872.000000	1.096388
3870.000000	1.096686
3868.000000	1.098463
3866.000000	1.098352
3864.000000	1.098307
3862.000000	1.099545
3860.000000	1.099762
3858.000000	1.096435
3856.000000	1.090050
3854.000000	1.089367
3852.000000	1.096664
3850.000000	1.101436
3848.000000	1.100683
3846.000000	1.098949
3844.000000	1.097958
3842.000000	1.096611
3840.000000	1.094313
3838.000000	1.094615
3836.000000	1.097753
3834.000000	1.099005
3832.000000	1.098864
3830.000000	1.099216
3828.000000	1.099107
3826.000000	1.098439
3824.000000	1.096486
3822.000000	1.095220
3820.000000	1.096190
3818.000000	1.095646
3816.000000	1.096169
3814.000000	1.099558
3812.000000	1.100081
3810.000000	1.097338
3808.000000	1.095723
3806.000000	1.096650
3804.000000	1.095546
3802.000000	1.094294
3800.000000	1.097235
3798.000000	1.099103
3796.000000	1.099010
3794.000000	1.099579
3792.000000	1.099723
3790.000000	1.099437
3788.000000	1.099066
3786.000000	1.098802
3784.000000	1.098760
3782.000000	1.098303
3780.000000	1.098040
3778.000000	1.098873
3776.000000	1.099485
3774.000000	1.098740
3772.000000	1.097297
3770.000000	1.097118
3768.000000	1.097939
3766.000000	1.098321
3764.000000	1.098399
3762.000000	1.097606
3760.000000	1.096888
3758.000000	1.097353
3756.000000	1.096183
3754.000000	1.092119
3752.000000	1.089914
3750.000000	1.092337
3748.000000	1.093207
3746.000000	1.090330
3744.000000	1.092851
3742.000000	1.098300
3740.000000	1.097138
3738.000000	1.093488
3736.000000	1.093036
3734.000000	1.094551
3732.000000	1.096343
3730.000000	1.097588
3728.000000	1.096986
3726.000000	1.096424
3724.000000	1.096780
3722.000000	1.097137
3720.000000	1.097498
3718.000000	1.097549
3716.000000	1.096240
3714.000000	1.093739
3712.000000	1.093536
3710.000000	1.096046
3708.000000	1.097741
3706.000000	1.097501
3704.000000	1.096324
3702.000000	1.096160
3700.000000	1.097223
3698.000000	1.097651
3696.000000	1.097082
3694.000000	1.095619
3692.000000	1.093016
3690.000000	1.091366
3688.000000	1.094000
3686.000000	1.097539
3684.000000	1.097545
3682.000000	1.096154
3680.000000	1.094225
3678.000000	1.090899
3676.000000	1.090302
3674.000000	1.092787
3672.000000	1.092393
3670.000000	1.092838
3668.000000	1.096137
3666.000000	1.097171
3664.000000	1.096440
3662.000000	1.095920
3660.000000	1.094867
3658.000000	1.093298
3656.000000	1.093569
3654.000000	1.093731
3652.000000	1.090688
3650.000000	1.089301
3648.000000	1.092465
3646.000000	1.095445
3644.000000	1.095635
3642.000000	1.094979
3640.000000	1.094754
3638.000000	1.094548
3636.000000	1.094135
3634.000000	1.093280
3632.000000	1.090643
3630.000000	1.088619
3628.000000	1.091597
3626.000000	1.094867
3624.000000	1.094210
3622.000000	1.092059
3620.000000	1.091147
3618.000000	1.092261
3616.000000	1.092711
3614.000000	1.091856
3612.000000	1.091277
3610.000000	1.091166
3608.000000	1.092200
3606.000000	1.093439
3604.000000	1.093305
3602.000000	1.092710
3600.000000	1.092530
3598.000000	1.092315
3596.000000	1.092086
3594.000000	1.092339
3592.000000	1.092063
3590.000000	1.090695
3588.000000	1.090455
3586.000000	1.091946
3584.000000	1.092789
3582.000000	1.092595
3580.000000	1.092400
3578.000000	1.092353
3576.000000	1.092343
3574.000000	1.092369
3572.000000	1.091913
3570.000000	1.090678
3568.000000	1.090158
3566.000000	1.091257
3564.000000	1.092201
3562.000000	1.092167
3560.000000	1.092104
3558.000000	1.092256
3556.000000	1.092169
3554.000000	1.091872
3552.000000	1.091904
3550.000000	1.091962
3548.000000	1.091609
3546.000000	1.091504
3544.000000	1.091883
3542.000000	1.092235
3540.000000	1.092255
3538.000000	1.092150
3536.000000	1.092215
3534.000000	1.092352
3532.000000	1.092254
3530.000000	1.092034
3528.000000	1.092025
3526.000000	1.092168
3524.000000	1.092331
3522.000000	1.092649
3520.000000	1.092884
3518.000000	1.092965
3516.000000	1.093026
3514.000000	1.093073
3512.000000	1.093107
3510.000000	1.093253
3508.000000	1.093513
3506.000000	1.093531
3504.000000	1.093503
3502.000000	1.093840
3500.000000	1.094175
3498.000000	1.094275
3496.000000	1.094361
3494.000000	1.094580
3492.000000	1.094755
3490.000000	1.094851
3488.000000	1.095067
3486.000000	1.095308
3484.000000	1.095407
3482.000000	1.095529
3480.000000	1.095730
3478.000000	1.095967
3476.000000	1.096254
3474.000000	1.096527
3472.000000	1.096771
3470.000000	1.096940
3468.000000	1.097109
3466.000000	1.097411
3464.000000	1.097761
3462.000000	1.098077
3460.000000	1.098394
3458.000000	1.098703
3456.000000	1.099009
3454.000000	1.099277
3452.000000	1.099519
3450.000000	1.099741
3448.000000	1.099941
3446.000000	1.100278
3444.000000	1.100643
3442.000000	1.101015
3440.000000	1.101448
3438.000000	1.101819
3436.000000	1.102145
3434.000000	1.102543
3432.000000	1.102956
3430.000000	1.103240
3428.000000	1.103498
3426.000000	1.103773
3424.000000	1.103961
3422.000000	1.104161
3420.000000	1.104478
3418.000000	1.104816
3416.000000	1.105069
3414.000000	1.105240
3412.000000	1.105461
3410.000000	1.105712
3408.000000	1.105844
3406.000000	1.105898
3404.000000	1.105952
3402.000000	1.106115
3400.000000	1.106365
3398.000000	1.106597
3396.000000	1.106739
3394.000000	1.106801
3392.000000	1.106904
3390.000000	1.107037
3388.000000	1.107106
3386.000000	1.107201
3384.000000	1.107336
3382.000000	1.107466
3380.000000	1.107658
3378.000000	1.107856
3376.000000	1.107961
3374.000000	1.108010
3372.000000	1.108024
3370.000000	1.108029
3368.000000	1.108138
3366.000000	1.108316
3364.000000	1.108432
3362.000000	1.108467
3360.000000	1.108516
3358.000000	1.108633
3356.000000	1.108737
3354.000000	1.108827
3352.000000	1.108852
3350.000000	1.108883
3348.000000	1.109004
3346.000000	1.109101
3344.000000	1.109147
3342.000000	1.109181
3340.000000	1.109200
3338.000000	1.109259
3336.000000	1.109403
3334.000000	1.109612
3332.000000	1.109800
3330.000000	1.109818
3328.000000	1.109794
3326.000000	1.109844
3324.000000	1.109914
3322.000000	1.110069
3320.000000	1.110285
3318.000000	1.110417
3316.000000	1.110491
3314.000000	1.110586
3312.000000	1.110633
3310.000000	1.110631
3308.000000	1.110646
3306.000000	1.110715
3304.000000	1.110892
3302.000000	1.111052
3300.000000	1.111091
3298.000000	1.111103
3296.000000	1.111101
3294.000000	1.111124
3292.000000	1.111238
3290.000000	1.111412
3288.000000	1.111535
3286.000000	1.111505
3284.000000	1.111471
3282.000000	1.111560
3280.000000	1.111627
3278.000000	1.111657
3276.000000	1.111649
3274.000000	1.111637
3272.000000	1.111700
3270.000000	1.111793
3268.000000	1.111873
3266.000000	1.111957
3264.000000	1.111956
3262.000000	1.111926
3260.000000	1.112017
3258.000000	1.112118
3256.000000	1.112117
3254.000000	1.112086
3252.000000	1.112132
3250.000000	1.112194
3248.000000	1.112236
3246.000000	1.112231
3244.000000	1.112279
3242.000000	1.112306
3240.000000	1.112305
3238.000000	1.112361
3236.000000	1.112329
3234.000000	1.112281
3232.000000	1.112353
3230.000000	1.112450
3228.000000	1.112556
3226.000000	1.112641
3224.000000	1.112662
3222.000000	1.112664
3220.000000	1.112668
3218.000000	1.112663
3216.000000	1.112629
3214.000000	1.112662
3212.000000	1.112692
3210.000000	1.112654
3208.000000	1.112684
3206.000000	1.112764
3204.000000	1.112801
3202.000000	1.112853
3200.000000	1.112880
3198.000000	1.112912
3196.000000	1.112991
3194.000000	1.113017
3192.000000	1.112958
3190.000000	1.112977
3188.000000	1.113028
3186.000000	1.113022
3184.000000	1.113025
3182.000000	1.112997
3180.000000	1.113007
3178.000000	1.113170
3176.000000	1.113248
3174.000000	1.113206
3172.000000	1.113263
3170.000000	1.113382
3168.000000	1.113423
3166.000000	1.113449
3164.000000	1.113532
3162.000000	1.113587
3160.000000	1.113669
3158.000000	1.113763
3156.000000	1.113792
3154.000000	1.113747
3152.000000	1.113778
3150.000000	1.113865
3148.000000	1.113926
3146.000000	1.114057
3144.000000	1.114140
3142.000000	1.114125
3140.000000	1.114188
3138.000000	1.114290
3136.000000	1.114322
3134.000000	1.114345
3132.000000	1.114397
3130.000000	1.114465
3128.000000	1.114516
3126.000000	1.114595
3124.000000	1.114652
3122.000000	1.114571
3120.000000	1.114466
3118.000000	1.114545
3116.000000	1.114749
3114.000000	1.114908
3112.000000	1.114929
3110.000000	1.114877
3108.000000	1.114863
3106.000000	1.114877
3104.000000	1.114872
3102.000000	1.114876
3100.000000	1.114901
3098.000000	1.114892
3096.000000	1.114898
3094.000000	1.114940
3092.000000	1.114941
3090.000000	1.114952
3088.000000	1.114947
3086.000000	1.114873
3084.000000	1.114794
3082.000000	1.114727
3080.000000	1.114702
3078.000000	1.114709
3076.000000	1.114776
3074.000000	1.114856
3072.000000	1.114856
3070.000000	1.114792
3068.000000	1.114718
3066.000000	1.114767
3064.000000	1.114871
3062.000000	1.114948
3060.000000	1.114958
3058.000000	1.114855
3056.000000	1.114807
3054.000000	1.114850
3052.000000	1.114868
3050.000000	1.114785
3048.000000	1.114662
3046.000000	1.114643
3044.000000	1.114702
3042.000000	1.114760
3040.000000	1.114822
3038.000000	1.114820
3036.000000	1.114770
3034.000000	1.114678
3032.000000	1.114567
3030.000000	1.114551
3028.000000	1.114533
3026.000000	1.114488
3024.000000	1.114508
3022.000000	1.114509
3020.000000	1.114621
3018.000000	1.114849
3016.000000	1.115013
3014.000000	1.115176
3012.000000	1.115323
3010.000000	1.115358
3008.000000	1.115220
3006.000000	1.115031
3004.000000	1.114887
3002.000000	1.114776
3000.000000	1.114738
2998.000000	1.114700
2996.000000	1.114595
2994.000000	1.114560
2992.000000	1.114605
2990.000000	1.114614
2988.000000	1.114610
2986.000000	1.114607
2984.000000	1.114613
2982.000000	1.114656
2980.000000	1.114627
2978.000000	1.114495
2976.000000	1.114400
2974.000000	1.114418
2972.000000	1.114497
2970.000000	1.114603
2968.000000	1.114834
2966.000000	1.115272
2964.000000	1.115918
2962.000000	1.116525
2960.000000	1.116815
2958.000000	1.116763
2956.000000	1.116491
2954.000000	1.116097
2952.000000	1.115629
2950.000000	1.115145
2948.000000	1.114685
2946.000000	1.114256
2944.000000	1.113896
2942.000000	1.113633
2940.000000	1.113503
2938.000000	1.113519
2936.000000	1.113655
2934.000000	1.113787
2932.000000	1.113779
2930.000000	1.113749
2928.000000	1.113997
2926.000000	1.114468
2924.000000	1.115188
2922.000000	1.116033
2920.000000	1.116589
2918.000000	1.116694
2916.000000	1.116613
2914.000000	1.116475
2912.000000	1.116198
2910.000000	1.115856
2908.000000	1.115567
2906.000000	1.115395
2904.000000	1.115299
2902.000000	1.115208
2900.000000	1.115113
2898.000000	1.115054
2896.000000	1.114988
2894.000000	1.114912
2892.000000	1.114864
2890.000000	1.114782
2888.000000	1.114691
2886.000000	1.114595
2884.000000	1.114437
2882.000000	1.114205
2880.000000	1.114046
2878.000000	1.113952
2876.000000	1.113758
2874.000000	1.113534
2872.000000	1.113385
2870.000000	1.113132
2868.000000	1.112767
2866.000000	1.112530
2864.000000	1.112672
2862.000000	1.113122
2860.000000	1.113754
2858.000000	1.114285
2856.000000	1.114507
2854.000000	1.114598
2852.000000	1.114732
2850.000000	1.114971
2848.000000	1.115190
2846.000000	1.115158
2844.000000	1.114911
2842.000000	1.114637
2840.000000	1.114408
2838.000000	1.114241
2836.000000	1.114166
2834.000000	1.114119
2832.000000	1.114097
2830.000000	1.114085
2828.000000	1.114074
2826.000000	1.114073
2824.000000	1.114027
2822.000000	1.113962
2820.000000	1.113962
2818.000000	1.113955
2816.000000	1.113890
2814.000000	1.113799
2812.000000	1.113724
2810.000000	1.113673
2808.000000	1.113601
2806.000000	1.113573
2804.000000	1.113627
2802.000000	1.113639
2800.000000	1.113616
2798.000000	1.113604
2796.000000	1.113608
2794.000000	1.113586
2792.000000	1.113562
2790.000000	1.113578
2788.000000	1.113595
2786.000000	1.113631
2784.000000	1.113669
2782.000000	1.113647
2780.000000	1.113559
2778.000000	1.113505
2776.000000	1.113498
2774.000000	1.113476
2772.000000	1.113446
2770.000000	1.113476
2768.000000	1.113515
2766.000000	1.113515
2764.000000	1.113503
2762.000000	1.113503
2760.000000	1.113453
2758.000000	1.113324
2756.000000	1.113328
2754.000000	1.113426
2752.000000	1.113438
2750.000000	1.113448
2748.000000	1.113497
2746.000000	1.113509
2744.000000	1.113545
2742.000000	1.113586
2740.000000	1.113630
2738.000000	1.113650
2736.000000	1.113598
2734.000000	1.113605
2732.000000	1.113656
2730.000000	1.113702
2728.000000	1.113708
2726.000000	1.113677
2724.000000	1.113756
2722.000000	1.113902
2720.000000	1.113938
2718.000000	1.113903
2716.000000	1.113912
2714.000000	1.113962
2712.000000	1.114038
2710.000000	1.114167
2708.000000	1.114280
2706.000000	1.114397
2704.000000	1.114507
2702.000000	1.114609
2700.000000	1.114697
2698.000000	1.114717
2696.000000	1.114808
2694.000000	1.114977
2692.000000	1.115073
2690.000000	1.115063
2688.000000	1.115116
2686.000000	1.115204
2684.000000	1.115250
2682.000000	1.115280
2680.000000	1.115358
2678.000000	1.115483
2676.000000	1.115597
2674.000000	1.115652
2672.000000	1.115720
2670.000000	1.115781
2668.000000	1.115831
2666.000000	1.115934
2664.000000	1.116003
2662.000000	1.116028
2660.000000	1.116118
2658.000000	1.116228
2656.000000	1.116304
2654.000000	1.116348
2652.000000	1.116392
2650.000000	1.116507
2648.000000	1.116590
2646.000000	1.116541
2644.000000	1.116566
2642.000000	1.116655
2640.000000	1.116684
2638.000000	1.116687
2636.000000	1.116759
2634.000000	1.116785
2632.000000	1.116745
2630.000000	1.116769
2628.000000	1.116841
2626.000000	1.116884
2624.000000	1.116962
2622.000000	1.116987
2620.000000	1.116902
2618.000000	1.116823
2616.000000	1.116806
2614.000000	1.116836
2612.000000	1.116892
2610.000000	1.116929
2608.000000	1.116892
2606.000000	1.116863
2604.000000	1.116884
2602.000000	1.116930
2600.000000	1.117009
2598.000000	1.117073
2596.000000	1.117159
2594.000000	1.117174
2592.000000	1.117201
2590.000000	1.117301
2588.000000	1.117310
2586.000000	1.117245
2584.000000	1.117243
2582.000000	1.117296
2580.000000	1.117410
2578.000000	1.117502
2576.000000	1.117492
2574.000000	1.117451
2572.000000	1.117428
2570.000000	1.117384
2568.000000	1.117413
2566.000000	1.117489
2564.000000	1.117491
2562.000000	1.117503
2560.000000	1.117582
2558.000000	1.117611
2556.000000	1.117565
2554.000000	1.117514
2552.000000	1.117568
2550.000000	1.117603
2548.000000	1.117572
2546.000000	1.117598
2544.000000	1.117666
2542.000000	1.117659
2540.000000	1.117640
2538.000000	1.117633
2536.000000	1.117566
2534.000000	1.117490
2532.000000	1.117519
2530.000000	1.117586
2528.000000	1.117612
2526.000000	1.117636
2524.000000	1.117629
2522.000000	1.117622
2520.000000	1.117635
2518.000000	1.117671
2516.000000	1.117685
2514.000000	1.117605
2512.000000	1.117569
2510.000000	1.117548
2508.000000	1.117539
2506.000000	1.117566
2504.000000	1.117604
2502.000000	1.117658
2500.000000	1.117678
2498.000000	1.117683
2496.000000	1.117708
2494.000000	1.117714
2492.000000	1.117721
2490.000000	1.117678
2488.000000	1.117643
2486.000000	1.117644
2484.000000	1.117660
2482.000000	1.117635
2480.000000	1.117645
2478.000000	1.117676
2476.000000	1.117699
2474.000000	1.117750
2472.000000	1.117775
2470.000000	1.117736
2468.000000	1.117743
2466.000000	1.117795
2464.000000	1.117922
2462.000000	1.117946
2460.000000	1.117932
2458.000000	1.117968
2456.000000	1.118014
2454.000000	1.118055
2452.000000	1.118111
2450.000000	1.118131
2448.000000	1.118131
2446.000000	1.118164
2444.000000	1.118248
2442.000000	1.118287
2440.000000	1.118359
2438.000000	1.118418
2436.000000	1.118411
2434.000000	1.118472
2432.000000	1.118635
2430.000000	1.118722
2428.000000	1.118831
2426.000000	1.118957
2424.000000	1.119004
2422.000000	1.119018
2420.000000	1.119046
2418.000000	1.119086
2416.000000	1.119080
2414.000000	1.118993
2412.000000	1.118899
2410.000000	1.118848
2408.000000	1.118861
2406.000000	1.118837
2404.000000	1.118813
2402.000000	1.118779
2400.000000	1.118721
2398.000000	1.118722
2396.000000	1.118730
2394.000000	1.118671
2392.000000	1.118585
2390.000000	1.118528
2388.000000	1.118513
2386.000000	1.118471
2384.000000	1.118391
2382.000000	1.118262
2380.000000	1.118066
2378.000000	1.117752
2376.000000	1.117371
2374.000000	1.116923
2372.000000	1.116473
2370.000000	1.116100
2368.000000	1.115816
2366.000000	1.115566
2364.000000	1.115474
2362.000000	1.115574
2360.000000	1.115795
2358.000000	1.116144
2356.000000	1.116588
2354.000000	1.117175
2352.000000	1.117757
2350.000000	1.117856
2348.000000	1.117305
2346.000000	1.116637
2344.000000	1.116340
2342.000000	1.116207
2340.000000	1.116213
2338.000000	1.116287
2336.000000	1.116332
2334.000000	1.116391
2332.000000	1.116487
2330.000000	1.116614
2328.000000	1.116782
2326.000000	1.116899
2324.000000	1.117067
2322.000000	1.117247
2320.000000	1.117394
2318.000000	1.117516
2316.000000	1.117641
2314.000000	1.117759
2312.000000	1.117820
2310.000000	1.117897
2308.000000	1.118034
2306.000000	1.118112
2304.000000	1.118140
2302.000000	1.118171
2300.000000	1.118211
2298.000000	1.118224
2296.000000	1.118255
2294.000000	1.118277
2292.000000	1.118284
2290.000000	1.118305
2288.000000	1.118380
2286.000000	1.118456
2284.000000	1.118437
2282.000000	1.118312
2280.000000	1.118308
2278.000000	1.118405
2276.000000	1.118437
2274.000000	1.118384
2272.000000	1.118362
2270.000000	1.118394
2268.000000	1.118448
2266.000000	1.118431
2264.000000	1.118443
2262.000000	1.118516
2260.000000	1.118541
2258.000000	1.118461
2256.000000	1.118375
2254.000000	1.118311
2252.000000	1.118288
2250.000000	1.118401
2248.000000	1.118538
2246.000000	1.118549
2244.000000	1.118491
2242.000000	1.118382
2240.000000	1.118354
2238.000000	1.118399
2236.000000	1.118402
2234.000000	1.118366
2232.000000	1.118297
2230.000000	1.118226
2228.000000	1.118247
2226.000000	1.118318
2224.000000	1.118385
2222.000000	1.118333
2220.000000	1.118281
2218.000000	1.118270
2216.000000	1.118307
2214.000000	1.118283
2212.000000	1.118214
2210.000000	1.118127
2208.000000	1.118057
2206.000000	1.118042
2204.000000	1.118083
2202.000000	1.118077
2200.000000	1.118005
2198.000000	1.117956
2196.000000	1.118011
2194.000000	1.117959
2192.000000	1.117895
2190.000000	1.117975
2188.000000	1.118108
2186.000000	1.118050
2184.000000	1.117942
2182.000000	1.117918
2180.000000	1.117966
2178.000000	1.117899
2176.000000	1.117726
2174.000000	1.117591
2172.000000	1.117576
2170.000000	1.117649
2168.000000	1.117770
2166.000000	1.117780
2164.000000	1.117710
2162.000000	1.117559
2160.000000	1.117496
2158.000000	1.117440
2156.000000	1.117376
2154.000000	1.117339
2152.000000	1.117341
2150.000000	1.117268
2148.000000	1.117154
2146.000000	1.117119
2144.000000	1.117181
2142.000000	1.117143
2140.000000	1.117038
2138.000000	1.116984
2136.000000	1.117008
2134.000000	1.117014
2132.000000	1.116970
2130.000000	1.116926
2128.000000	1.116932
2126.000000	1.116884
2124.000000	1.116786
2122.000000	1.116646
2120.000000	1.116613
2118.000000	1.116585
2116.000000	1.116551
2114.000000	1.116501
2112.000000	1.116391
2110.000000	1.116331
2108.000000	1.116405
2106.000000	1.116423
2104.000000	1.116378
2102.000000	1.116372
2100.000000	1.116382
2098.000000	1.116335
2096.000000	1.116286
2094.000000	1.116154
2092.000000	1.116051
2090.000000	1.116065
2088.000000	1.116080
2086.000000	1.115973
2084.000000	1.115867
2082.000000	1.115826
2080.000000	1.115800
2078.000000	1.115811
2076.000000	1.115875
2074.000000	1.115827
2072.000000	1.115673
2070.000000	1.115566
2068.000000	1.115593
2066.000000	1.115551
2064.000000	1.115600
2062.000000	1.115535
2060.000000	1.115333
2058.000000	1.115374
2056.000000	1.115508
2054.000000	1.115397
2052.000000	1.115369
2050.000000	1.115394
2048.000000	1.115242
2046.000000	1.115041
2044.000000	1.114985
2042.000000	1.115030
2040.000000	1.115052
2038.000000	1.115019
2036.000000	1.115016
2034.000000	1.115018
2032.000000	1.115013
2030.000000	1.114913
2028.000000	1.114899
2026.000000	1.114789
2024.000000	1.114664
2022.000000	1.114711
2020.000000	1.114707
2018.000000	1.114614
2016.000000	1.114647
2014.000000	1.114563
2012.000000	1.114442
2010.000000	1.114456
2008.000000	1.114461
2006.000000	1.114390
2004.000000	1.114452
2002.000000	1.114473
2000.000000	1.114522
1998.000000	1.114576
1996.000000	1.114519
1994.000000	1.114289
1992.000000	1.114212
1990.000000	1.114355
1988.000000	1.114382
1986.000000	1.114372
1984.000000	1.114441
1982.000000	1.114462
1980.000000	1.114310
1978.000000	1.114197
1976.000000	1.114250
1974.000000	1.114220
1972.000000	1.114101
1970.000000	1.113940
1968.000000	1.113812
1966.000000	1.114056
1964.000000	1.114289
1962.000000	1.114188
1960.000000	1.114086
1958.000000	1.114309
1956.000000	1.114385
1954.000000	1.114220
1952.000000	1.114173
1950.000000	1.114242
1948.000000	1.114253
1946.000000	1.114014
1944.000000	1.113619
1942.000000	1.113745
1940.000000	1.114158
1938.000000	1.114174
1936.000000	1.114181
1934.000000	1.114187
1932.000000	1.114250
1930.000000	1.114265
1928.000000	1.114279
1926.000000	1.114149
1924.000000	1.113932
1922.000000	1.113911
1920.000000	1.113492
1918.000000	1.113432
1916.000000	1.114257
1914.000000	1.114345
1912.000000	1.114223
1910.000000	1.114114
1908.000000	1.114247
1906.000000	1.114366
1904.000000	1.114485
1902.000000	1.114492
1900.000000	1.114512
1898.000000	1.114416
1896.000000	1.114307
1894.000000	1.114285
1892.000000	1.114035
1890.000000	1.113827
1888.000000	1.114355
1886.000000	1.114537
1884.000000	1.114564
1882.000000	1.114500
1880.000000	1.114523
1878.000000	1.114531
1876.000000	1.114510
1874.000000	1.114427
1872.000000	1.113805
1870.000000	1.112844
1868.000000	1.113409
1866.000000	1.114273
1864.000000	1.114462
1862.000000	1.114347
1860.000000	1.114381
1858.000000	1.114376
1856.000000	1.114406
1854.000000	1.114374
1852.000000	1.114432
1850.000000	1.114202
1848.000000	1.113641
1846.000000	1.112027
1844.000000	1.112088
1842.000000	1.114061
1840.000000	1.114486
1838.000000	1.114327
1836.000000	1.114373
1834.000000	1.114183
1832.000000	1.113178
1830.000000	1.112849
1828.000000	1.113589
1826.000000	1.113394
1824.000000	1.114026
1822.000000	1.114597
1820.000000	1.114543
1818.000000	1.114409
1816.000000	1.114517
1814.000000	1.114420
1812.000000	1.114154
1810.000000	1.114249
1808.000000	1.114549
1806.000000	1.114465
1804.000000	1.114011
1802.000000	1.113438
1800.000000	1.113725
1798.000000	1.114107
1796.000000	1.113575
1794.000000	1.111767
1792.000000	1.112095
1790.000000	1.114048
1788.000000	1.114253
1786.000000	1.113576
1784.000000	1.113840
1782.000000	1.113909
1780.000000	1.114039
1778.000000	1.114230
1776.000000	1.113109
1774.000000	1.110533
1772.000000	1.110957
1770.000000	1.112967
1768.000000	1.113559
1766.000000	1.114518
1764.000000	1.113534
1762.000000	1.112979
1760.000000	1.114020
1758.000000	1.113765
1756.000000	1.114055
1754.000000	1.113478
1752.000000	1.111499
1750.000000	1.112321
1748.000000	1.113638
1746.000000	1.114059
1744.000000	1.113927
1742.000000	1.113236
1740.000000	1.113022
1738.000000	1.113446
1736.000000	1.109510
1734.000000	1.108654
1732.000000	1.113555
1730.000000	1.115104
1728.000000	1.115489
1726.000000	1.115493
1724.000000	1.115345
1722.000000	1.114778
1720.000000	1.111367
1718.000000	1.108686
1716.000000	1.111918
1714.000000	1.114655
1712.000000	1.115624
1710.000000	1.115246
1708.000000	1.114369
1706.000000	1.113524
1704.000000	1.113172
1702.000000	1.108497
1700.000000	1.108211
1698.000000	1.109986
1696.000000	1.109889
1694.000000	1.114949
1692.000000	1.116224
1690.000000	1.115416
1688.000000	1.113518
1686.000000	1.108237
1684.000000	1.109530
1682.000000	1.115112
1680.000000	1.116007
1678.000000	1.114775
1676.000000	1.112919
1674.000000	1.114475
1672.000000	1.114217
1670.000000	1.113238
1668.000000	1.115415
1666.000000	1.116273
1664.000000	1.114791
1662.000000	1.115444
1660.000000	1.116766
1658.000000	1.116149
1656.000000	1.110638
1654.000000	1.103721
1652.000000	1.109753
1650.000000	1.115372
1648.000000	1.112458
1646.000000	1.113187
1644.000000	1.116767
1642.000000	1.117385
1640.000000	1.116419
1638.000000	1.113273
1636.000000	1.111496
1634.000000	1.115655
1632.000000	1.117760
1630.000000	1.116884
1628.000000	1.116419
1626.000000	1.115894
1624.000000	1.115025
1622.000000	1.116296
1620.000000	1.115786
1618.000000	1.112263
1616.000000	1.113831
1614.000000	1.117383
1612.000000	1.117366
1610.000000	1.117369
1608.000000	1.117897
1606.000000	1.118559
1604.000000	1.118723
1602.000000	1.118893
1600.000000	1.118956
1598.000000	1.118965
1596.000000	1.118770
1594.000000	1.118777
1592.000000	1.118785
1590.000000	1.118772
1588.000000	1.118754
1586.000000	1.118767
1584.000000	1.118768
1582.000000	1.118798
1580.000000	1.117920
1578.000000	1.114092
1576.000000	1.113736
1574.000000	1.117995
1572.000000	1.117206
1570.000000	1.115936
1568.000000	1.117575
1566.000000	1.118134
1564.000000	1.117173
1562.000000	1.112141
1560.000000	1.106086
1558.000000	1.110528
1556.000000	1.115565
1554.000000	1.116943
1552.000000	1.118156
1550.000000	1.118225
1548.000000	1.118027
1546.000000	1.116304
1544.000000	1.113889
1542.000000	1.110072
1540.000000	1.109512
1538.000000	1.115708
1536.000000	1.117719
1534.000000	1.116221
1532.000000	1.117727
1530.000000	1.118098
1528.000000	1.116760
1526.000000	1.115844
1524.000000	1.114168
1522.000000	1.111979
1520.000000	1.114403
1518.000000	1.115773
1516.000000	1.116499
1514.000000	1.117374
1512.000000	1.117042
1510.000000	1.114738
1508.000000	1.109620
1506.000000	1.110844
1504.000000	1.116527
1502.000000	1.116684
1500.000000	1.113762
1498.000000	1.111313
1496.000000	1.113526
1494.000000	1.118453
1492.000000	1.119337
1490.000000	1.119012
1488.000000	1.119647
1486.000000	1.120080
1484.000000	1.120092
1482.000000	1.119527
1480.000000	1.119170
1478.000000	1.117949
1476.000000	1.116210
1474.000000	1.114250
1472.000000	1.115638
1470.000000	1.118442
1468.000000	1.118153
1466.000000	1.116575
1464.000000	1.117279
1462.000000	1.117909
1460.000000	1.114563
1458.000000	1.110165
1456.000000	1.112821
1454.000000	1.117150
1452.000000	1.118119
1450.000000	1.118884
1448.000000	1.119281
1446.000000	1.119707
1444.000000	1.119344
1442.000000	1.118950
1440.000000	1.117733
1438.000000	1.115204
1436.000000	1.116094
1434.000000	1.118409
1432.000000	1.117975
1430.000000	1.117853
1428.000000	1.118322
1426.000000	1.118183
1424.000000	1.117789
1422.000000	1.116631
1420.000000	1.114528
1418.000000	1.116321
1416.000000	1.118224
1414.000000	1.118500
1412.000000	1.118243
1410.000000	1.118043
1408.000000	1.117622
1406.000000	1.117408
1404.000000	1.118033
1402.000000	1.118503
1400.000000	1.117904
1398.000000	1.118017
1396.000000	1.117508
1394.000000	1.117839
1392.000000	1.118695
1390.000000	1.117851
1388.000000	1.116683
1386.000000	1.117502
1384.000000	1.118530
1382.000000	1.118725
1380.000000	1.118448
1378.000000	1.118140
1376.000000	1.117580
1374.000000	1.117548
1372.000000	1.118072
1370.000000	1.118122
1368.000000	1.118071
1366.000000	1.117779
1364.000000	1.116941
1362.000000	1.117028
1360.000000	1.117606
1358.000000	1.117717
1356.000000	1.117621
1354.000000	1.117687
1352.000000	1.117683
1350.000000	1.117603
1348.000000	1.117545
1346.000000	1.117477
1344.000000	1.117388
1342.000000	1.117084
1340.000000	1.116787
1338.000000	1.117166
1336.000000	1.117488
1334.000000	1.117480
1332.000000	1.117311
1330.000000	1.117211
1328.000000	1.117112
1326.000000	1.117098
1324.000000	1.117028
1322.000000	1.116793
1320.000000	1.116425
1318.000000	1.116331
1316.000000	1.116400
1314.000000	1.116392
1312.000000	1.116327
1310.000000	1.116378
1308.000000	1.116408
1306.000000	1.116436
1304.000000	1.116353
1302.000000	1.116207
1300.000000	1.115986
1298.000000	1.115921
1296.000000	1.115880
1294.000000	1.115835
1292.000000	1.115769
1290.000000	1.115708
1288.000000	1.115577
1286.000000	1.115566
1284.000000	1.115550
1282.000000	1.115579
1280.000000	1.115671
1278.000000	1.115712
1276.000000	1.115607
1274.000000	1.115502
1272.000000	1.115534
1270.000000	1.115728
1268.000000	1.116267
1266.000000	1.117452
1264.000000	1.119277
1262.000000	1.121593
1260.000000	1.123488
1258.000000	1.124143
1256.000000	1.123063
1254.000000	1.121280
1252.000000	1.119817
1250.000000	1.119043
1248.000000	1.118706
1246.000000	1.118593
1244.000000	1.118580
1242.000000	1.118784
1240.000000	1.118987
1238.000000	1.119310
1236.000000	1.119636
1234.000000	1.119851
1232.000000	1.119992
1230.000000	1.120259
1228.000000	1.120561
1226.000000	1.120944
1224.000000	1.121232
1222.000000	1.121437
1220.000000	1.121593
1218.000000	1.121815
1216.000000	1.122173
1214.000000	1.122524
1212.000000	1.122886
1210.000000	1.123239
1208.000000	1.123536
1206.000000	1.123843
1204.000000	1.124125
1202.000000	1.124291
1200.000000	1.124419
1198.000000	1.124875
1196.000000	1.125217
1194.000000	1.125415
1192.000000	1.125670
1190.000000	1.126119
1188.000000	1.126635
1186.000000	1.126910
1184.000000	1.126885
1182.000000	1.127179
1180.000000	1.128174
1178.000000	1.129064
1176.000000	1.129163
1174.000000	1.129336
1172.000000	1.129643
1170.000000	1.130050
1168.000000	1.130478
1166.000000	1.130765
1164.000000	1.131029
1162.000000	1.131577
1160.000000	1.132036
1158.000000	1.132495
1156.000000	1.132830
1154.000000	1.133241
1152.000000	1.133646
1150.000000	1.133898
1148.000000	1.133979
1146.000000	1.134212
1144.000000	1.134451
1142.000000	1.134875
1140.000000	1.135455
1138.000000	1.135657
1136.000000	1.135746
1134.000000	1.136082
1132.000000	1.136133
1130.000000	1.136305
1128.000000	1.136685
1126.000000	1.137016
1124.000000	1.137392
1122.000000	1.137495
1120.000000	1.137575
1118.000000	1.138115
1116.000000	1.138427
1114.000000	1.138670
1112.000000	1.139004
1110.000000	1.139403
1108.000000	1.140029
1106.000000	1.140717
1104.000000	1.140954
1102.000000	1.141439
1100.000000	1.142188
1098.000000	1.142612
1096.000000	1.142704
1094.000000	1.142907
1092.000000	1.142947
1090.000000	1.142970
1088.000000	1.143134
1086.000000	1.143291
1084.000000	1.143265
1082.000000	1.143072
1080.000000	1.142394
1078.000000	1.141965
1076.000000	1.142156
1074.000000	1.142336
1072.000000	1.141942
1070.000000	1.141383
1068.000000	1.140731
1066.000000	1.140498
1064.000000	1.140060
1062.000000	1.139194
1060.000000	1.138527
1058.000000	1.137931
1056.000000	1.136701
1054.000000	1.135778
1052.000000	1.136168
1050.000000	1.137415
1048.000000	1.137749
1046.000000	1.137390
1044.000000	1.136556
1042.000000	1.135809
1040.000000	1.135199
1038.000000	1.134615
1036.000000	1.133858
1034.000000	1.133315
1032.000000	1.132887
1030.000000	1.132353
1028.000000	1.131840
1026.000000	1.131516
1024.000000	1.131209
1022.000000	1.130763
1020.000000	1.130163
1018.000000	1.129976
1016.000000	1.129639
1014.000000	1.128610
1012.000000	1.127007
1010.000000	1.125466
1008.000000	1.123559
1006.000000	1.121745
1004.000000	1.120253
1002.000000	1.118976
1000.000000	1.117314
