PE IR       SUBTECH     SPECTRUM    ASCII       PEDS        4.00        
   -1
TE110A_054_120K_SB.ASC
20/05/14
14:09:33.00
20/05/14
14:09:33.00
Administrator
TE110A.Thursday, May 14 2020, 002.
1000.000000
#HDR
-1
-1
#GR
cm-1
EGY
1.0
0.0
6000.000000
-2.000000
2501
8
6.064584
0.618380
#DATA
6000.000000	0.940276
5998.000000	0.942563
5996.000000	0.944142
5994.000000	0.945422
5992.000000	0.948652
5990.000000	0.951242
5988.000000	0.952565
5986.000000	0.953276
5984.000000	0.955256
5982.000000	0.957948
5980.000000	0.959621
5978.000000	0.960633
5976.000000	0.962058
5974.000000	0.964830
5972.000000	0.968212
5970.000000	0.971010
5968.000000	0.972729
5966.000000	0.973758
5964.000000	0.974994
5962.000000	0.977684
5960.000000	0.980091
5958.000000	0.982364
5956.000000	0.984218
5954.000000	0.985749
5952.000000	0.987537
5950.000000	0.989557
5948.000000	0.992603
5946.000000	0.994962
5944.000000	0.997170
5942.000000	0.998542
5940.000000	0.999211
5938.000000	1.000682
5936.000000	1.002581
5934.000000	1.005726
5932.000000	1.008982
5930.000000	1.011824
5928.000000	1.014100
5926.000000	1.015690
5924.000000	1.017465
5922.000000	1.019188
5920.000000	1.020254
5918.000000	1.021280
5916.000000	1.022948
5914.000000	1.026218
5912.000000	1.030017
5910.000000	1.033015
5908.000000	1.034491
5906.000000	1.034819
5904.000000	1.035206
5902.000000	1.037667
5900.000000	1.041028
5898.000000	1.043651
5896.000000	1.045358
5894.000000	1.047583
5892.000000	1.050856
5890.000000	1.053980
5888.000000	1.055766
5886.000000	1.057211
5884.000000	1.058663
5882.000000	1.061107
5880.000000	1.063568
5878.000000	1.065659
5876.000000	1.068091
5874.000000	1.069115
5872.000000	1.070437
5870.000000	1.072684
5868.000000	1.075718
5866.000000	1.078655
5864.000000	1.080787
5862.000000	1.082295
5860.000000	1.084712
5858.000000	1.086337
5856.000000	1.088616
5854.000000	1.091295
5852.000000	1.093903
5850.000000	1.096270
5848.000000	1.098587
5846.000000	1.101734
5844.000000	1.104327
5842.000000	1.106789
5840.000000	1.108969
5838.000000	1.110796
5836.000000	1.112160
5834.000000	1.113982
5832.000000	1.115854
5830.000000	1.117807
5828.000000	1.120065
5826.000000	1.123071
5824.000000	1.127135
5822.000000	1.130082
5820.000000	1.131651
5818.000000	1.133108
5816.000000	1.135235
5814.000000	1.137268
5812.000000	1.139293
5810.000000	1.141441
5808.000000	1.144868
5806.000000	1.148920
5804.000000	1.151135
5802.000000	1.152230
5800.000000	1.153314
5798.000000	1.155322
5796.000000	1.158029
5794.000000	1.161321
5792.000000	1.163966
5790.000000	1.166162
5788.000000	1.168285
5786.000000	1.170399
5784.000000	1.173663
5782.000000	1.176654
5780.000000	1.179518
5778.000000	1.182490
5776.000000	1.184276
5774.000000	1.185814
5772.000000	1.187515
5770.000000	1.190013
5768.000000	1.192860
5766.000000	1.195167
5764.000000	1.197657
5762.000000	1.200761
5760.000000	1.203608
5758.000000	1.205126
5756.000000	1.207612
5754.000000	1.211139
5752.000000	1.213657
5750.000000	1.214949
5748.000000	1.216101
5746.000000	1.219481
5744.000000	1.223532
5742.000000	1.226564
5740.000000	1.228508
5738.000000	1.229828
5736.000000	1.231996
5734.000000	1.235521
5732.000000	1.238532
5730.000000	1.241052
5728.000000	1.242330
5726.000000	1.244271
5724.000000	1.247182
5722.000000	1.249799
5720.000000	1.252398
5718.000000	1.254796
5716.000000	1.257684
5714.000000	1.260766
5712.000000	1.262971
5710.000000	1.264998
5708.000000	1.267152
5706.000000	1.268823
5704.000000	1.271266
5702.000000	1.274505
5700.000000	1.277615
5698.000000	1.280617
5696.000000	1.282639
5694.000000	1.285021
5692.000000	1.287600
5690.000000	1.290505
5688.000000	1.294008
5686.000000	1.297434
5684.000000	1.300468
5682.000000	1.303385
5680.000000	1.305487
5678.000000	1.307535
5676.000000	1.309861
5674.000000	1.311984
5672.000000	1.313664
5670.000000	1.315865
5668.000000	1.319363
5666.000000	1.322986
5664.000000	1.326103
5662.000000	1.329212
5660.000000	1.331966
5658.000000	1.333834
5656.000000	1.335722
5654.000000	1.338620
5652.000000	1.341514
5650.000000	1.343785
5648.000000	1.346286
5646.000000	1.349678
5644.000000	1.352198
5642.000000	1.354407
5640.000000	1.357105
5638.000000	1.360741
5636.000000	1.364360
5634.000000	1.367221
5632.000000	1.370111
5630.000000	1.372107
5628.000000	1.373717
5626.000000	1.375368
5624.000000	1.377364
5622.000000	1.380103
5620.000000	1.383069
5618.000000	1.386286
5616.000000	1.389447
5614.000000	1.392246
5612.000000	1.395419
5610.000000	1.398411
5608.000000	1.400673
5606.000000	1.402305
5604.000000	1.404065
5602.000000	1.406770
5600.000000	1.409291
5598.000000	1.412035
5596.000000	1.414889
5594.000000	1.417726
5592.000000	1.420425
5590.000000	1.423117
5588.000000	1.426529
5586.000000	1.430138
5584.000000	1.433512
5582.000000	1.436409
5580.000000	1.439198
5578.000000	1.442634
5576.000000	1.445986
5574.000000	1.448555
5572.000000	1.449986
5570.000000	1.452343
5568.000000	1.454954
5566.000000	1.457108
5564.000000	1.459102
5562.000000	1.462804
5560.000000	1.466816
5558.000000	1.469750
5556.000000	1.472466
5554.000000	1.475066
5552.000000	1.477831
5550.000000	1.480003
5548.000000	1.482971
5546.000000	1.486470
5544.000000	1.489421
5542.000000	1.491153
5540.000000	1.494062
5538.000000	1.496798
5536.000000	1.499554
5534.000000	1.501543
5532.000000	1.504804
5530.000000	1.508724
5528.000000	1.511735
5526.000000	1.514128
5524.000000	1.516639
5522.000000	1.519508
5520.000000	1.522185
5518.000000	1.524801
5516.000000	1.527864
5514.000000	1.530837
5512.000000	1.533586
5510.000000	1.535791
5508.000000	1.538486
5506.000000	1.541888
5504.000000	1.545607
5502.000000	1.548201
5500.000000	1.549772
5498.000000	1.551955
5496.000000	1.554704
5494.000000	1.557772
5492.000000	1.560304
5490.000000	1.563133
5488.000000	1.566594
5486.000000	1.570404
5484.000000	1.574365
5482.000000	1.577077
5480.000000	1.578550
5478.000000	1.580750
5476.000000	1.583940
5474.000000	1.587911
5472.000000	1.591542
5470.000000	1.594637
5468.000000	1.597500
5466.000000	1.599986
5464.000000	1.602743
5462.000000	1.605623
5460.000000	1.607915
5458.000000	1.610568
5456.000000	1.613347
5454.000000	1.617458
5452.000000	1.621169
5450.000000	1.623298
5448.000000	1.624834
5446.000000	1.627146
5444.000000	1.630118
5442.000000	1.631951
5440.000000	1.634528
5438.000000	1.638517
5436.000000	1.642025
5434.000000	1.644108
5432.000000	1.645926
5430.000000	1.648840
5428.000000	1.651719
5426.000000	1.654761
5424.000000	1.658697
5422.000000	1.663063
5420.000000	1.667592
5418.000000	1.671265
5416.000000	1.672872
5414.000000	1.673008
5412.000000	1.674010
5410.000000	1.677176
5408.000000	1.681706
5406.000000	1.685608
5404.000000	1.689449
5402.000000	1.692852
5400.000000	1.695991
5398.000000	1.698383
5396.000000	1.700765
5394.000000	1.703472
5392.000000	1.706551
5390.000000	1.710222
5388.000000	1.714051
5386.000000	1.717196
5384.000000	1.719770
5382.000000	1.722598
5380.000000	1.725451
5378.000000	1.727861
5376.000000	1.730147
5374.000000	1.733104
5372.000000	1.737211
5370.000000	1.741548
5368.000000	1.745433
5366.000000	1.747532
5364.000000	1.749019
5362.000000	1.751100
5360.000000	1.754366
5358.000000	1.758557
5356.000000	1.761744
5354.000000	1.763420
5352.000000	1.764672
5350.000000	1.766779
5348.000000	1.770079
5346.000000	1.772899
5344.000000	1.775460
5342.000000	1.778121
5340.000000	1.781064
5338.000000	1.784399
5336.000000	1.788224
5334.000000	1.792382
5332.000000	1.795701
5330.000000	1.797868
5328.000000	1.800426
5326.000000	1.803886
5324.000000	1.807072
5322.000000	1.810294
5320.000000	1.814491
5318.000000	1.819342
5316.000000	1.822931
5314.000000	1.825970
5312.000000	1.828855
5310.000000	1.830616
5308.000000	1.831956
5306.000000	1.835070
5304.000000	1.839426
5302.000000	1.842743
5300.000000	1.845037
5298.000000	1.847971
5296.000000	1.851142
5294.000000	1.854104
5292.000000	1.856803
5290.000000	1.859699
5288.000000	1.863867
5286.000000	1.868497
5284.000000	1.871770
5282.000000	1.873346
5280.000000	1.875715
5278.000000	1.879088
5276.000000	1.882497
5274.000000	1.886196
5272.000000	1.890718
5270.000000	1.893662
5268.000000	1.894822
5266.000000	1.896114
5264.000000	1.898052
5262.000000	1.900649
5260.000000	1.904076
5258.000000	1.907929
5256.000000	1.911082
5254.000000	1.914341
5252.000000	1.917772
5250.000000	1.919834
5248.000000	1.921117
5246.000000	1.923086
5244.000000	1.926018
5242.000000	1.929514
5240.000000	1.933451
5238.000000	1.938213
5236.000000	1.942813
5234.000000	1.945779
5232.000000	1.947658
5230.000000	1.950242
5228.000000	1.953638
5226.000000	1.956426
5224.000000	1.959347
5222.000000	1.963767
5220.000000	1.967248
5218.000000	1.969042
5216.000000	1.971753
5214.000000	1.976215
5212.000000	1.980262
5210.000000	1.982649
5208.000000	1.984553
5206.000000	1.986709
5204.000000	1.989685
5202.000000	1.994378
5200.000000	1.999342
5198.000000	2.002296
5196.000000	2.003894
5194.000000	2.005998
5192.000000	2.009164
5190.000000	2.012961
5188.000000	2.016869
5186.000000	2.020749
5184.000000	2.024045
5182.000000	2.027243
5180.000000	2.030572
5178.000000	2.034037
5176.000000	2.038198
5174.000000	2.041964
5172.000000	2.044931
5170.000000	2.047387
5168.000000	2.050296
5166.000000	2.054015
5164.000000	2.057238
5162.000000	2.059808
5160.000000	2.062715
5158.000000	2.066704
5156.000000	2.070080
5154.000000	2.072112
5152.000000	2.074546
5150.000000	2.078102
5148.000000	2.081854
5146.000000	2.084968
5144.000000	2.088008
5142.000000	2.091491
5140.000000	2.094928
5138.000000	2.098196
5136.000000	2.100737
5134.000000	2.103572
5132.000000	2.105777
5130.000000	2.108142
5128.000000	2.111431
5126.000000	2.115353
5124.000000	2.118979
5122.000000	2.121351
5120.000000	2.123786
5118.000000	2.127296
5116.000000	2.131425
5114.000000	2.134593
5112.000000	2.137485
5110.000000	2.141036
5108.000000	2.144523
5106.000000	2.147628
5104.000000	2.151392
5102.000000	2.155364
5100.000000	2.158212
5098.000000	2.160723
5096.000000	2.164314
5094.000000	2.168549
5092.000000	2.171866
5090.000000	2.174123
5088.000000	2.176117
5086.000000	2.178834
5084.000000	2.182167
5082.000000	2.186301
5080.000000	2.190575
5078.000000	2.194089
5076.000000	2.197019
5074.000000	2.201349
5072.000000	2.206374
5070.000000	2.209411
5068.000000	2.210561
5066.000000	2.212358
5064.000000	2.215038
5062.000000	2.217684
5060.000000	2.221244
5058.000000	2.225415
5056.000000	2.229243
5054.000000	2.232540
5052.000000	2.236080
5050.000000	2.239346
5048.000000	2.242420
5046.000000	2.244856
5044.000000	2.247206
5042.000000	2.250433
5040.000000	2.255045
5038.000000	2.259970
5036.000000	2.264248
5034.000000	2.267320
5032.000000	2.269165
5030.000000	2.271542
5028.000000	2.274974
5026.000000	2.278649
5024.000000	2.281855
5022.000000	2.284624
5020.000000	2.287396
5018.000000	2.290134
5016.000000	2.293394
5014.000000	2.297441
5012.000000	2.301733
5010.000000	2.305288
5008.000000	2.307486
5006.000000	2.309955
5004.000000	2.313177
5002.000000	2.317643
5000.000000	2.322279
4998.000000	2.325972
4996.000000	2.328226
4994.000000	2.330672
4992.000000	2.334451
4990.000000	2.338524
4988.000000	2.342072
4986.000000	2.345736
4984.000000	2.348766
4982.000000	2.350938
4980.000000	2.353699
4978.000000	2.358187
4976.000000	2.362572
4974.000000	2.365962
4972.000000	2.369406
4970.000000	2.372863
4968.000000	2.376024
4966.000000	2.379171
4964.000000	2.382776
4962.000000	2.385588
4960.000000	2.387739
4958.000000	2.391028
4956.000000	2.394752
4954.000000	2.397918
4952.000000	2.401514
4950.000000	2.405619
4948.000000	2.408743
4946.000000	2.410984
4944.000000	2.413765
4942.000000	2.417498
4940.000000	2.422271
4938.000000	2.426457
4936.000000	2.428584
4934.000000	2.430336
4932.000000	2.433511
4930.000000	2.436979
4928.000000	2.439351
4926.000000	2.442934
4924.000000	2.448316
4922.000000	2.452825
4920.000000	2.455031
4918.000000	2.456199
4916.000000	2.458203
4914.000000	2.462340
4912.000000	2.468459
4910.000000	2.472534
4908.000000	2.474475
4906.000000	2.477474
4904.000000	2.481876
4902.000000	2.485541
4900.000000	2.489118
4898.000000	2.492434
4896.000000	2.494294
4894.000000	2.496458
4892.000000	2.500840
4890.000000	2.505643
4888.000000	2.508927
4886.000000	2.511898
4884.000000	2.515508
4882.000000	2.518968
4880.000000	2.522312
4878.000000	2.525796
4876.000000	2.528407
4874.000000	2.530947
4872.000000	2.535114
4870.000000	2.539555
4868.000000	2.542889
4866.000000	2.546456
4864.000000	2.551126
4862.000000	2.554401
4860.000000	2.555810
4858.000000	2.558001
4856.000000	2.562075
4854.000000	2.565844
4852.000000	2.568707
4850.000000	2.571939
4848.000000	2.575157
4846.000000	2.577632
4844.000000	2.580343
4842.000000	2.583847
4840.000000	2.587879
4838.000000	2.592473
4836.000000	2.597336
4834.000000	2.601257
4832.000000	2.604078
4830.000000	2.607049
4828.000000	2.610286
4826.000000	2.613111
4824.000000	2.615306
4822.000000	2.618487
4820.000000	2.622796
4818.000000	2.626449
4816.000000	2.628893
4814.000000	2.632002
4812.000000	2.636481
4810.000000	2.640660
4808.000000	2.644454
4806.000000	2.648358
4804.000000	2.651957
4802.000000	2.655303
4800.000000	2.658839
4798.000000	2.662615
4796.000000	2.666302
4794.000000	2.669558
4792.000000	2.672679
4790.000000	2.676793
4788.000000	2.681392
4786.000000	2.685168
4784.000000	2.687161
4782.000000	2.688980
4780.000000	2.691977
4778.000000	2.696544
4776.000000	2.700739
4774.000000	2.704200
4772.000000	2.707501
4770.000000	2.710403
4768.000000	2.712935
4766.000000	2.715174
4764.000000	2.718426
4762.000000	2.722518
4760.000000	2.726813
4758.000000	2.729957
4756.000000	2.732917
4754.000000	2.736620
4752.000000	2.740970
4750.000000	2.744883
4748.000000	2.747583
4746.000000	2.749783
4744.000000	2.752872
4742.000000	2.757272
4740.000000	2.761105
4738.000000	2.763795
4736.000000	2.766822
4734.000000	2.770559
4732.000000	2.773734
4730.000000	2.776305
4728.000000	2.779227
4726.000000	2.783284
4724.000000	2.788151
4722.000000	2.791834
4720.000000	2.794285
4718.000000	2.798070
4716.000000	2.802978
4714.000000	2.806936
4712.000000	2.810688
4710.000000	2.815101
4708.000000	2.819054
4706.000000	2.822441
4704.000000	2.825432
4702.000000	2.827679
4700.000000	2.830615
4698.000000	2.835099
4696.000000	2.839161
4694.000000	2.842173
4692.000000	2.845502
4690.000000	2.849117
4688.000000	2.852604
4686.000000	2.856560
4684.000000	2.861048
4682.000000	2.864975
4680.000000	2.868550
4678.000000	2.872300
4676.000000	2.875503
4674.000000	2.878144
4672.000000	2.881649
4670.000000	2.885387
4668.000000	2.888169
4666.000000	2.890843
4664.000000	2.894895
4662.000000	2.899431
4660.000000	2.903475
4658.000000	2.906736
4656.000000	2.910069
4654.000000	2.913622
4652.000000	2.917251
4650.000000	2.920528
4648.000000	2.923640
4646.000000	2.926526
4644.000000	2.929253
4642.000000	2.932884
4640.000000	2.937831
4638.000000	2.942523
4636.000000	2.945960
4634.000000	2.948810
4632.000000	2.951334
4630.000000	2.954607
4628.000000	2.958876
4626.000000	2.962899
4624.000000	2.966480
4622.000000	2.970685
4620.000000	2.974500
4618.000000	2.977243
4616.000000	2.980841
4614.000000	2.985653
4612.000000	2.990348
4610.000000	2.993733
4608.000000	2.995736
4606.000000	2.998087
4604.000000	3.002700
4602.000000	3.007778
4600.000000	3.011431
4598.000000	3.015064
4596.000000	3.019205
4594.000000	3.022412
4592.000000	3.025119
4590.000000	3.029339
4588.000000	3.034245
4586.000000	3.037880
4584.000000	3.040938
4582.000000	3.044999
4580.000000	3.048996
4578.000000	3.052287
4576.000000	3.055902
4574.000000	3.060113
4572.000000	3.063524
4570.000000	3.065912
4568.000000	3.068901
4566.000000	3.072886
4564.000000	3.076532
4562.000000	3.079427
4560.000000	3.082929
4558.000000	3.086809
4556.000000	3.090890
4554.000000	3.095479
4552.000000	3.100637
4550.000000	3.104805
4548.000000	3.108618
4546.000000	3.112228
4544.000000	3.115799
4542.000000	3.119195
4540.000000	3.122699
4538.000000	3.125488
4536.000000	3.127487
4534.000000	3.129934
4532.000000	3.134288
4530.000000	3.139581
4528.000000	3.143868
4526.000000	3.147085
4524.000000	3.150790
4522.000000	3.155257
4520.000000	3.159047
4518.000000	3.161999
4516.000000	3.165482
4514.000000	3.169833
4512.000000	3.174141
4510.000000	3.177447
4508.000000	3.180462
4506.000000	3.184055
4504.000000	3.187842
4502.000000	3.191878
4500.000000	3.196532
4498.000000	3.200964
4496.000000	3.205246
4494.000000	3.209536
4492.000000	3.212629
4490.000000	3.214704
4488.000000	3.217787
4486.000000	3.221535
4484.000000	3.224688
4482.000000	3.228365
4480.000000	3.233257
4478.000000	3.238231
4476.000000	3.242427
4474.000000	3.246093
4472.000000	3.248927
4470.000000	3.252066
4468.000000	3.255900
4466.000000	3.259517
4464.000000	3.262733
4462.000000	3.266443
4460.000000	3.270427
4458.000000	3.274275
4456.000000	3.277453
4454.000000	3.280388
4452.000000	3.283706
4450.000000	3.287139
4448.000000	3.290410
4446.000000	3.293988
4444.000000	3.297471
4442.000000	3.301388
4440.000000	3.305767
4438.000000	3.309547
4436.000000	3.312669
4434.000000	3.315988
4432.000000	3.319916
4430.000000	3.324540
4428.000000	3.329480
4426.000000	3.334154
4424.000000	3.338043
4422.000000	3.341018
4420.000000	3.343879
4418.000000	3.346933
4416.000000	3.350601
4414.000000	3.355117
4412.000000	3.358877
4410.000000	3.361797
4408.000000	3.364818
4406.000000	3.368441
4404.000000	3.373706
4402.000000	3.379744
4400.000000	3.383799
4398.000000	3.386679
4396.000000	3.390264
4394.000000	3.393350
4392.000000	3.396136
4390.000000	3.399772
4388.000000	3.403683
4386.000000	3.407901
4384.000000	3.411970
4382.000000	3.414616
4380.000000	3.416969
4378.000000	3.420298
4376.000000	3.424136
4374.000000	3.427911
4372.000000	3.431300
4370.000000	3.434549
4368.000000	3.437221
4366.000000	3.440458
4364.000000	3.445830
4362.000000	3.450920
4360.000000	3.453524
4358.000000	3.456368
4356.000000	3.460601
4354.000000	3.464855
4352.000000	3.468932
4350.000000	3.472674
4348.000000	3.475631
4346.000000	3.478614
4344.000000	3.481947
4342.000000	3.485947
4340.000000	3.490608
4338.000000	3.494956
4336.000000	3.498373
4334.000000	3.501787
4332.000000	3.505472
4330.000000	3.508953
4328.000000	3.512526
4326.000000	3.517325
4324.000000	3.522304
4322.000000	3.526362
4320.000000	3.530296
4318.000000	3.534391
4316.000000	3.538098
4314.000000	3.541754
4312.000000	3.545358
4310.000000	3.548487
4308.000000	3.551539
4306.000000	3.555220
4304.000000	3.560182
4302.000000	3.565370
4300.000000	3.569315
4298.000000	3.572600
4296.000000	3.577010
4294.000000	3.580968
4292.000000	3.583314
4290.000000	3.586268
4288.000000	3.590522
4286.000000	3.594000
4284.000000	3.597429
4282.000000	3.601883
4280.000000	3.606072
4278.000000	3.609369
4276.000000	3.613317
4274.000000	3.617917
4272.000000	3.621154
4270.000000	3.622879
4268.000000	3.625019
4266.000000	3.628738
4264.000000	3.632952
4262.000000	3.636624
4260.000000	3.640470
4258.000000	3.644484
4256.000000	3.648298
4254.000000	3.653028
4252.000000	3.657072
4250.000000	3.659257
4248.000000	3.662674
4246.000000	3.667527
4244.000000	3.671383
4242.000000	3.675143
4240.000000	3.679496
4238.000000	3.683694
4236.000000	3.687549
4234.000000	3.691716
4232.000000	3.696252
4230.000000	3.699943
4228.000000	3.702943
4226.000000	3.707165
4224.000000	3.712210
4222.000000	3.716419
4220.000000	3.719981
4218.000000	3.723899
4216.000000	3.728269
4214.000000	3.732397
4212.000000	3.736151
4210.000000	3.739763
4208.000000	3.743030
4206.000000	3.745834
4204.000000	3.749886
4202.000000	3.755075
4200.000000	3.759657
4198.000000	3.763681
4196.000000	3.768136
4194.000000	3.773155
4192.000000	3.777765
4190.000000	3.780786
4188.000000	3.783653
4186.000000	3.787195
4184.000000	3.791134
4182.000000	3.795326
4180.000000	3.798756
4178.000000	3.802007
4176.000000	3.806278
4174.000000	3.810554
4172.000000	3.814766
4170.000000	3.818855
4168.000000	3.822301
4166.000000	3.826148
4164.000000	3.830435
4162.000000	3.834647
4160.000000	3.839449
4158.000000	3.843845
4156.000000	3.847878
4154.000000	3.852487
4152.000000	3.856108
4150.000000	3.859004
4148.000000	3.863249
4146.000000	3.867897
4144.000000	3.871742
4142.000000	3.875487
4140.000000	3.879371
4138.000000	3.883661
4136.000000	3.888060
4134.000000	3.891946
4132.000000	3.895518
4130.000000	3.899184
4128.000000	3.902999
4126.000000	3.907561
4124.000000	3.912732
4122.000000	3.917114
4120.000000	3.920426
4118.000000	3.923924
4116.000000	3.927811
4114.000000	3.931942
4112.000000	3.936070
4110.000000	3.940140
4108.000000	3.944267
4106.000000	3.947560
4104.000000	3.950026
4102.000000	3.953528
4100.000000	3.958460
4098.000000	3.963840
4096.000000	3.968611
4094.000000	3.972073
4092.000000	3.975540
4090.000000	3.979691
4088.000000	3.984086
4086.000000	3.988912
4084.000000	3.993367
4082.000000	3.997299
4080.000000	4.001054
4078.000000	4.005083
4076.000000	4.009915
4074.000000	4.013918
4072.000000	4.016812
4070.000000	4.020300
4068.000000	4.024818
4066.000000	4.030233
4064.000000	4.035043
4062.000000	4.038352
4060.000000	4.042077
4058.000000	4.046739
4056.000000	4.050859
4054.000000	4.054464
4052.000000	4.057774
4050.000000	4.061552
4048.000000	4.066272
4046.000000	4.070265
4044.000000	4.073967
4042.000000	4.079225
4040.000000	4.084672
4038.000000	4.089151
4036.000000	4.093437
4034.000000	4.098216
4032.000000	4.102560
4030.000000	4.105398
4028.000000	4.108147
4026.000000	4.112113
4024.000000	4.116890
4022.000000	4.121917
4020.000000	4.126570
4018.000000	4.130803
4016.000000	4.135221
4014.000000	4.139258
4012.000000	4.142128
4010.000000	4.145501
4008.000000	4.150248
4006.000000	4.154712
4004.000000	4.159296
4002.000000	4.164395
4000.000000	4.168819
3998.000000	4.173019
3996.000000	4.177197
3994.000000	4.180803
3992.000000	4.184288
3990.000000	4.187816
3988.000000	4.191606
3986.000000	4.195879
3984.000000	4.200290
3982.000000	4.203901
3980.000000	4.207642
3978.000000	4.212045
3976.000000	4.215403
3974.000000	4.219358
3972.000000	4.224885
3970.000000	4.229336
3968.000000	4.232961
3966.000000	4.236592
3964.000000	4.239434
3962.000000	4.242075
3960.000000	4.246022
3958.000000	4.250848
3956.000000	4.254921
3954.000000	4.257977
3952.000000	4.261522
3950.000000	4.264870
3948.000000	4.267595
3946.000000	4.271866
3944.000000	4.275674
3942.000000	4.277427
3940.000000	4.282731
3938.000000	4.291356
3936.000000	4.296658
3934.000000	4.297098
3932.000000	4.295812
3930.000000	4.298554
3928.000000	4.306818
3926.000000	4.313079
3924.000000	4.314980
3922.000000	4.318485
3920.000000	4.323066
3918.000000	4.323540
3916.000000	4.323853
3914.000000	4.332508
3912.000000	4.346012
3910.000000	4.353946
3908.000000	4.354967
3906.000000	4.347558
3904.000000	4.331288
3902.000000	4.320342
3900.000000	4.324826
3898.000000	4.340947
3896.000000	4.362950
3894.000000	4.377018
3892.000000	4.372434
3890.000000	4.366081
3888.000000	4.370746
3886.000000	4.369524
3884.000000	4.366477
3882.000000	4.377323
3880.000000	4.387494
3878.000000	4.395466
3876.000000	4.406211
3874.000000	4.406031
3872.000000	4.394451
3870.000000	4.379724
3868.000000	4.378920
3866.000000	4.395906
3864.000000	4.407244
3862.000000	4.415540
3860.000000	4.432174
3858.000000	4.441712
3856.000000	4.415410
3854.000000	4.348639
3852.000000	4.315379
3850.000000	4.369905
3848.000000	4.445565
3846.000000	4.477009
3844.000000	4.475943
3842.000000	4.466978
3840.000000	4.451241
3838.000000	4.425010
3836.000000	4.417769
3834.000000	4.445855
3832.000000	4.474938
3830.000000	4.489967
3828.000000	4.501882
3826.000000	4.508874
3824.000000	4.507585
3822.000000	4.491955
3820.000000	4.476559
3818.000000	4.479887
3816.000000	4.479152
3814.000000	4.485610
3812.000000	4.522228
3810.000000	4.547661
3808.000000	4.536117
3806.000000	4.518192
3804.000000	4.518819
3802.000000	4.512073
3800.000000	4.502287
3798.000000	4.526697
3796.000000	4.556965
3794.000000	4.571382
3792.000000	4.585064
3790.000000	4.595190
3788.000000	4.600052
3786.000000	4.601717
3784.000000	4.602210
3782.000000	4.604084
3780.000000	4.603077
3778.000000	4.602933
3776.000000	4.613109
3774.000000	4.624793
3772.000000	4.623759
3770.000000	4.613492
3768.000000	4.610779
3766.000000	4.619663
3764.000000	4.630285
3762.000000	4.637806
3760.000000	4.635995
3758.000000	4.631295
3756.000000	4.634827
3754.000000	4.625418
3752.000000	4.584987
3750.000000	4.549969
3748.000000	4.559995
3746.000000	4.574612
3744.000000	4.558411
3742.000000	4.578879
3740.000000	4.642272
3738.000000	4.663248
3736.000000	4.640920
3734.000000	4.629865
3732.000000	4.642482
3730.000000	4.668404
3728.000000	4.694396
3726.000000	4.702599
3724.000000	4.703397
3722.000000	4.710303
3720.000000	4.719232
3718.000000	4.729533
3716.000000	4.737003
3714.000000	4.729512
3712.000000	4.706329
3710.000000	4.697302
3708.000000	4.718937
3706.000000	4.747961
3704.000000	4.762277
3702.000000	4.760751
3700.000000	4.760145
3698.000000	4.770637
3696.000000	4.780831
3694.000000	4.783166
3692.000000	4.772432
3690.000000	4.742416
3688.000000	4.717158
3686.000000	4.738157
3684.000000	4.786919
3682.000000	4.810733
3680.000000	4.807395
3678.000000	4.787042
3676.000000	4.748583
3674.000000	4.729660
3672.000000	4.746291
3670.000000	4.753567
3668.000000	4.765987
3666.000000	4.807354
3664.000000	4.838271
3662.000000	4.846704
3660.000000	4.847851
3658.000000	4.839653
3656.000000	4.823303
3654.000000	4.821569
3652.000000	4.822730
3650.000000	4.794081
3648.000000	4.770966
3646.000000	4.796254
3644.000000	4.840757
3642.000000	4.864813
3640.000000	4.870712
3638.000000	4.872851
3636.000000	4.873920
3634.000000	4.872368
3632.000000	4.862809
3630.000000	4.832408
3628.000000	4.804352
3626.000000	4.825202
3624.000000	4.867989
3622.000000	4.880693
3620.000000	4.865540
3618.000000	4.852988
3616.000000	4.861234
3614.000000	4.871120
3612.000000	4.867716
3610.000000	4.861426
3608.000000	4.859327
3606.000000	4.869763
3604.000000	4.887467
3602.000000	4.894461
3600.000000	4.893348
3598.000000	4.892999
3596.000000	4.891374
3594.000000	4.888892
3592.000000	4.891255
3590.000000	4.889851
3588.000000	4.875574
3586.000000	4.868214
3584.000000	4.882463
3582.000000	4.898777
3580.000000	4.902748
3578.000000	4.901762
3576.000000	4.901907
3574.000000	4.902646
3572.000000	4.902462
3570.000000	4.896435
3568.000000	4.882239
3566.000000	4.873187
3564.000000	4.880212
3562.000000	4.890644
3560.000000	4.894754
3558.000000	4.897520
3556.000000	4.899656
3554.000000	4.898159
3552.000000	4.894665
3550.000000	4.893349
3548.000000	4.891461
3546.000000	4.886038
3544.000000	4.883804
3542.000000	4.887579
3540.000000	4.890417
3538.000000	4.888613
3536.000000	4.885641
3534.000000	4.883594
3532.000000	4.881913
3530.000000	4.878400
3528.000000	4.872163
3526.000000	4.866006
3524.000000	4.862106
3522.000000	4.859232
3520.000000	4.857384
3518.000000	4.855244
3516.000000	4.852894
3514.000000	4.850566
3512.000000	4.846595
3510.000000	4.840407
3508.000000	4.834649
3506.000000	4.830486
3504.000000	4.824084
3502.000000	4.816771
3500.000000	4.812081
3498.000000	4.808386
3496.000000	4.804076
3494.000000	4.799523
3492.000000	4.794722
3490.000000	4.788527
3488.000000	4.781281
3486.000000	4.774474
3484.000000	4.768518
3482.000000	4.764280
3480.000000	4.761300
3478.000000	4.758309
3476.000000	4.754776
3474.000000	4.751171
3472.000000	4.747954
3470.000000	4.745356
3468.000000	4.742989
3466.000000	4.739953
3464.000000	4.737292
3462.000000	4.735291
3460.000000	4.733995
3458.000000	4.732525
3456.000000	4.730436
3454.000000	4.728609
3452.000000	4.726782
3450.000000	4.724543
3448.000000	4.720640
3446.000000	4.715096
3444.000000	4.712767
3442.000000	4.712361
3440.000000	4.712294
3438.000000	4.713104
3436.000000	4.714532
3434.000000	4.717809
3432.000000	4.721087
3430.000000	4.723763
3428.000000	4.728757
3426.000000	4.733985
3424.000000	4.737599
3422.000000	4.740628
3420.000000	4.743662
3418.000000	4.746888
3416.000000	4.749654
3414.000000	4.751696
3412.000000	4.753226
3410.000000	4.754261
3408.000000	4.755543
3406.000000	4.757093
3404.000000	4.758456
3402.000000	4.759398
3400.000000	4.759568
3398.000000	4.760366
3396.000000	4.763625
3394.000000	4.766862
3392.000000	4.768826
3390.000000	4.771208
3388.000000	4.774266
3386.000000	4.775953
3384.000000	4.777603
3382.000000	4.781197
3380.000000	4.784505
3378.000000	4.785417
3376.000000	4.785103
3374.000000	4.786656
3372.000000	4.789755
3370.000000	4.791963
3368.000000	4.792196
3366.000000	4.792734
3364.000000	4.795605
3362.000000	4.797067
3360.000000	4.797819
3358.000000	4.800001
3356.000000	4.801489
3354.000000	4.802577
3352.000000	4.804775
3350.000000	4.807261
3348.000000	4.808357
3346.000000	4.809728
3344.000000	4.812697
3342.000000	4.814299
3340.000000	4.814277
3338.000000	4.814997
3336.000000	4.816603
3334.000000	4.818789
3332.000000	4.820976
3330.000000	4.823327
3328.000000	4.824629
3326.000000	4.825690
3324.000000	4.827162
3322.000000	4.828246
3320.000000	4.829762
3318.000000	4.831793
3316.000000	4.833297
3314.000000	4.834782
3312.000000	4.837050
3310.000000	4.838297
3308.000000	4.838517
3306.000000	4.839281
3304.000000	4.840550
3302.000000	4.842328
3300.000000	4.844847
3298.000000	4.846715
3296.000000	4.848040
3294.000000	4.849738
3292.000000	4.851623
3290.000000	4.853384
3288.000000	4.854759
3286.000000	4.855893
3284.000000	4.856889
3282.000000	4.858293
3280.000000	4.860280
3278.000000	4.862798
3276.000000	4.865263
3274.000000	4.866158
3272.000000	4.867234
3270.000000	4.868608
3268.000000	4.869833
3266.000000	4.872823
3264.000000	4.876497
3262.000000	4.878603
3260.000000	4.880489
3258.000000	4.883312
3256.000000	4.885568
3254.000000	4.886507
3252.000000	4.887796
3250.000000	4.890354
3248.000000	4.893954
3246.000000	4.896670
3244.000000	4.897986
3242.000000	4.899816
3240.000000	4.902940
3238.000000	4.905545
3236.000000	4.906323
3234.000000	4.907880
3232.000000	4.911706
3230.000000	4.915041
3228.000000	4.917226
3226.000000	4.919436
3224.000000	4.920922
3222.000000	4.921941
3220.000000	4.923032
3218.000000	4.925388
3216.000000	4.928956
3214.000000	4.930958
3212.000000	4.933431
3210.000000	4.937923
3208.000000	4.941822
3206.000000	4.944321
3204.000000	4.947043
3202.000000	4.950222
3200.000000	4.954064
3198.000000	4.958580
3196.000000	4.961824
3194.000000	4.964296
3192.000000	4.967783
3190.000000	4.971816
3188.000000	4.976999
3186.000000	4.981642
3184.000000	4.984206
3182.000000	4.987010
3180.000000	4.991188
3178.000000	4.995930
3176.000000	4.999704
3174.000000	5.003293
3172.000000	5.007897
3170.000000	5.012165
3168.000000	5.015518
3166.000000	5.018783
3164.000000	5.022687
3162.000000	5.026995
3160.000000	5.030742
3158.000000	5.034452
3156.000000	5.038367
3154.000000	5.042499
3152.000000	5.046044
3150.000000	5.049312
3148.000000	5.054403
3146.000000	5.059475
3144.000000	5.063642
3142.000000	5.067367
3140.000000	5.070691
3138.000000	5.073046
3136.000000	5.075493
3134.000000	5.078743
3132.000000	5.082300
3130.000000	5.086943
3128.000000	5.090728
3126.000000	5.092364
3124.000000	5.095848
3122.000000	5.099742
3120.000000	5.102394
3118.000000	5.105226
3116.000000	5.108762
3114.000000	5.112814
3112.000000	5.115748
3110.000000	5.116783
3108.000000	5.119314
3106.000000	5.123917
3104.000000	5.128812
3102.000000	5.133086
3100.000000	5.137436
3098.000000	5.141629
3096.000000	5.144636
3094.000000	5.148296
3092.000000	5.153904
3090.000000	5.158787
3088.000000	5.162357
3086.000000	5.165187
3084.000000	5.168979
3082.000000	5.172821
3080.000000	5.175393
3078.000000	5.177552
3076.000000	5.179971
3074.000000	5.182991
3072.000000	5.185127
3070.000000	5.186312
3068.000000	5.187378
3066.000000	5.187769
3064.000000	5.189752
3062.000000	5.193806
3060.000000	5.197389
3058.000000	5.201743
3056.000000	5.207227
3054.000000	5.212004
3052.000000	5.215904
3050.000000	5.218480
3048.000000	5.221413
3046.000000	5.224533
3044.000000	5.227132
3042.000000	5.229657
3040.000000	5.231758
3038.000000	5.234234
3036.000000	5.235848
3034.000000	5.235241
3032.000000	5.234214
3030.000000	5.233890
3028.000000	5.231778
3026.000000	5.226809
3024.000000	5.220703
3022.000000	5.214155
3020.000000	5.209776
3018.000000	5.208184
3016.000000	5.211006
3014.000000	5.220954
3012.000000	5.236190
3010.000000	5.253324
3008.000000	5.269304
3006.000000	5.281774
3004.000000	5.291198
3002.000000	5.298159
3000.000000	5.302436
2998.000000	5.304407
2996.000000	5.306777
2994.000000	5.309528
2992.000000	5.311394
2990.000000	5.312092
2988.000000	5.311778
2986.000000	5.310168
2984.000000	5.306594
2982.000000	5.302039
2980.000000	5.295616
2978.000000	5.286428
2976.000000	5.274502
2974.000000	5.258609
2972.000000	5.236905
2970.000000	5.208804
2968.000000	5.175234
2966.000000	5.140665
2964.000000	5.112392
2962.000000	5.095311
2960.000000	5.091666
2958.000000	5.099809
2956.000000	5.115375
2954.000000	5.131813
2952.000000	5.144661
2950.000000	5.153413
2948.000000	5.157686
2946.000000	5.155035
2944.000000	5.144492
2942.000000	5.126744
2940.000000	5.102198
2938.000000	5.072363
2936.000000	5.042661
2934.000000	5.017132
2932.000000	4.994979
2930.000000	4.973838
2928.000000	4.953165
2926.000000	4.936919
2924.000000	4.931877
2922.000000	4.944225
2920.000000	4.975729
2918.000000	5.021284
2916.000000	5.070404
2914.000000	5.118319
2912.000000	5.162098
2910.000000	5.197860
2908.000000	5.226596
2906.000000	5.249228
2904.000000	5.267075
2902.000000	5.284435
2900.000000	5.301999
2898.000000	5.317637
2896.000000	5.331413
2894.000000	5.344811
2892.000000	5.357417
2890.000000	5.368177
2888.000000	5.378732
2886.000000	5.387758
2884.000000	5.394723
2882.000000	5.399742
2880.000000	5.402473
2878.000000	5.401833
2876.000000	5.398246
2874.000000	5.391531
2872.000000	5.380755
2870.000000	5.363964
2868.000000	5.340084
2866.000000	5.309883
2864.000000	5.276879
2862.000000	5.249257
2860.000000	5.235218
2858.000000	5.237944
2856.000000	5.252945
2854.000000	5.272599
2852.000000	5.294122
2850.000000	5.320147
2848.000000	5.353033
2846.000000	5.389212
2844.000000	5.422990
2842.000000	5.451289
2840.000000	5.474259
2838.000000	5.492035
2836.000000	5.505627
2834.000000	5.516968
2832.000000	5.527439
2830.000000	5.536168
2828.000000	5.542664
2826.000000	5.549517
2824.000000	5.556886
2822.000000	5.562750
2820.000000	5.567781
2818.000000	5.572518
2816.000000	5.578261
2814.000000	5.583053
2812.000000	5.585787
2810.000000	5.588664
2808.000000	5.592560
2806.000000	5.595443
2804.000000	5.597123
2802.000000	5.600773
2800.000000	5.604549
2798.000000	5.606081
2796.000000	5.608274
2794.000000	5.611438
2792.000000	5.614437
2790.000000	5.617173
2788.000000	5.621039
2786.000000	5.626015
2784.000000	5.631269
2782.000000	5.637371
2780.000000	5.642468
2778.000000	5.645882
2776.000000	5.649769
2774.000000	5.654354
2772.000000	5.657797
2770.000000	5.659225
2768.000000	5.661383
2766.000000	5.664403
2764.000000	5.667257
2762.000000	5.671464
2760.000000	5.675262
2758.000000	5.677165
2756.000000	5.679329
2754.000000	5.681535
2752.000000	5.682447
2750.000000	5.683762
2748.000000	5.687119
2746.000000	5.689640
2744.000000	5.690693
2742.000000	5.691921
2740.000000	5.694001
2738.000000	5.696335
2736.000000	5.697710
2734.000000	5.698662
2732.000000	5.700854
2730.000000	5.702782
2728.000000	5.703562
2726.000000	5.703958
2724.000000	5.704986
2722.000000	5.706952
2720.000000	5.708576
2718.000000	5.709667
2716.000000	5.711028
2714.000000	5.712148
2712.000000	5.712860
2710.000000	5.712710
2708.000000	5.712677
2706.000000	5.713076
2704.000000	5.714538
2702.000000	5.716701
2700.000000	5.717197
2698.000000	5.717107
2696.000000	5.719153
2694.000000	5.721757
2692.000000	5.722830
2690.000000	5.723601
2688.000000	5.724305
2686.000000	5.724960
2684.000000	5.726483
2682.000000	5.727236
2680.000000	5.728283
2678.000000	5.730218
2676.000000	5.731554
2674.000000	5.732427
2672.000000	5.732579
2670.000000	5.732876
2668.000000	5.733503
2666.000000	5.733664
2664.000000	5.734781
2662.000000	5.736823
2660.000000	5.738363
2658.000000	5.738164
2656.000000	5.738156
2654.000000	5.739356
2652.000000	5.740645
2650.000000	5.741094
2648.000000	5.742805
2646.000000	5.745709
2644.000000	5.748589
2642.000000	5.750904
2640.000000	5.751762
2638.000000	5.751716
2636.000000	5.753095
2634.000000	5.754638
2632.000000	5.755306
2630.000000	5.756519
2628.000000	5.758403
2626.000000	5.760411
2624.000000	5.762372
2622.000000	5.764437
2620.000000	5.765124
2618.000000	5.765298
2616.000000	5.766968
2614.000000	5.769486
2612.000000	5.771371
2610.000000	5.771246
2608.000000	5.771036
2606.000000	5.772017
2604.000000	5.773256
2602.000000	5.773478
2600.000000	5.773204
2598.000000	5.773536
2596.000000	5.773770
2594.000000	5.773887
2592.000000	5.775381
2590.000000	5.778061
2588.000000	5.780075
2586.000000	5.781445
2584.000000	5.783444
2582.000000	5.786692
2580.000000	5.790503
2578.000000	5.793404
2576.000000	5.795699
2574.000000	5.798475
2572.000000	5.801067
2570.000000	5.802477
2568.000000	5.804666
2566.000000	5.807506
2564.000000	5.810460
2562.000000	5.812722
2560.000000	5.813037
2558.000000	5.813650
2556.000000	5.815330
2554.000000	5.817033
2552.000000	5.818605
2550.000000	5.818982
2548.000000	5.819195
2546.000000	5.820575
2544.000000	5.822230
2542.000000	5.823879
2540.000000	5.825886
2538.000000	5.828176
2536.000000	5.830117
2534.000000	5.831505
2532.000000	5.833200
2530.000000	5.834106
2528.000000	5.834959
2526.000000	5.836138
2524.000000	5.838411
2522.000000	5.840839
2520.000000	5.842385
2518.000000	5.843263
2516.000000	5.843298
2514.000000	5.844152
2512.000000	5.847672
2510.000000	5.850660
2508.000000	5.850986
2506.000000	5.851507
2504.000000	5.852964
2502.000000	5.854070
2500.000000	5.855993
2498.000000	5.856632
2496.000000	5.856575
2494.000000	5.858298
2492.000000	5.860197
2490.000000	5.861866
2488.000000	5.864186
2486.000000	5.866518
2484.000000	5.867443
2482.000000	5.867463
2480.000000	5.868803
2478.000000	5.870761
2476.000000	5.872449
2474.000000	5.874325
2472.000000	5.874712
2470.000000	5.874907
2468.000000	5.876728
2466.000000	5.877450
2464.000000	5.877827
2462.000000	5.879288
2460.000000	5.880667
2458.000000	5.881595
2456.000000	5.881496
2454.000000	5.880732
2452.000000	5.881771
2450.000000	5.884600
2448.000000	5.886721
2446.000000	5.887636
2444.000000	5.886947
2442.000000	5.887596
2440.000000	5.888840
2438.000000	5.889442
2436.000000	5.890616
2434.000000	5.891254
2432.000000	5.892291
2430.000000	5.894671
2428.000000	5.896193
2426.000000	5.895547
2424.000000	5.894867
2422.000000	5.895699
2420.000000	5.897510
2418.000000	5.898424
2416.000000	5.898826
2414.000000	5.900785
2412.000000	5.902800
2410.000000	5.903858
2408.000000	5.904366
2406.000000	5.904532
2404.000000	5.904999
2402.000000	5.906268
2400.000000	5.907136
2398.000000	5.908124
2396.000000	5.909540
2394.000000	5.910599
2392.000000	5.912579
2390.000000	5.913884
2388.000000	5.914454
2386.000000	5.914931
2384.000000	5.914526
2382.000000	5.911625
2380.000000	5.909020
2378.000000	5.903792
2376.000000	5.894191
2374.000000	5.882840
2372.000000	5.869660
2370.000000	5.854674
2368.000000	5.839874
2366.000000	5.825955
2364.000000	5.815728
2362.000000	5.811378
2360.000000	5.812113
2358.000000	5.818649
2356.000000	5.831442
2354.000000	5.849642
2352.000000	5.871987
2350.000000	5.893399
2348.000000	5.901950
2346.000000	5.890172
2344.000000	5.868194
2342.000000	5.846030
2340.000000	5.827603
2338.000000	5.821308
2336.000000	5.826892
2334.000000	5.835839
2332.000000	5.844067
2330.000000	5.851020
2328.000000	5.857690
2326.000000	5.864916
2324.000000	5.871878
2322.000000	5.878803
2320.000000	5.886978
2318.000000	5.894536
2316.000000	5.900793
2314.000000	5.906857
2312.000000	5.913081
2310.000000	5.917812
2308.000000	5.920262
2306.000000	5.922032
2304.000000	5.924896
2302.000000	5.927169
2300.000000	5.927702
2298.000000	5.929343
2296.000000	5.931467
2294.000000	5.931474
2292.000000	5.930767
2290.000000	5.931287
2288.000000	5.931910
2286.000000	5.933292
2284.000000	5.935346
2282.000000	5.936261
2280.000000	5.935292
2278.000000	5.934008
2276.000000	5.933696
2274.000000	5.932716
2272.000000	5.931706
2270.000000	5.932251
2268.000000	5.932758
2266.000000	5.932605
2264.000000	5.932169
2262.000000	5.931982
2260.000000	5.932420
2258.000000	5.932642
2256.000000	5.932053
2254.000000	5.931923
2252.000000	5.933508
2250.000000	5.934878
2248.000000	5.935816
2246.000000	5.936308
2244.000000	5.936670
2242.000000	5.937677
2240.000000	5.939387
2238.000000	5.940281
2236.000000	5.941196
2234.000000	5.942367
2232.000000	5.942486
2230.000000	5.942934
2228.000000	5.944648
2226.000000	5.946648
2224.000000	5.947521
2222.000000	5.948686
2220.000000	5.949405
2218.000000	5.949681
2216.000000	5.951111
2214.000000	5.953041
2212.000000	5.953667
2210.000000	5.953238
2208.000000	5.954114
2206.000000	5.955744
2204.000000	5.956471
2202.000000	5.956856
2200.000000	5.957987
2198.000000	5.958512
2196.000000	5.958893
2194.000000	5.960411
2192.000000	5.962326
2190.000000	5.962317
2188.000000	5.960451
2186.000000	5.959674
2184.000000	5.959894
2182.000000	5.960908
2180.000000	5.963275
2178.000000	5.964788
2176.000000	5.963329
2174.000000	5.962807
2172.000000	5.963708
2170.000000	5.963238
2168.000000	5.963123
2166.000000	5.965099
2164.000000	5.967011
2162.000000	5.968557
2160.000000	5.969864
2158.000000	5.970043
2156.000000	5.970911
2154.000000	5.972257
2152.000000	5.971995
2150.000000	5.971887
2148.000000	5.972509
2146.000000	5.973509
2144.000000	5.974476
2142.000000	5.974372
2140.000000	5.974136
2138.000000	5.975326
2136.000000	5.976117
2134.000000	5.976616
2132.000000	5.978352
2130.000000	5.978949
2128.000000	5.978300
2126.000000	5.978820
2124.000000	5.980770
2122.000000	5.981105
2120.000000	5.980466
2118.000000	5.981435
2116.000000	5.982152
2114.000000	5.983218
2112.000000	5.985360
2110.000000	5.986938
2108.000000	5.988617
2106.000000	5.990242
2104.000000	5.990725
2102.000000	5.990767
2100.000000	5.991821
2098.000000	5.992962
2096.000000	5.994232
2094.000000	5.995849
2092.000000	5.997314
2090.000000	5.998165
2088.000000	5.999911
2086.000000	6.002140
2084.000000	6.003953
2082.000000	6.005289
2080.000000	6.005656
2078.000000	6.006284
2076.000000	6.008332
2074.000000	6.011081
2072.000000	6.013187
2070.000000	6.013847
2068.000000	6.014237
2066.000000	6.015442
2064.000000	6.017221
2062.000000	6.020631
2060.000000	6.023587
2058.000000	6.024919
2056.000000	6.025988
2054.000000	6.027183
2052.000000	6.028872
2050.000000	6.030472
2048.000000	6.032734
2046.000000	6.034255
2044.000000	6.034773
2042.000000	6.034535
2040.000000	6.036267
2038.000000	6.040496
2036.000000	6.042978
2034.000000	6.043725
2032.000000	6.044241
2030.000000	6.043962
2028.000000	6.043699
2026.000000	6.046495
2024.000000	6.048479
2022.000000	6.048726
2020.000000	6.049843
2018.000000	6.050336
2016.000000	6.050339
2014.000000	6.053041
2012.000000	6.055694
2010.000000	6.057475
2008.000000	6.058689
2006.000000	6.058816
2004.000000	6.059287
2002.000000	6.060017
2000.000000	6.061028
1998.000000	6.062061
1996.000000	6.064113
1994.000000	6.062862
1992.000000	6.057955
1990.000000	6.058562
1988.000000	6.062107
1986.000000	6.063573
1984.000000	6.064584
1982.000000	6.064117
1980.000000	6.063548
1978.000000	6.063552
1976.000000	6.063316
1974.000000	6.062603
1972.000000	6.061783
1970.000000	6.060406
1968.000000	6.056623
1966.000000	6.053456
1964.000000	6.053755
1962.000000	6.053042
1960.000000	6.047398
1958.000000	6.042253
1956.000000	6.046406
1954.000000	6.049661
1952.000000	6.048292
1950.000000	6.046486
1948.000000	6.045534
1946.000000	6.043855
1944.000000	6.038638
1942.000000	6.031770
1940.000000	6.034885
1938.000000	6.039888
1936.000000	6.038917
1934.000000	6.036006
1932.000000	6.034473
1930.000000	6.032777
1928.000000	6.030687
1926.000000	6.028324
1924.000000	6.022736
1922.000000	6.016796
1920.000000	6.013134
1918.000000	6.002633
1916.000000	6.003238
1914.000000	6.011847
1912.000000	6.010336
1910.000000	6.005035
1908.000000	6.003243
1906.000000	6.003123
1904.000000	5.999787
1902.000000	5.996021
1900.000000	5.992290
1898.000000	5.988641
1896.000000	5.984175
1894.000000	5.980843
1892.000000	5.979008
1890.000000	5.971088
1888.000000	5.968919
1886.000000	5.975408
1884.000000	5.976930
1882.000000	5.975853
1880.000000	5.975319
1878.000000	5.975164
1876.000000	5.973510
1874.000000	5.971466
1872.000000	5.965571
1870.000000	5.946473
1868.000000	5.933243
1866.000000	5.945952
1864.000000	5.960062
1862.000000	5.962465
1860.000000	5.959829
1858.000000	5.958546
1856.000000	5.956322
1854.000000	5.954779
1852.000000	5.952765
1850.000000	5.948518
1848.000000	5.941071
1846.000000	5.920409
1844.000000	5.889821
1842.000000	5.903202
1840.000000	5.930981
1838.000000	5.931718
1836.000000	5.928319
1834.000000	5.925987
1832.000000	5.912834
1830.000000	5.889041
1828.000000	5.887650
1826.000000	5.891145
1824.000000	5.886148
1822.000000	5.894863
1820.000000	5.898434
1818.000000	5.893440
1816.000000	5.887699
1814.000000	5.882683
1812.000000	5.872691
1810.000000	5.864706
1808.000000	5.863712
1806.000000	5.863344
1804.000000	5.855416
1802.000000	5.838211
1800.000000	5.824421
1798.000000	5.824835
1796.000000	5.824019
1794.000000	5.796947
1792.000000	5.762244
1790.000000	5.774400
1788.000000	5.798244
1786.000000	5.792171
1784.000000	5.779465
1782.000000	5.775982
1780.000000	5.768544
1778.000000	5.766040
1776.000000	5.756085
1774.000000	5.714092
1772.000000	5.667279
1770.000000	5.682022
1768.000000	5.702987
1766.000000	5.715027
1764.000000	5.718186
1762.000000	5.692304
1760.000000	5.687260
1758.000000	5.691066
1756.000000	5.680216
1754.000000	5.674458
1752.000000	5.636765
1750.000000	5.604675
1748.000000	5.615178
1746.000000	5.625637
1744.000000	5.622360
1742.000000	5.605370
1740.000000	5.580050
1738.000000	5.575189
1736.000000	5.546547
1734.000000	5.465716
1732.000000	5.485118
1730.000000	5.554659
1728.000000	5.577012
1726.000000	5.580040
1724.000000	5.573355
1722.000000	5.566146
1720.000000	5.532138
1718.000000	5.449863
1716.000000	5.426662
1714.000000	5.483571
1712.000000	5.523522
1710.000000	5.530138
1708.000000	5.512128
1706.000000	5.484361
1704.000000	5.469330
1702.000000	5.425358
1700.000000	5.343108
1698.000000	5.354768
1696.000000	5.353111
1694.000000	5.387888
1692.000000	5.467723
1690.000000	5.476791
1688.000000	5.459246
1686.000000	5.383423
1684.000000	5.301923
1682.000000	5.362525
1680.000000	5.439285
1678.000000	5.444876
1676.000000	5.406682
1674.000000	5.387309
1672.000000	5.402852
1670.000000	5.378648
1668.000000	5.376690
1666.000000	5.408135
1664.000000	5.400576
1662.000000	5.377947
1660.000000	5.390618
1658.000000	5.395093
1656.000000	5.348373
1654.000000	5.203370
1652.000000	5.138531
1650.000000	5.257696
1648.000000	5.295685
1646.000000	5.256364
1644.000000	5.285373
1642.000000	5.325660
1640.000000	5.320825
1638.000000	5.282221
1636.000000	5.207726
1634.000000	5.203994
1632.000000	5.263024
1630.000000	5.271182
1628.000000	5.246059
1626.000000	5.222936
1624.000000	5.187615
1622.000000	5.161749
1620.000000	5.153837
1618.000000	5.091689
1616.000000	5.030879
1614.000000	5.052606
1612.000000	5.056003
1610.000000	5.018047
1608.000000	4.992182
1606.000000	4.989209
1604.000000	4.999988
1602.000000	5.011552
1600.000000	5.024856
1598.000000	5.037154
1596.000000	5.046514
1594.000000	5.052488
1592.000000	5.058186
1590.000000	5.060217
1588.000000	5.059675
1586.000000	5.055525
1584.000000	5.050618
1582.000000	5.046127
1580.000000	5.042140
1578.000000	5.001818
1576.000000	4.937604
1574.000000	4.967885
1572.000000	5.012702
1570.000000	4.984135
1568.000000	4.976916
1566.000000	4.989563
1564.000000	4.979529
1562.000000	4.927138
1560.000000	4.796949
1558.000000	4.742763
1556.000000	4.831654
1554.000000	4.896136
1552.000000	4.937804
1550.000000	4.963572
1548.000000	4.975884
1546.000000	4.971934
1544.000000	4.945165
1542.000000	4.897765
1540.000000	4.847563
1538.000000	4.898186
1536.000000	5.003123
1534.000000	5.017828
1532.000000	5.026142
1530.000000	5.055805
1528.000000	5.051392
1526.000000	5.028522
1524.000000	5.008834
1522.000000	4.962397
1520.000000	4.949613
1518.000000	4.983979
1516.000000	4.989741
1514.000000	4.994524
1512.000000	4.986498
1510.000000	4.960882
1508.000000	4.879316
1506.000000	4.802390
1504.000000	4.837070
1502.000000	4.848042
1500.000000	4.731213
1498.000000	4.539764
1496.000000	4.366200
1494.000000	4.319548
1492.000000	4.368966
1490.000000	4.451716
1488.000000	4.562638
1486.000000	4.669008
1484.000000	4.745361
1482.000000	4.783077
1480.000000	4.799315
1478.000000	4.799606
1476.000000	4.776861
1474.000000	4.735858
1472.000000	4.709208
1470.000000	4.736031
1468.000000	4.749688
1466.000000	4.713553
1464.000000	4.681017
1462.000000	4.676861
1460.000000	4.635100
1458.000000	4.523374
1456.000000	4.438413
1454.000000	4.441393
1452.000000	4.431575
1450.000000	4.422447
1448.000000	4.456093
1446.000000	4.515841
1444.000000	4.558946
1442.000000	4.571836
1440.000000	4.568421
1438.000000	4.538052
1436.000000	4.515662
1434.000000	4.551519
1432.000000	4.572226
1430.000000	4.566518
1428.000000	4.568406
1426.000000	4.573106
1424.000000	4.565939
1422.000000	4.553193
1420.000000	4.512007
1418.000000	4.493468
1416.000000	4.519677
1414.000000	4.526997
1412.000000	4.511159
1410.000000	4.484327
1408.000000	4.445362
1406.000000	4.394294
1404.000000	4.358198
1402.000000	4.355330
1400.000000	4.363253
1398.000000	4.381611
1396.000000	4.404577
1394.000000	4.420985
1392.000000	4.449322
1390.000000	4.460248
1388.000000	4.438861
1386.000000	4.419526
1384.000000	4.418146
1382.000000	4.424213
1380.000000	4.431808
1378.000000	4.430430
1376.000000	4.421253
1374.000000	4.409323
1372.000000	4.409183
1370.000000	4.408564
1368.000000	4.401278
1366.000000	4.393450
1364.000000	4.377626
1362.000000	4.362091
1360.000000	4.359489
1358.000000	4.356965
1356.000000	4.347152
1354.000000	4.335161
1352.000000	4.324301
1350.000000	4.311561
1348.000000	4.299919
1346.000000	4.288774
1344.000000	4.276175
1342.000000	4.260373
1340.000000	4.242858
1338.000000	4.232633
1336.000000	4.230379
1334.000000	4.227058
1332.000000	4.219283
1330.000000	4.209355
1328.000000	4.199153
1326.000000	4.186474
1324.000000	4.171869
1322.000000	4.155807
1320.000000	4.138552
1318.000000	4.121778
1316.000000	4.106914
1314.000000	4.089612
1312.000000	4.070178
1310.000000	4.052574
1308.000000	4.035400
1306.000000	4.017314
1304.000000	3.999009
1302.000000	3.980080
1300.000000	3.960876
1298.000000	3.940761
1296.000000	3.921304
1294.000000	3.901088
1292.000000	3.879102
1290.000000	3.855691
1288.000000	3.831801
1286.000000	3.809334
1284.000000	3.787180
1282.000000	3.762355
1280.000000	3.735120
1278.000000	3.706428
1276.000000	3.676149
1274.000000	3.640694
1272.000000	3.597989
1270.000000	3.544126
1268.000000	3.475485
1266.000000	3.390645
1264.000000	3.297959
1262.000000	3.216495
1260.000000	3.168640
1258.000000	3.164520
1256.000000	3.189678
1254.000000	3.217603
1252.000000	3.230953
1250.000000	3.225026
1248.000000	3.205608
1246.000000	3.180135
1244.000000	3.151920
1242.000000	3.121263
1240.000000	3.090623
1238.000000	3.060934
1236.000000	3.031472
1234.000000	3.001959
1232.000000	2.973201
1230.000000	2.946472
1228.000000	2.920882
1226.000000	2.893634
1224.000000	2.865765
1222.000000	2.837407
1220.000000	2.809112
1218.000000	2.779987
1216.000000	2.749006
1214.000000	2.717763
1212.000000	2.688196
1210.000000	2.660207
1208.000000	2.634794
1206.000000	2.610759
1204.000000	2.585560
1202.000000	2.561218
1200.000000	2.538930
1198.000000	2.516204
1196.000000	2.492363
1194.000000	2.467777
1192.000000	2.442609
1190.000000	2.416908
1188.000000	2.390396
1186.000000	2.361772
1184.000000	2.328918
1182.000000	2.287252
1180.000000	2.249464
1178.000000	2.230830
1176.000000	2.217587
1174.000000	2.196779
1172.000000	2.171100
1170.000000	2.144170
1168.000000	2.117252
1166.000000	2.089209
1164.000000	2.061317
1162.000000	2.034395
1160.000000	2.007407
1158.000000	1.981066
1156.000000	1.956007
1154.000000	1.931586
1152.000000	1.906933
1150.000000	1.881400
1148.000000	1.856686
1146.000000	1.831866
1144.000000	1.806987
1142.000000	1.784107
1140.000000	1.765877
1138.000000	1.747802
1136.000000	1.726512
1134.000000	1.704378
1132.000000	1.681464
1130.000000	1.657450
1128.000000	1.632772
1126.000000	1.608961
1124.000000	1.585758
1122.000000	1.561346
1120.000000	1.535434
1118.000000	1.508773
1116.000000	1.481259
1114.000000	1.453423
1112.000000	1.427041
1110.000000	1.401642
1108.000000	1.375126
1106.000000	1.349260
1104.000000	1.324723
1102.000000	1.301266
1100.000000	1.278489
1098.000000	1.254813
1096.000000	1.231328
1094.000000	1.209635
1092.000000	1.189480
1090.000000	1.170121
1088.000000	1.152129
1086.000000	1.135078
1084.000000	1.117758
1082.000000	1.097755
1080.000000	1.078587
1078.000000	1.062708
1076.000000	1.049347
1074.000000	1.038093
1072.000000	1.027113
1070.000000	1.015758
1068.000000	1.004931
1066.000000	0.993128
1064.000000	0.979992
1062.000000	0.967404
1060.000000	0.956128
1058.000000	0.941512
1056.000000	0.921393
1054.000000	0.895599
1052.000000	0.868325
1050.000000	0.850435
1048.000000	0.847474
1046.000000	0.853014
1044.000000	0.855360
1042.000000	0.850749
1040.000000	0.841817
1038.000000	0.830373
1036.000000	0.818506
1034.000000	0.806545
1032.000000	0.792919
1030.000000	0.779045
1028.000000	0.766353
1026.000000	0.752428
1024.000000	0.738173
1022.000000	0.723397
1020.000000	0.708993
1018.000000	0.695859
1016.000000	0.685571
1014.000000	0.677394
1012.000000	0.670600
1010.000000	0.664146
1008.000000	0.657353
1006.000000	0.650319
1004.000000	0.641718
1002.000000	0.630257
1000.000000	0.618380
