PE IR       SUBTECH     SPECTRUM    ASCII       PEDS        4.00        
   -1
TE110A_065_80K_AFTER_125K.ASC
20/05/14
14:46:42.00
20/05/14
14:46:42.00
Administrator
TE110A.Thursday, May 14 2020, 013.
1000.000000
#HDR
-1
-1
#GR
cm-1
A
1.0
0.0
6000.000000
-2.000000
2501
8
1.341584
1.291298
#DATA
6000.000000	1.333766
5998.000000	1.333431
5996.000000	1.332924
5994.000000	1.332684
5992.000000	1.332718
5990.000000	1.332765
5988.000000	1.332619
5986.000000	1.332333
5984.000000	1.332040
5982.000000	1.332084
5980.000000	1.332204
5978.000000	1.332327
5976.000000	1.332280
5974.000000	1.331884
5972.000000	1.331686
5970.000000	1.331782
5968.000000	1.331977
5966.000000	1.332014
5964.000000	1.331678
5962.000000	1.331627
5960.000000	1.332051
5958.000000	1.332475
5956.000000	1.332258
5954.000000	1.331468
5952.000000	1.330993
5950.000000	1.330787
5948.000000	1.331153
5946.000000	1.331836
5944.000000	1.332042
5942.000000	1.331857
5940.000000	1.331142
5938.000000	1.331101
5936.000000	1.331624
5934.000000	1.332058
5932.000000	1.331859
5930.000000	1.331444
5928.000000	1.331193
5926.000000	1.331229
5924.000000	1.331338
5922.000000	1.331098
5920.000000	1.330601
5918.000000	1.330530
5916.000000	1.331144
5914.000000	1.331758
5912.000000	1.331974
5910.000000	1.331761
5908.000000	1.331724
5906.000000	1.331847
5904.000000	1.331557
5902.000000	1.331171
5900.000000	1.331053
5898.000000	1.331214
5896.000000	1.331058
5894.000000	1.330457
5892.000000	1.329636
5890.000000	1.329215
5888.000000	1.329399
5886.000000	1.329809
5884.000000	1.330337
5882.000000	1.330615
5880.000000	1.330393
5878.000000	1.329497
5876.000000	1.328559
5874.000000	1.328564
5872.000000	1.329000
5870.000000	1.329594
5868.000000	1.329474
5866.000000	1.329355
5864.000000	1.329267
5862.000000	1.328864
5860.000000	1.328614
5858.000000	1.328748
5856.000000	1.329068
5854.000000	1.329395
5852.000000	1.329314
5850.000000	1.329333
5848.000000	1.329189
5846.000000	1.329313
5844.000000	1.329362
5842.000000	1.329381
5840.000000	1.328963
5838.000000	1.328448
5836.000000	1.328407
5834.000000	1.328720
5832.000000	1.329062
5830.000000	1.329037
5828.000000	1.329017
5826.000000	1.329186
5824.000000	1.329461
5822.000000	1.329524
5820.000000	1.329538
5818.000000	1.329172
5816.000000	1.328595
5814.000000	1.328411
5812.000000	1.328136
5810.000000	1.328316
5808.000000	1.328378
5806.000000	1.328526
5804.000000	1.328482
5802.000000	1.328013
5800.000000	1.328160
5798.000000	1.328386
5796.000000	1.328413
5794.000000	1.328275
5792.000000	1.328029
5790.000000	1.328206
5788.000000	1.328372
5786.000000	1.328678
5784.000000	1.328633
5782.000000	1.328278
5780.000000	1.327881
5778.000000	1.327865
5776.000000	1.327766
5774.000000	1.327967
5772.000000	1.328485
5770.000000	1.328886
5768.000000	1.328654
5766.000000	1.328297
5764.000000	1.328279
5762.000000	1.328666
5760.000000	1.328517
5758.000000	1.328107
5756.000000	1.327893
5754.000000	1.327610
5752.000000	1.327544
5750.000000	1.327542
5748.000000	1.327788
5746.000000	1.327733
5744.000000	1.327212
5742.000000	1.326597
5740.000000	1.326438
5738.000000	1.326388
5736.000000	1.326482
5734.000000	1.326560
5732.000000	1.326491
5730.000000	1.326702
5728.000000	1.327256
5726.000000	1.327705
5724.000000	1.327769
5722.000000	1.327744
5720.000000	1.327437
5718.000000	1.327008
5716.000000	1.326298
5714.000000	1.325831
5712.000000	1.325749
5710.000000	1.325817
5708.000000	1.326275
5706.000000	1.326762
5704.000000	1.326487
5702.000000	1.325886
5700.000000	1.325469
5698.000000	1.325783
5696.000000	1.326371
5694.000000	1.326494
5692.000000	1.326292
5690.000000	1.326098
5688.000000	1.325956
5686.000000	1.325605
5684.000000	1.325436
5682.000000	1.325668
5680.000000	1.326009
5678.000000	1.325873
5676.000000	1.325482
5674.000000	1.325580
5672.000000	1.325918
5670.000000	1.326305
5668.000000	1.326425
5666.000000	1.326096
5664.000000	1.325770
5662.000000	1.325313
5660.000000	1.325093
5658.000000	1.325262
5656.000000	1.325302
5654.000000	1.325418
5652.000000	1.325722
5650.000000	1.326031
5648.000000	1.326029
5646.000000	1.325544
5644.000000	1.325136
5642.000000	1.325063
5640.000000	1.324762
5638.000000	1.324504
5636.000000	1.324685
5634.000000	1.325060
5632.000000	1.325465
5630.000000	1.325367
5628.000000	1.325183
5626.000000	1.325009
5624.000000	1.324974
5622.000000	1.325050
5620.000000	1.325075
5618.000000	1.324796
5616.000000	1.324163
5614.000000	1.323703
5612.000000	1.323827
5610.000000	1.324431
5608.000000	1.324886
5606.000000	1.324891
5604.000000	1.324585
5602.000000	1.324345
5600.000000	1.324232
5598.000000	1.324181
5596.000000	1.324228
5594.000000	1.324225
5592.000000	1.324265
5590.000000	1.323952
5588.000000	1.323676
5586.000000	1.323609
5584.000000	1.323906
5582.000000	1.324032
5580.000000	1.323787
5578.000000	1.323580
5576.000000	1.323652
5574.000000	1.323596
5572.000000	1.323202
5570.000000	1.322940
5568.000000	1.323357
5566.000000	1.323882
5564.000000	1.324165
5562.000000	1.324167
5560.000000	1.323845
5558.000000	1.323491
5556.000000	1.323196
5554.000000	1.323342
5552.000000	1.323531
5550.000000	1.323503
5548.000000	1.323267
5546.000000	1.323174
5544.000000	1.323378
5542.000000	1.323559
5540.000000	1.323481
5538.000000	1.323200
5536.000000	1.323267
5534.000000	1.323216
5532.000000	1.322866
5530.000000	1.322687
5528.000000	1.322854
5526.000000	1.323207
5524.000000	1.323392
5522.000000	1.323472
5520.000000	1.323452
5518.000000	1.323081
5516.000000	1.322836
5514.000000	1.322996
5512.000000	1.322757
5510.000000	1.322216
5508.000000	1.321584
5506.000000	1.321549
5504.000000	1.321993
5502.000000	1.322245
5500.000000	1.322274
5498.000000	1.322025
5496.000000	1.321899
5494.000000	1.321981
5492.000000	1.322338
5490.000000	1.322340
5488.000000	1.322210
5486.000000	1.322198
5484.000000	1.322401
5482.000000	1.321996
5480.000000	1.321097
5478.000000	1.320825
5476.000000	1.321193
5474.000000	1.321465
5472.000000	1.321379
5470.000000	1.321518
5468.000000	1.321812
5466.000000	1.321772
5464.000000	1.321560
5462.000000	1.321538
5460.000000	1.321585
5458.000000	1.321801
5456.000000	1.322072
5454.000000	1.322036
5452.000000	1.321270
5450.000000	1.320575
5448.000000	1.320556
5446.000000	1.320824
5444.000000	1.320745
5442.000000	1.320835
5440.000000	1.321078
5438.000000	1.321098
5436.000000	1.320930
5434.000000	1.320830
5432.000000	1.320832
5430.000000	1.320930
5428.000000	1.321196
5426.000000	1.321432
5424.000000	1.321432
5422.000000	1.321399
5420.000000	1.321523
5418.000000	1.321374
5416.000000	1.320850
5414.000000	1.320322
5412.000000	1.320195
5410.000000	1.320375
5408.000000	1.320639
5406.000000	1.320730
5404.000000	1.320685
5402.000000	1.320523
5400.000000	1.320113
5398.000000	1.319717
5396.000000	1.319431
5394.000000	1.319723
5392.000000	1.320470
5390.000000	1.320894
5388.000000	1.320809
5386.000000	1.320504
5384.000000	1.320302
5382.000000	1.320371
5380.000000	1.320272
5378.000000	1.319987
5376.000000	1.319601
5374.000000	1.319525
5372.000000	1.319770
5370.000000	1.320033
5368.000000	1.320257
5366.000000	1.320352
5364.000000	1.320267
5362.000000	1.320301
5360.000000	1.320338
5358.000000	1.320126
5356.000000	1.319840
5354.000000	1.319865
5352.000000	1.320105
5350.000000	1.319819
5348.000000	1.319251
5346.000000	1.319122
5344.000000	1.319629
5342.000000	1.319985
5340.000000	1.319600
5338.000000	1.319465
5336.000000	1.319782
5334.000000	1.319881
5332.000000	1.319508
5330.000000	1.319293
5328.000000	1.319606
5326.000000	1.319917
5324.000000	1.320037
5322.000000	1.320186
5320.000000	1.320247
5318.000000	1.320007
5316.000000	1.319685
5314.000000	1.319648
5312.000000	1.319704
5310.000000	1.319545
5308.000000	1.319545
5306.000000	1.319813
5304.000000	1.319904
5302.000000	1.319797
5300.000000	1.319625
5298.000000	1.319589
5296.000000	1.319347
5294.000000	1.319003
5292.000000	1.318720
5290.000000	1.318772
5288.000000	1.318987
5286.000000	1.319071
5284.000000	1.319014
5282.000000	1.318952
5280.000000	1.319040
5278.000000	1.319221
5276.000000	1.319350
5274.000000	1.319112
5272.000000	1.318577
5270.000000	1.318243
5268.000000	1.318168
5266.000000	1.318049
5264.000000	1.318321
5262.000000	1.318990
5260.000000	1.319447
5258.000000	1.319089
5256.000000	1.318605
5254.000000	1.318547
5252.000000	1.318489
5250.000000	1.318284
5248.000000	1.318281
5246.000000	1.318265
5244.000000	1.318240
5242.000000	1.318307
5240.000000	1.318537
5238.000000	1.318752
5236.000000	1.318737
5234.000000	1.318736
5232.000000	1.318653
5230.000000	1.318437
5228.000000	1.318119
5226.000000	1.318052
5224.000000	1.318479
5222.000000	1.318712
5220.000000	1.318382
5218.000000	1.318102
5216.000000	1.318318
5214.000000	1.318607
5212.000000	1.318283
5210.000000	1.317745
5208.000000	1.317587
5206.000000	1.317912
5204.000000	1.318546
5202.000000	1.318902
5200.000000	1.318605
5198.000000	1.317862
5196.000000	1.317581
5194.000000	1.317961
5192.000000	1.318300
5190.000000	1.318263
5188.000000	1.318078
5186.000000	1.318046
5184.000000	1.318146
5182.000000	1.318537
5180.000000	1.318886
5178.000000	1.318664
5176.000000	1.317919
5174.000000	1.317619
5172.000000	1.318008
5170.000000	1.318556
5168.000000	1.318580
5166.000000	1.318346
5164.000000	1.318099
5162.000000	1.318028
5160.000000	1.318000
5158.000000	1.317914
5156.000000	1.317931
5154.000000	1.318099
5152.000000	1.318234
5150.000000	1.318201
5148.000000	1.318187
5146.000000	1.318218
5144.000000	1.318295
5142.000000	1.318299
5140.000000	1.318222
5138.000000	1.318027
5136.000000	1.317839
5134.000000	1.317609
5132.000000	1.317329
5130.000000	1.317132
5128.000000	1.317138
5126.000000	1.317439
5124.000000	1.317786
5122.000000	1.317966
5120.000000	1.317832
5118.000000	1.317640
5116.000000	1.317569
5114.000000	1.317729
5112.000000	1.317932
5110.000000	1.317912
5108.000000	1.317689
5106.000000	1.317500
5104.000000	1.317484
5102.000000	1.317621
5100.000000	1.317717
5098.000000	1.317767
5096.000000	1.317737
5094.000000	1.317785
5092.000000	1.317748
5090.000000	1.317646
5088.000000	1.317426
5086.000000	1.317165
5084.000000	1.317195
5082.000000	1.317430
5080.000000	1.317488
5078.000000	1.317219
5076.000000	1.316966
5074.000000	1.316985
5072.000000	1.317252
5070.000000	1.317581
5068.000000	1.317494
5066.000000	1.317092
5064.000000	1.317009
5062.000000	1.317446
5060.000000	1.317788
5058.000000	1.317768
5056.000000	1.317844
5054.000000	1.318143
5052.000000	1.318165
5050.000000	1.317808
5048.000000	1.317507
5046.000000	1.317447
5044.000000	1.317506
5042.000000	1.317587
5040.000000	1.317595
5038.000000	1.317596
5036.000000	1.317687
5034.000000	1.317630
5032.000000	1.317478
5030.000000	1.317474
5028.000000	1.317617
5026.000000	1.317736
5024.000000	1.317947
5022.000000	1.318016
5020.000000	1.317557
5018.000000	1.317184
5016.000000	1.317333
5014.000000	1.317552
5012.000000	1.317186
5010.000000	1.316782
5008.000000	1.317024
5006.000000	1.317817
5004.000000	1.318146
5002.000000	1.317893
5000.000000	1.317597
4998.000000	1.317786
4996.000000	1.317845
4994.000000	1.317693
4992.000000	1.317429
4990.000000	1.317437
4988.000000	1.317625
4986.000000	1.317708
4984.000000	1.317547
4982.000000	1.317341
4980.000000	1.317332
4978.000000	1.317326
4976.000000	1.317350
4974.000000	1.317243
4972.000000	1.317128
4970.000000	1.317222
4968.000000	1.317595
4966.000000	1.317723
4964.000000	1.317407
4962.000000	1.317259
4960.000000	1.317536
4958.000000	1.317738
4956.000000	1.317523
4954.000000	1.317066
4952.000000	1.316769
4950.000000	1.316882
4948.000000	1.317276
4946.000000	1.317540
4944.000000	1.317740
4942.000000	1.317922
4940.000000	1.317776
4938.000000	1.317405
4936.000000	1.317215
4934.000000	1.317318
4932.000000	1.317414
4930.000000	1.317420
4928.000000	1.317370
4926.000000	1.317430
4924.000000	1.317474
4922.000000	1.317386
4920.000000	1.317370
4918.000000	1.317471
4916.000000	1.317444
4914.000000	1.317274
4912.000000	1.317164
4910.000000	1.317149
4908.000000	1.317243
4906.000000	1.317391
4904.000000	1.317469
4902.000000	1.317393
4900.000000	1.317228
4898.000000	1.317066
4896.000000	1.317100
4894.000000	1.317249
4892.000000	1.317444
4890.000000	1.317465
4888.000000	1.317282
4886.000000	1.317234
4884.000000	1.317374
4882.000000	1.317540
4880.000000	1.317463
4878.000000	1.317419
4876.000000	1.317400
4874.000000	1.317433
4872.000000	1.317257
4870.000000	1.316923
4868.000000	1.316780
4866.000000	1.316961
4864.000000	1.317146
4862.000000	1.317144
4860.000000	1.317218
4858.000000	1.317499
4856.000000	1.317637
4854.000000	1.317522
4852.000000	1.317494
4850.000000	1.317518
4848.000000	1.317377
4846.000000	1.317193
4844.000000	1.317171
4842.000000	1.317194
4840.000000	1.317064
4838.000000	1.316956
4836.000000	1.317049
4834.000000	1.317371
4832.000000	1.317605
4830.000000	1.317426
4828.000000	1.317043
4826.000000	1.316931
4824.000000	1.317157
4822.000000	1.317331
4820.000000	1.317244
4818.000000	1.317152
4816.000000	1.317191
4814.000000	1.317382
4812.000000	1.317437
4810.000000	1.317310
4808.000000	1.317170
4806.000000	1.317204
4804.000000	1.317316
4802.000000	1.317309
4800.000000	1.317136
4798.000000	1.316938
4796.000000	1.316920
4794.000000	1.317078
4792.000000	1.317158
4790.000000	1.317068
4788.000000	1.316966
4786.000000	1.316964
4784.000000	1.316911
4782.000000	1.316819
4780.000000	1.316888
4778.000000	1.317004
4776.000000	1.316990
4774.000000	1.316942
4772.000000	1.316986
4770.000000	1.317111
4768.000000	1.317101
4766.000000	1.316916
4764.000000	1.316839
4762.000000	1.317116
4760.000000	1.317432
4758.000000	1.317563
4756.000000	1.317461
4754.000000	1.317115
4752.000000	1.316809
4750.000000	1.316859
4748.000000	1.317079
4746.000000	1.317069
4744.000000	1.316922
4742.000000	1.316768
4740.000000	1.316677
4738.000000	1.316604
4736.000000	1.316495
4734.000000	1.316523
4732.000000	1.316671
4730.000000	1.316872
4728.000000	1.316977
4726.000000	1.316916
4724.000000	1.316758
4722.000000	1.316885
4720.000000	1.317089
4718.000000	1.316923
4716.000000	1.316688
4714.000000	1.316697
4712.000000	1.316565
4710.000000	1.316280
4708.000000	1.316294
4706.000000	1.316564
4704.000000	1.316735
4702.000000	1.316732
4700.000000	1.316580
4698.000000	1.316462
4696.000000	1.316541
4694.000000	1.316623
4692.000000	1.316442
4690.000000	1.316324
4688.000000	1.316403
4686.000000	1.316440
4684.000000	1.316306
4682.000000	1.316205
4680.000000	1.316181
4678.000000	1.316183
4676.000000	1.316361
4674.000000	1.316594
4672.000000	1.316779
4670.000000	1.316821
4668.000000	1.316875
4666.000000	1.316934
4664.000000	1.316806
4662.000000	1.316442
4660.000000	1.316230
4658.000000	1.316374
4656.000000	1.316727
4654.000000	1.316958
4652.000000	1.316992
4650.000000	1.316930
4648.000000	1.316960
4646.000000	1.316889
4644.000000	1.316753
4642.000000	1.316607
4640.000000	1.316481
4638.000000	1.316345
4636.000000	1.316342
4634.000000	1.316329
4632.000000	1.316218
4630.000000	1.316173
4628.000000	1.316191
4626.000000	1.316117
4624.000000	1.316130
4622.000000	1.316302
4620.000000	1.316395
4618.000000	1.316439
4616.000000	1.316382
4614.000000	1.316179
4612.000000	1.316157
4610.000000	1.316438
4608.000000	1.316453
4606.000000	1.316257
4604.000000	1.316311
4602.000000	1.316397
4600.000000	1.316204
4598.000000	1.316209
4596.000000	1.316437
4594.000000	1.316463
4592.000000	1.316351
4590.000000	1.316261
4588.000000	1.316144
4586.000000	1.316127
4584.000000	1.316232
4582.000000	1.316300
4580.000000	1.316254
4578.000000	1.316270
4576.000000	1.316504
4574.000000	1.316609
4572.000000	1.316387
4570.000000	1.316259
4568.000000	1.316354
4566.000000	1.316475
4564.000000	1.316542
4562.000000	1.316586
4560.000000	1.316699
4558.000000	1.316864
4556.000000	1.316822
4554.000000	1.316585
4552.000000	1.316327
4550.000000	1.316259
4548.000000	1.316315
4546.000000	1.316307
4544.000000	1.316113
4542.000000	1.315936
4540.000000	1.315901
4538.000000	1.316046
4536.000000	1.316185
4534.000000	1.316154
4532.000000	1.316060
4530.000000	1.316025
4528.000000	1.316083
4526.000000	1.316105
4524.000000	1.316042
4522.000000	1.315943
4520.000000	1.315907
4518.000000	1.315952
4516.000000	1.316009
4514.000000	1.316040
4512.000000	1.316084
4510.000000	1.316229
4508.000000	1.316298
4506.000000	1.316097
4504.000000	1.315776
4502.000000	1.315725
4500.000000	1.315909
4498.000000	1.315924
4496.000000	1.315768
4494.000000	1.315789
4492.000000	1.315916
4490.000000	1.316003
4488.000000	1.315976
4486.000000	1.315939
4484.000000	1.315938
4482.000000	1.316041
4480.000000	1.316127
4478.000000	1.316077
4476.000000	1.315875
4474.000000	1.315801
4472.000000	1.315833
4470.000000	1.315735
4468.000000	1.315681
4466.000000	1.315830
4464.000000	1.315983
4462.000000	1.315861
4460.000000	1.315652
4458.000000	1.315670
4456.000000	1.315886
4454.000000	1.316023
4452.000000	1.316060
4450.000000	1.316107
4448.000000	1.316162
4446.000000	1.316086
4444.000000	1.315853
4442.000000	1.315703
4440.000000	1.315814
4438.000000	1.315881
4436.000000	1.315742
4434.000000	1.315670
4432.000000	1.315634
4430.000000	1.315497
4428.000000	1.315429
4426.000000	1.315517
4424.000000	1.315649
4422.000000	1.315620
4420.000000	1.315478
4418.000000	1.315475
4416.000000	1.315514
4414.000000	1.315426
4412.000000	1.315386
4410.000000	1.315421
4408.000000	1.315417
4406.000000	1.315403
4404.000000	1.315401
4402.000000	1.315361
4400.000000	1.315308
4398.000000	1.315337
4396.000000	1.315344
4394.000000	1.315367
4392.000000	1.315527
4390.000000	1.315675
4388.000000	1.315620
4386.000000	1.315444
4384.000000	1.315308
4382.000000	1.315300
4380.000000	1.315415
4378.000000	1.315549
4376.000000	1.315587
4374.000000	1.315563
4372.000000	1.315487
4370.000000	1.315408
4368.000000	1.315401
4366.000000	1.315414
4364.000000	1.315284
4362.000000	1.315116
4360.000000	1.315059
4358.000000	1.315082
4356.000000	1.315007
4354.000000	1.315028
4352.000000	1.315173
4350.000000	1.315155
4348.000000	1.315046
4346.000000	1.315134
4344.000000	1.315263
4342.000000	1.315163
4340.000000	1.314924
4338.000000	1.314853
4336.000000	1.314950
4334.000000	1.315026
4332.000000	1.314941
4330.000000	1.314782
4328.000000	1.314798
4326.000000	1.314933
4324.000000	1.314894
4322.000000	1.314875
4320.000000	1.314913
4318.000000	1.314780
4316.000000	1.314628
4314.000000	1.314685
4312.000000	1.314803
4310.000000	1.314805
4308.000000	1.314695
4306.000000	1.314683
4304.000000	1.314738
4302.000000	1.314693
4300.000000	1.314655
4298.000000	1.314785
4296.000000	1.314856
4294.000000	1.314675
4292.000000	1.314404
4290.000000	1.314291
4288.000000	1.314310
4286.000000	1.314478
4284.000000	1.314678
4282.000000	1.314735
4280.000000	1.314738
4278.000000	1.314787
4276.000000	1.314707
4274.000000	1.314559
4272.000000	1.314543
4270.000000	1.314594
4268.000000	1.314518
4266.000000	1.314452
4264.000000	1.314485
4262.000000	1.314464
4260.000000	1.314403
4258.000000	1.314439
4256.000000	1.314508
4254.000000	1.314491
4252.000000	1.314450
4250.000000	1.314423
4248.000000	1.314268
4246.000000	1.314188
4244.000000	1.314283
4242.000000	1.314336
4240.000000	1.314382
4238.000000	1.314401
4236.000000	1.314199
4234.000000	1.313916
4232.000000	1.313805
4230.000000	1.313839
4228.000000	1.313787
4226.000000	1.313730
4224.000000	1.313820
4222.000000	1.313919
4220.000000	1.313873
4218.000000	1.313725
4216.000000	1.313569
4214.000000	1.313515
4212.000000	1.313626
4210.000000	1.313729
4208.000000	1.313693
4206.000000	1.313657
4204.000000	1.313594
4202.000000	1.313493
4200.000000	1.313480
4198.000000	1.313433
4196.000000	1.313319
4194.000000	1.313406
4192.000000	1.313554
4190.000000	1.313504
4188.000000	1.313394
4186.000000	1.313368
4184.000000	1.313416
4182.000000	1.313456
4180.000000	1.313379
4178.000000	1.313293
4176.000000	1.313296
4174.000000	1.313296
4172.000000	1.313211
4170.000000	1.313076
4168.000000	1.313052
4166.000000	1.313144
4164.000000	1.313110
4162.000000	1.312953
4160.000000	1.312915
4158.000000	1.312922
4156.000000	1.312771
4154.000000	1.312627
4152.000000	1.312705
4150.000000	1.312901
4148.000000	1.312934
4146.000000	1.312770
4144.000000	1.312686
4142.000000	1.312699
4140.000000	1.312723
4138.000000	1.312702
4136.000000	1.312467
4134.000000	1.312255
4132.000000	1.312288
4130.000000	1.312370
4128.000000	1.312412
4126.000000	1.312414
4124.000000	1.312363
4122.000000	1.312273
4120.000000	1.312159
4118.000000	1.312113
4116.000000	1.312165
4114.000000	1.312178
4112.000000	1.312118
4110.000000	1.312039
4108.000000	1.311819
4106.000000	1.311647
4104.000000	1.311717
4102.000000	1.311828
4100.000000	1.311795
4098.000000	1.311752
4096.000000	1.311858
4094.000000	1.311972
4092.000000	1.311884
4090.000000	1.311735
4088.000000	1.311639
4086.000000	1.311640
4084.000000	1.311612
4082.000000	1.311482
4080.000000	1.311435
4078.000000	1.311459
4076.000000	1.311412
4074.000000	1.311463
4072.000000	1.311497
4070.000000	1.311404
4068.000000	1.311415
4066.000000	1.311518
4064.000000	1.311508
4062.000000	1.311444
4060.000000	1.311345
4058.000000	1.311263
4056.000000	1.311254
4054.000000	1.311214
4052.000000	1.311119
4050.000000	1.311102
4048.000000	1.311091
4046.000000	1.310973
4044.000000	1.310770
4042.000000	1.310606
4040.000000	1.310596
4038.000000	1.310733
4036.000000	1.310766
4034.000000	1.310637
4032.000000	1.310530
4030.000000	1.310558
4028.000000	1.310638
4026.000000	1.310580
4024.000000	1.310386
4022.000000	1.310198
4020.000000	1.310117
4018.000000	1.310189
4016.000000	1.310120
4014.000000	1.309992
4012.000000	1.310104
4010.000000	1.310131
4008.000000	1.310013
4006.000000	1.309860
4004.000000	1.309551
4002.000000	1.309603
4000.000000	1.309914
3998.000000	1.309857
3996.000000	1.309681
3994.000000	1.309681
3992.000000	1.309687
3990.000000	1.309762
3988.000000	1.309946
3986.000000	1.309889
3984.000000	1.309541
3982.000000	1.309361
3980.000000	1.309480
3978.000000	1.309579
3976.000000	1.309443
3974.000000	1.309353
3972.000000	1.309399
3970.000000	1.309406
3968.000000	1.309320
3966.000000	1.309122
3964.000000	1.308914
3962.000000	1.308869
3960.000000	1.308887
3958.000000	1.308880
3956.000000	1.308847
3954.000000	1.308737
3952.000000	1.308523
3950.000000	1.308348
3948.000000	1.308395
3946.000000	1.308372
3944.000000	1.308120
3942.000000	1.308246
3940.000000	1.308516
3938.000000	1.308374
3936.000000	1.307832
3934.000000	1.307233
3932.000000	1.307436
3930.000000	1.308225
3928.000000	1.308209
3926.000000	1.307662
3924.000000	1.307644
3922.000000	1.307475
3920.000000	1.306803
3918.000000	1.306913
3916.000000	1.307988
3914.000000	1.308540
3912.000000	1.308094
3910.000000	1.307543
3908.000000	1.306385
3906.000000	1.304422
3904.000000	1.303684
3902.000000	1.304633
3900.000000	1.306081
3898.000000	1.307525
3896.000000	1.307512
3894.000000	1.305581
3892.000000	1.304919
3890.000000	1.306090
3888.000000	1.305148
3886.000000	1.304289
3884.000000	1.305905
3882.000000	1.306099
3880.000000	1.306068
3878.000000	1.306824
3876.000000	1.305813
3874.000000	1.304264
3872.000000	1.302684
3870.000000	1.303029
3868.000000	1.305240
3866.000000	1.305142
3864.000000	1.304897
3862.000000	1.306159
3860.000000	1.306209
3858.000000	1.302403
3856.000000	1.295143
3854.000000	1.294752
3852.000000	1.304007
3850.000000	1.309440
3848.000000	1.307638
3846.000000	1.305072
3844.000000	1.303780
3842.000000	1.302234
3840.000000	1.299635
3838.000000	1.300198
3836.000000	1.304235
3834.000000	1.305674
3832.000000	1.305128
3830.000000	1.305350
3828.000000	1.305066
3826.000000	1.304213
3824.000000	1.301967
3822.000000	1.300598
3820.000000	1.302226
3818.000000	1.301732
3816.000000	1.302135
3814.000000	1.306232
3812.000000	1.306629
3810.000000	1.303097
3808.000000	1.301230
3806.000000	1.302557
3804.000000	1.301393
3802.000000	1.299825
3800.000000	1.303499
3798.000000	1.305528
3796.000000	1.304923
3794.000000	1.305483
3792.000000	1.305524
3790.000000	1.305010
3788.000000	1.304596
3786.000000	1.304396
3784.000000	1.304346
3782.000000	1.303771
3780.000000	1.303536
3778.000000	1.304574
3776.000000	1.305055
3774.000000	1.303991
3772.000000	1.302343
3770.000000	1.302157
3768.000000	1.303314
3766.000000	1.303847
3764.000000	1.303848
3762.000000	1.302839
3760.000000	1.301971
3758.000000	1.302606
3756.000000	1.301265
3754.000000	1.296654
3752.000000	1.294529
3750.000000	1.297854
3748.000000	1.299121
3746.000000	1.295409
3744.000000	1.298148
3742.000000	1.304698
3740.000000	1.302826
3738.000000	1.298061
3736.000000	1.297645
3734.000000	1.299628
3732.000000	1.301704
3730.000000	1.303022
3728.000000	1.302067
3726.000000	1.301140
3724.000000	1.301432
3722.000000	1.301770
3720.000000	1.302239
3718.000000	1.302353
3716.000000	1.300911
3714.000000	1.298112
3712.000000	1.297982
3710.000000	1.301119
3708.000000	1.303113
3706.000000	1.302551
3704.000000	1.300954
3702.000000	1.300670
3700.000000	1.301779
3698.000000	1.301972
3696.000000	1.301193
3694.000000	1.299650
3692.000000	1.296837
3690.000000	1.295184
3688.000000	1.298426
3686.000000	1.302578
3684.000000	1.302239
3682.000000	1.300239
3680.000000	1.298106
3678.000000	1.294443
3676.000000	1.293876
3674.000000	1.297160
3672.000000	1.296629
3670.000000	1.296800
3668.000000	1.300571
3666.000000	1.301349
3664.000000	1.300136
3662.000000	1.299562
3660.000000	1.298383
3658.000000	1.296550
3656.000000	1.297090
3654.000000	1.297519
3652.000000	1.293760
3650.000000	1.292091
3648.000000	1.296107
3646.000000	1.299600
3644.000000	1.299531
3642.000000	1.298492
3640.000000	1.298064
3638.000000	1.297770
3636.000000	1.297253
3634.000000	1.296250
3632.000000	1.293347
3630.000000	1.291298
3628.000000	1.295197
3626.000000	1.298943
3624.000000	1.297595
3622.000000	1.294812
3620.000000	1.293822
3618.000000	1.295339
3616.000000	1.295884
3614.000000	1.294801
3612.000000	1.294243
3610.000000	1.294159
3608.000000	1.295227
3606.000000	1.296545
3604.000000	1.296204
3602.000000	1.295370
3600.000000	1.295324
3598.000000	1.295272
3596.000000	1.294895
3594.000000	1.295014
3592.000000	1.294662
3590.000000	1.293151
3588.000000	1.293029
3586.000000	1.294818
3584.000000	1.295505
3582.000000	1.294865
3580.000000	1.294500
3578.000000	1.294544
3576.000000	1.294611
3574.000000	1.294538
3572.000000	1.293939
3570.000000	1.292520
3568.000000	1.291990
3566.000000	1.293517
3564.000000	1.294734
3562.000000	1.294591
3560.000000	1.294295
3558.000000	1.294279
3556.000000	1.294108
3554.000000	1.293806
3552.000000	1.293926
3550.000000	1.294060
3548.000000	1.293670
3546.000000	1.293603
3544.000000	1.294135
3542.000000	1.294492
3540.000000	1.294437
3538.000000	1.294249
3536.000000	1.294268
3534.000000	1.294422
3532.000000	1.294403
3530.000000	1.294305
3528.000000	1.294291
3526.000000	1.294259
3524.000000	1.294277
3522.000000	1.294664
3520.000000	1.294970
3518.000000	1.294971
3516.000000	1.295070
3514.000000	1.295218
3512.000000	1.295264
3510.000000	1.295446
3508.000000	1.295741
3506.000000	1.295576
3504.000000	1.295269
3502.000000	1.295744
3500.000000	1.296367
3498.000000	1.296405
3496.000000	1.296457
3494.000000	1.296788
3492.000000	1.296922
3490.000000	1.296984
3488.000000	1.297224
3486.000000	1.297567
3484.000000	1.297885
3482.000000	1.298154
3480.000000	1.298556
3478.000000	1.298941
3476.000000	1.299144
3474.000000	1.299309
3472.000000	1.299547
3470.000000	1.299797
3468.000000	1.300095
3466.000000	1.300666
3464.000000	1.301239
3462.000000	1.301605
3460.000000	1.301898
3458.000000	1.302196
3456.000000	1.302642
3454.000000	1.303113
3452.000000	1.303375
3450.000000	1.303633
3448.000000	1.303983
3446.000000	1.304511
3444.000000	1.305041
3442.000000	1.305524
3440.000000	1.306151
3438.000000	1.306803
3436.000000	1.307294
3434.000000	1.307624
3432.000000	1.308030
3430.000000	1.308458
3428.000000	1.308884
3426.000000	1.309361
3424.000000	1.309744
3422.000000	1.310000
3420.000000	1.310417
3418.000000	1.310979
3416.000000	1.311286
3414.000000	1.311480
3412.000000	1.311796
3410.000000	1.312182
3408.000000	1.312569
3406.000000	1.312853
3404.000000	1.313016
3402.000000	1.313081
3400.000000	1.313175
3398.000000	1.313431
3396.000000	1.313684
3394.000000	1.313830
3392.000000	1.314006
3390.000000	1.314275
3388.000000	1.314466
3386.000000	1.314505
3384.000000	1.314620
3382.000000	1.314791
3380.000000	1.314910
3378.000000	1.315140
3376.000000	1.315412
3374.000000	1.315590
3372.000000	1.315530
3370.000000	1.315422
3368.000000	1.315528
3366.000000	1.315722
3364.000000	1.315863
3362.000000	1.315979
3360.000000	1.316171
3358.000000	1.316339
3356.000000	1.316362
3354.000000	1.316431
3352.000000	1.316452
3350.000000	1.316473
3348.000000	1.316559
3346.000000	1.316632
3344.000000	1.316705
3342.000000	1.316835
3340.000000	1.316942
3338.000000	1.316976
3336.000000	1.317031
3334.000000	1.317121
3332.000000	1.317186
3330.000000	1.317209
3328.000000	1.317244
3326.000000	1.317363
3324.000000	1.317506
3322.000000	1.317560
3320.000000	1.317559
3318.000000	1.317541
3316.000000	1.317467
3314.000000	1.317424
3312.000000	1.317470
3310.000000	1.317519
3308.000000	1.317586
3306.000000	1.317614
3304.000000	1.317732
3302.000000	1.317983
3300.000000	1.318126
3298.000000	1.318203
3296.000000	1.318215
3294.000000	1.318188
3292.000000	1.318214
3290.000000	1.318251
3288.000000	1.318277
3286.000000	1.318311
3284.000000	1.318419
3282.000000	1.318455
3280.000000	1.318366
3278.000000	1.318368
3276.000000	1.318484
3274.000000	1.318588
3272.000000	1.318628
3270.000000	1.318717
3268.000000	1.318830
3266.000000	1.318801
3264.000000	1.318891
3262.000000	1.319088
3260.000000	1.318995
3258.000000	1.318941
3256.000000	1.319055
3254.000000	1.319139
3252.000000	1.319201
3250.000000	1.319255
3248.000000	1.319223
3246.000000	1.319279
3244.000000	1.319494
3242.000000	1.319566
3240.000000	1.319565
3238.000000	1.319612
3236.000000	1.319632
3234.000000	1.319649
3232.000000	1.319725
3230.000000	1.319852
3228.000000	1.319982
3226.000000	1.320129
3224.000000	1.320245
3222.000000	1.320240
3220.000000	1.320194
3218.000000	1.320183
3216.000000	1.320246
3214.000000	1.320468
3212.000000	1.320534
3210.000000	1.320505
3208.000000	1.320697
3206.000000	1.320798
3204.000000	1.320717
3202.000000	1.320608
3200.000000	1.320568
3198.000000	1.320593
3196.000000	1.320698
3194.000000	1.320791
3192.000000	1.320798
3190.000000	1.320815
3188.000000	1.320927
3186.000000	1.320875
3184.000000	1.320853
3182.000000	1.320926
3180.000000	1.320838
3178.000000	1.320892
3176.000000	1.321076
3174.000000	1.321030
3172.000000	1.320969
3170.000000	1.321085
3168.000000	1.321187
3166.000000	1.321246
3164.000000	1.321308
3162.000000	1.321349
3160.000000	1.321361
3158.000000	1.321325
3156.000000	1.321276
3154.000000	1.321244
3152.000000	1.321300
3150.000000	1.321425
3148.000000	1.321529
3146.000000	1.321595
3144.000000	1.321685
3142.000000	1.321791
3140.000000	1.321816
3138.000000	1.321814
3136.000000	1.321869
3134.000000	1.321898
3132.000000	1.321899
3130.000000	1.321979
3128.000000	1.322090
3126.000000	1.322162
3124.000000	1.322182
3122.000000	1.322178
3120.000000	1.322077
3118.000000	1.321968
3116.000000	1.322030
3114.000000	1.322164
3112.000000	1.322230
3110.000000	1.322179
3108.000000	1.322058
3106.000000	1.322043
3104.000000	1.322161
3102.000000	1.322197
3100.000000	1.322211
3098.000000	1.322093
3096.000000	1.321936
3094.000000	1.321977
3092.000000	1.322007
3090.000000	1.321919
3088.000000	1.321847
3086.000000	1.321821
3084.000000	1.321765
3082.000000	1.321589
3080.000000	1.321431
3078.000000	1.321398
3076.000000	1.321420
3074.000000	1.321322
3072.000000	1.321151
3070.000000	1.321064
3068.000000	1.320904
3066.000000	1.320760
3064.000000	1.320830
3062.000000	1.320931
3060.000000	1.320873
3058.000000	1.320713
3056.000000	1.320697
3054.000000	1.320708
3052.000000	1.320658
3050.000000	1.320552
3048.000000	1.320497
3046.000000	1.320422
3044.000000	1.320225
3042.000000	1.320129
3040.000000	1.320178
3038.000000	1.320189
3036.000000	1.320072
3034.000000	1.319887
3032.000000	1.319734
3030.000000	1.319675
3028.000000	1.319617
3026.000000	1.319420
3024.000000	1.319282
3022.000000	1.319415
3020.000000	1.319577
3018.000000	1.319775
3016.000000	1.320028
3014.000000	1.320120
3012.000000	1.320166
3010.000000	1.320243
3008.000000	1.320106
3006.000000	1.319718
3004.000000	1.319543
3002.000000	1.319607
3000.000000	1.319431
2998.000000	1.319259
2996.000000	1.319205
2994.000000	1.319205
2992.000000	1.319264
2990.000000	1.319140
2988.000000	1.318952
2986.000000	1.319017
2984.000000	1.319079
2982.000000	1.318937
2980.000000	1.318789
2978.000000	1.318645
2976.000000	1.318492
2974.000000	1.318364
2972.000000	1.318369
2970.000000	1.318560
2968.000000	1.318842
2966.000000	1.319284
2964.000000	1.320042
2962.000000	1.320923
2960.000000	1.321424
2958.000000	1.321331
2956.000000	1.320966
2954.000000	1.320428
2952.000000	1.319731
2950.000000	1.319142
2948.000000	1.318586
2946.000000	1.318087
2944.000000	1.317664
2942.000000	1.317184
2940.000000	1.316822
2938.000000	1.316759
2936.000000	1.317041
2934.000000	1.317174
2932.000000	1.317064
2930.000000	1.317022
2928.000000	1.317392
2926.000000	1.318156
2924.000000	1.319078
2922.000000	1.320081
2920.000000	1.320823
2918.000000	1.321016
2916.000000	1.320909
2914.000000	1.320572
2912.000000	1.320102
2910.000000	1.319747
2908.000000	1.319464
2906.000000	1.319095
2904.000000	1.318927
2902.000000	1.318875
2900.000000	1.318720
2898.000000	1.318532
2896.000000	1.318454
2894.000000	1.318433
2892.000000	1.318430
2890.000000	1.318371
2888.000000	1.318222
2886.000000	1.317952
2884.000000	1.317745
2882.000000	1.317617
2880.000000	1.317411
2878.000000	1.317162
2876.000000	1.316970
2874.000000	1.316614
2872.000000	1.316184
2870.000000	1.315870
2868.000000	1.315500
2866.000000	1.315209
2864.000000	1.315426
2862.000000	1.316093
2860.000000	1.316905
2858.000000	1.317512
2856.000000	1.317767
2854.000000	1.317980
2852.000000	1.318205
2850.000000	1.318461
2848.000000	1.318719
2846.000000	1.318614
2844.000000	1.318218
2842.000000	1.317773
2840.000000	1.317489
2838.000000	1.317439
2836.000000	1.317407
2834.000000	1.317304
2832.000000	1.317172
2830.000000	1.317091
2828.000000	1.317021
2826.000000	1.316888
2824.000000	1.316874
2822.000000	1.316871
2820.000000	1.316797
2818.000000	1.316712
2816.000000	1.316680
2814.000000	1.316685
2812.000000	1.316717
2810.000000	1.316580
2808.000000	1.316411
2806.000000	1.316478
2804.000000	1.316552
2802.000000	1.316465
2800.000000	1.316413
2798.000000	1.316387
2796.000000	1.316312
2794.000000	1.316235
2792.000000	1.316238
2790.000000	1.316329
2788.000000	1.316381
2786.000000	1.316367
2784.000000	1.316350
2782.000000	1.316351
2780.000000	1.316329
2778.000000	1.316272
2776.000000	1.316204
2774.000000	1.316100
2772.000000	1.316149
2770.000000	1.316181
2768.000000	1.316074
2766.000000	1.315961
2764.000000	1.315927
2762.000000	1.315960
2760.000000	1.315936
2758.000000	1.315899
2756.000000	1.315951
2754.000000	1.315996
2752.000000	1.316014
2750.000000	1.316034
2748.000000	1.316073
2746.000000	1.316070
2744.000000	1.315960
2742.000000	1.315883
2740.000000	1.315945
2738.000000	1.316022
2736.000000	1.316058
2734.000000	1.316050
2732.000000	1.316018
2730.000000	1.315963
2728.000000	1.315933
2726.000000	1.315956
2724.000000	1.316054
2722.000000	1.316069
2720.000000	1.316073
2718.000000	1.316179
2716.000000	1.316298
2714.000000	1.316290
2712.000000	1.316256
2710.000000	1.316337
2708.000000	1.316484
2706.000000	1.316583
2704.000000	1.316571
2702.000000	1.316585
2700.000000	1.316723
2698.000000	1.316834
2696.000000	1.316869
2694.000000	1.316918
2692.000000	1.316998
2690.000000	1.316987
2688.000000	1.316999
2686.000000	1.317063
2684.000000	1.317134
2682.000000	1.317270
2680.000000	1.317401
2678.000000	1.317454
2676.000000	1.317465
2674.000000	1.317529
2672.000000	1.317671
2670.000000	1.317764
2668.000000	1.317800
2666.000000	1.317896
2664.000000	1.317994
2662.000000	1.318050
2660.000000	1.318106
2658.000000	1.318121
2656.000000	1.318216
2654.000000	1.318356
2652.000000	1.318432
2650.000000	1.318512
2648.000000	1.318578
2646.000000	1.318666
2644.000000	1.318708
2642.000000	1.318675
2640.000000	1.318716
2638.000000	1.318759
2636.000000	1.318734
2634.000000	1.318609
2632.000000	1.318527
2630.000000	1.318674
2628.000000	1.318898
2626.000000	1.318972
2624.000000	1.318945
2622.000000	1.318988
2620.000000	1.319024
2618.000000	1.319006
2616.000000	1.318993
2614.000000	1.319036
2612.000000	1.319074
2610.000000	1.319071
2608.000000	1.319061
2606.000000	1.319025
2604.000000	1.319070
2602.000000	1.319159
2600.000000	1.319224
2598.000000	1.319259
2596.000000	1.319253
2594.000000	1.319323
2592.000000	1.319387
2590.000000	1.319324
2588.000000	1.319351
2586.000000	1.319419
2584.000000	1.319481
2582.000000	1.319454
2580.000000	1.319419
2578.000000	1.319389
2576.000000	1.319386
2574.000000	1.319406
2572.000000	1.319414
2570.000000	1.319413
2568.000000	1.319401
2566.000000	1.319403
2564.000000	1.319388
2562.000000	1.319429
2560.000000	1.319484
2558.000000	1.319471
2556.000000	1.319502
2554.000000	1.319541
2552.000000	1.319532
2550.000000	1.319475
2548.000000	1.319393
2546.000000	1.319422
2544.000000	1.319485
2542.000000	1.319501
2540.000000	1.319539
2538.000000	1.319542
2536.000000	1.319565
2534.000000	1.319597
2532.000000	1.319497
2530.000000	1.319389
2528.000000	1.319376
2526.000000	1.319322
2524.000000	1.319368
2522.000000	1.319449
2520.000000	1.319444
2518.000000	1.319342
2516.000000	1.319269
2514.000000	1.319302
2512.000000	1.319344
2510.000000	1.319337
2508.000000	1.319262
2506.000000	1.319218
2504.000000	1.319233
2502.000000	1.319239
2500.000000	1.319286
2498.000000	1.319215
2496.000000	1.319195
2494.000000	1.319283
2492.000000	1.319233
2490.000000	1.319137
2488.000000	1.319117
2486.000000	1.319081
2484.000000	1.319047
2482.000000	1.319026
2480.000000	1.319061
2478.000000	1.319091
2476.000000	1.319214
2474.000000	1.319272
2472.000000	1.319268
2470.000000	1.319284
2468.000000	1.319256
2466.000000	1.319190
2464.000000	1.319169
2462.000000	1.319209
2460.000000	1.319169
2458.000000	1.319119
2456.000000	1.319079
2454.000000	1.319025
2452.000000	1.318987
2450.000000	1.318943
2448.000000	1.318923
2446.000000	1.318928
2444.000000	1.319015
2442.000000	1.319098
2440.000000	1.319003
2438.000000	1.318872
2436.000000	1.318879
2434.000000	1.318956
2432.000000	1.318968
2430.000000	1.318934
2428.000000	1.318964
2426.000000	1.318949
2424.000000	1.318817
2422.000000	1.318803
2420.000000	1.318969
2418.000000	1.318971
2416.000000	1.318924
2414.000000	1.318940
2412.000000	1.318931
2410.000000	1.318913
2408.000000	1.318896
2406.000000	1.318866
2404.000000	1.318879
2402.000000	1.318864
2400.000000	1.318825
2398.000000	1.318664
2396.000000	1.318563
2394.000000	1.318672
2392.000000	1.318792
2390.000000	1.318773
2388.000000	1.318648
2386.000000	1.318500
2384.000000	1.318382
2382.000000	1.318334
2380.000000	1.318163
2378.000000	1.317768
2376.000000	1.317474
2374.000000	1.317176
2372.000000	1.316816
2370.000000	1.316452
2368.000000	1.316141
2366.000000	1.315944
2364.000000	1.315916
2362.000000	1.316012
2360.000000	1.316306
2358.000000	1.316723
2356.000000	1.317155
2354.000000	1.317611
2352.000000	1.318009
2350.000000	1.318020
2348.000000	1.317329
2346.000000	1.316659
2344.000000	1.316783
2342.000000	1.317454
2340.000000	1.318196
2338.000000	1.318437
2336.000000	1.318043
2334.000000	1.317570
2332.000000	1.317418
2330.000000	1.317400
2328.000000	1.317500
2326.000000	1.317624
2324.000000	1.317729
2322.000000	1.317770
2320.000000	1.317796
2318.000000	1.317882
2316.000000	1.317952
2314.000000	1.317897
2312.000000	1.317902
2310.000000	1.318050
2308.000000	1.318203
2306.000000	1.318248
2304.000000	1.318216
2302.000000	1.318217
2300.000000	1.318283
2298.000000	1.318330
2296.000000	1.318422
2294.000000	1.318456
2292.000000	1.318344
2290.000000	1.318266
2288.000000	1.318309
2286.000000	1.318387
2284.000000	1.318505
2282.000000	1.318435
2280.000000	1.318239
2278.000000	1.318195
2276.000000	1.318246
2274.000000	1.318269
2272.000000	1.318290
2270.000000	1.318327
2268.000000	1.318346
2266.000000	1.318285
2264.000000	1.318245
2262.000000	1.318140
2260.000000	1.318039
2258.000000	1.317923
2256.000000	1.317883
2254.000000	1.317949
2252.000000	1.318010
2250.000000	1.317914
2248.000000	1.317747
2246.000000	1.317846
2244.000000	1.317885
2242.000000	1.317725
2240.000000	1.317650
2238.000000	1.317580
2236.000000	1.317581
2234.000000	1.317652
2232.000000	1.317668
2230.000000	1.317606
2228.000000	1.317506
2226.000000	1.317409
2224.000000	1.317358
2222.000000	1.317284
2220.000000	1.317102
2218.000000	1.316997
2216.000000	1.317049
2214.000000	1.317026
2212.000000	1.316991
2210.000000	1.316853
2208.000000	1.316653
2206.000000	1.316578
2204.000000	1.316632
2202.000000	1.316692
2200.000000	1.316671
2198.000000	1.316572
2196.000000	1.316626
2194.000000	1.316651
2192.000000	1.316541
2190.000000	1.316334
2188.000000	1.316379
2186.000000	1.316405
2184.000000	1.316293
2182.000000	1.316202
2180.000000	1.316119
2178.000000	1.316080
2176.000000	1.316088
2174.000000	1.315917
2172.000000	1.315720
2170.000000	1.315801
2168.000000	1.316042
2166.000000	1.315984
2164.000000	1.315757
2162.000000	1.315610
2160.000000	1.315630
2158.000000	1.315581
2156.000000	1.315467
2154.000000	1.315454
2152.000000	1.315445
2150.000000	1.315334
2148.000000	1.315224
2146.000000	1.315211
2144.000000	1.315226
2142.000000	1.315127
2140.000000	1.315078
2138.000000	1.315076
2136.000000	1.315085
2134.000000	1.315018
2132.000000	1.314913
2130.000000	1.314761
2128.000000	1.314666
2126.000000	1.314653
2124.000000	1.314656
2122.000000	1.314597
2120.000000	1.314536
2118.000000	1.314504
2116.000000	1.314472
2114.000000	1.314427
2112.000000	1.314447
2110.000000	1.314419
2108.000000	1.314415
2106.000000	1.314431
2104.000000	1.314352
2102.000000	1.314261
2100.000000	1.314275
2098.000000	1.314253
2096.000000	1.314192
2094.000000	1.314147
2092.000000	1.314137
2090.000000	1.314141
2088.000000	1.314164
2086.000000	1.314155
2084.000000	1.314131
2082.000000	1.313910
2080.000000	1.313813
2078.000000	1.313787
2076.000000	1.313721
2074.000000	1.313706
2072.000000	1.313795
2070.000000	1.313780
2068.000000	1.313698
2066.000000	1.313626
2064.000000	1.313625
2062.000000	1.313496
2060.000000	1.313365
2058.000000	1.313398
2056.000000	1.313458
2054.000000	1.313341
2052.000000	1.313307
2050.000000	1.313370
2048.000000	1.313395
2046.000000	1.313356
2044.000000	1.313291
2042.000000	1.313198
2040.000000	1.313247
2038.000000	1.313250
2036.000000	1.313124
2034.000000	1.313036
2032.000000	1.313086
2030.000000	1.313093
2028.000000	1.313094
2026.000000	1.312969
2024.000000	1.312847
2022.000000	1.312847
2020.000000	1.312785
2018.000000	1.312601
2016.000000	1.312670
2014.000000	1.312745
2012.000000	1.312749
2010.000000	1.312762
2008.000000	1.312752
2006.000000	1.312673
2004.000000	1.312672
2002.000000	1.312648
2000.000000	1.312620
1998.000000	1.312625
1996.000000	1.312575
1994.000000	1.312238
1992.000000	1.312126
1990.000000	1.312317
1988.000000	1.312390
1986.000000	1.312342
1984.000000	1.312264
1982.000000	1.312278
1980.000000	1.312338
1978.000000	1.312349
1976.000000	1.312315
1974.000000	1.312206
1972.000000	1.312134
1970.000000	1.312050
1968.000000	1.312007
1966.000000	1.312180
1964.000000	1.312283
1962.000000	1.312178
1960.000000	1.312106
1958.000000	1.312324
1956.000000	1.312406
1954.000000	1.312319
1952.000000	1.312231
1950.000000	1.312143
1948.000000	1.312185
1946.000000	1.311999
1944.000000	1.311655
1942.000000	1.311931
1940.000000	1.312418
1938.000000	1.312328
1936.000000	1.312255
1934.000000	1.312163
1932.000000	1.312170
1930.000000	1.312252
1928.000000	1.312340
1926.000000	1.312175
1924.000000	1.312026
1922.000000	1.312190
1920.000000	1.311706
1918.000000	1.311577
1916.000000	1.312549
1914.000000	1.312547
1912.000000	1.312218
1910.000000	1.312019
1908.000000	1.312179
1906.000000	1.312353
1904.000000	1.312479
1902.000000	1.312552
1900.000000	1.312636
1898.000000	1.312469
1896.000000	1.312397
1894.000000	1.312546
1892.000000	1.312314
1890.000000	1.311970
1888.000000	1.312589
1886.000000	1.312740
1884.000000	1.312661
1882.000000	1.312672
1880.000000	1.312640
1878.000000	1.312514
1876.000000	1.312574
1874.000000	1.312499
1872.000000	1.311807
1870.000000	1.310835
1868.000000	1.311761
1866.000000	1.312700
1864.000000	1.312676
1862.000000	1.312489
1860.000000	1.312556
1858.000000	1.312527
1856.000000	1.312496
1854.000000	1.312452
1852.000000	1.312530
1850.000000	1.312305
1848.000000	1.311702
1846.000000	1.309903
1844.000000	1.310270
1842.000000	1.312537
1840.000000	1.312721
1838.000000	1.312350
1836.000000	1.312421
1834.000000	1.312305
1832.000000	1.311245
1830.000000	1.311035
1828.000000	1.311955
1826.000000	1.311653
1824.000000	1.312308
1822.000000	1.312933
1820.000000	1.312883
1818.000000	1.312720
1816.000000	1.312733
1814.000000	1.312458
1812.000000	1.312149
1810.000000	1.312405
1808.000000	1.312822
1806.000000	1.312680
1804.000000	1.312170
1802.000000	1.311471
1800.000000	1.311822
1798.000000	1.312345
1796.000000	1.311751
1794.000000	1.309764
1792.000000	1.310403
1790.000000	1.312589
1788.000000	1.312636
1786.000000	1.311796
1784.000000	1.312003
1782.000000	1.312000
1780.000000	1.312255
1778.000000	1.312460
1776.000000	1.311157
1774.000000	1.308428
1772.000000	1.309209
1770.000000	1.311416
1768.000000	1.311947
1766.000000	1.312969
1764.000000	1.311678
1762.000000	1.311057
1760.000000	1.312166
1758.000000	1.311832
1756.000000	1.312277
1754.000000	1.311549
1752.000000	1.309477
1750.000000	1.310702
1748.000000	1.312089
1746.000000	1.312494
1744.000000	1.312247
1742.000000	1.311347
1740.000000	1.311204
1738.000000	1.311822
1736.000000	1.307466
1734.000000	1.307070
1732.000000	1.312682
1730.000000	1.313723
1728.000000	1.313813
1726.000000	1.313857
1724.000000	1.313877
1722.000000	1.313142
1720.000000	1.309149
1718.000000	1.306553
1716.000000	1.310650
1714.000000	1.313362
1712.000000	1.314067
1710.000000	1.313557
1708.000000	1.312657
1706.000000	1.311893
1704.000000	1.311722
1702.000000	1.306627
1700.000000	1.306974
1698.000000	1.308915
1696.000000	1.308622
1694.000000	1.314304
1692.000000	1.315134
1690.000000	1.314007
1688.000000	1.311872
1686.000000	1.306201
1684.000000	1.308462
1682.000000	1.314544
1680.000000	1.314730
1678.000000	1.313215
1676.000000	1.311366
1674.000000	1.313319
1672.000000	1.312749
1670.000000	1.311671
1668.000000	1.314333
1666.000000	1.315101
1664.000000	1.313312
1662.000000	1.314277
1660.000000	1.315702
1658.000000	1.314851
1656.000000	1.308807
1654.000000	1.302023
1652.000000	1.309673
1650.000000	1.315051
1648.000000	1.311043
1646.000000	1.312157
1644.000000	1.315946
1642.000000	1.316194
1640.000000	1.315017
1638.000000	1.311637
1636.000000	1.310163
1634.000000	1.314936
1632.000000	1.316583
1630.000000	1.315279
1628.000000	1.314867
1626.000000	1.314456
1624.000000	1.313650
1622.000000	1.315072
1620.000000	1.314354
1618.000000	1.310778
1616.000000	1.312996
1614.000000	1.316492
1612.000000	1.315929
1610.000000	1.316004
1608.000000	1.316602
1606.000000	1.317311
1604.000000	1.317577
1602.000000	1.317829
1600.000000	1.317806
1598.000000	1.317712
1596.000000	1.317491
1594.000000	1.317557
1592.000000	1.317512
1590.000000	1.317472
1588.000000	1.317332
1586.000000	1.317250
1584.000000	1.317434
1582.000000	1.317589
1580.000000	1.316563
1578.000000	1.312475
1576.000000	1.312788
1574.000000	1.317473
1572.000000	1.315833
1570.000000	1.314588
1568.000000	1.316484
1566.000000	1.316927
1564.000000	1.315973
1562.000000	1.310377
1560.000000	1.304259
1558.000000	1.310071
1556.000000	1.315031
1554.000000	1.315819
1552.000000	1.316944
1550.000000	1.317043
1548.000000	1.316914
1546.000000	1.315036
1544.000000	1.312592
1542.000000	1.308735
1540.000000	1.308554
1538.000000	1.315335
1536.000000	1.316638
1534.000000	1.314736
1532.000000	1.316562
1530.000000	1.316747
1528.000000	1.315240
1526.000000	1.314455
1524.000000	1.312809
1522.000000	1.310583
1520.000000	1.313433
1518.000000	1.314746
1516.000000	1.315466
1514.000000	1.316152
1512.000000	1.315502
1510.000000	1.313006
1508.000000	1.307772
1506.000000	1.309801
1504.000000	1.315584
1502.000000	1.314586
1500.000000	1.310955
1498.000000	1.308419
1496.000000	1.311406
1494.000000	1.317245
1492.000000	1.318423
1490.000000	1.318357
1488.000000	1.319140
1486.000000	1.319288
1484.000000	1.318899
1482.000000	1.318183
1480.000000	1.317781
1478.000000	1.316351
1476.000000	1.314438
1474.000000	1.312365
1472.000000	1.314117
1470.000000	1.317063
1468.000000	1.316447
1466.000000	1.314782
1464.000000	1.315721
1462.000000	1.316159
1460.000000	1.312322
1458.000000	1.307913
1456.000000	1.311189
1454.000000	1.315392
1452.000000	1.316224
1450.000000	1.317349
1448.000000	1.317915
1446.000000	1.318295
1444.000000	1.317642
1442.000000	1.317148
1440.000000	1.315804
1438.000000	1.313132
1436.000000	1.314478
1434.000000	1.316991
1432.000000	1.316205
1430.000000	1.316034
1428.000000	1.316601
1426.000000	1.316382
1424.000000	1.315942
1422.000000	1.314639
1420.000000	1.312499
1418.000000	1.314723
1416.000000	1.316436
1414.000000	1.316377
1412.000000	1.316055
1410.000000	1.315804
1408.000000	1.315238
1406.000000	1.314972
1404.000000	1.315919
1402.000000	1.316696
1400.000000	1.316258
1398.000000	1.316527
1396.000000	1.315811
1394.000000	1.316065
1392.000000	1.316651
1390.000000	1.315450
1388.000000	1.314434
1386.000000	1.315538
1384.000000	1.316545
1382.000000	1.316799
1380.000000	1.316564
1378.000000	1.316239
1376.000000	1.315493
1374.000000	1.315374
1372.000000	1.316001
1370.000000	1.316045
1368.000000	1.315860
1366.000000	1.315569
1364.000000	1.314831
1362.000000	1.315052
1360.000000	1.315708
1358.000000	1.315829
1356.000000	1.315623
1354.000000	1.315613
1352.000000	1.315587
1350.000000	1.315395
1348.000000	1.315271
1346.000000	1.315208
1344.000000	1.315053
1342.000000	1.314594
1340.000000	1.314291
1338.000000	1.314857
1336.000000	1.315250
1334.000000	1.315322
1332.000000	1.315217
1330.000000	1.315036
1328.000000	1.314781
1326.000000	1.314780
1324.000000	1.314778
1322.000000	1.314673
1320.000000	1.314392
1318.000000	1.314381
1316.000000	1.314424
1314.000000	1.314363
1312.000000	1.314312
1310.000000	1.314228
1308.000000	1.314115
1306.000000	1.314139
1304.000000	1.313966
1302.000000	1.313874
1300.000000	1.313887
1298.000000	1.313793
1296.000000	1.313675
1294.000000	1.313690
1292.000000	1.313644
1290.000000	1.313680
1288.000000	1.313566
1286.000000	1.313522
1284.000000	1.313572
1282.000000	1.313599
1280.000000	1.313588
1278.000000	1.313604
1276.000000	1.313554
1274.000000	1.313596
1272.000000	1.313688
1270.000000	1.314019
1268.000000	1.314563
1266.000000	1.315605
1264.000000	1.317632
1262.000000	1.320482
1260.000000	1.322771
1258.000000	1.323519
1256.000000	1.322389
1254.000000	1.320403
1252.000000	1.318571
1250.000000	1.317496
1248.000000	1.316976
1246.000000	1.316798
1244.000000	1.316904
1242.000000	1.317099
1240.000000	1.317227
1238.000000	1.317525
1236.000000	1.317727
1234.000000	1.317965
1232.000000	1.318394
1230.000000	1.318793
1228.000000	1.318922
1226.000000	1.319039
1224.000000	1.319366
1222.000000	1.319923
1220.000000	1.320222
1218.000000	1.320308
1216.000000	1.320285
1214.000000	1.320444
1212.000000	1.320728
1210.000000	1.321155
1208.000000	1.321512
1206.000000	1.321713
1204.000000	1.321847
1202.000000	1.322121
1200.000000	1.322455
1198.000000	1.322792
1196.000000	1.322991
1194.000000	1.323259
1192.000000	1.323813
1190.000000	1.324469
1188.000000	1.324671
1186.000000	1.324623
1184.000000	1.324281
1182.000000	1.324443
1180.000000	1.325805
1178.000000	1.326930
1176.000000	1.327049
1174.000000	1.327151
1172.000000	1.327153
1170.000000	1.327510
1168.000000	1.328073
1166.000000	1.328525
1164.000000	1.328764
1162.000000	1.329114
1160.000000	1.329787
1158.000000	1.330408
1156.000000	1.330582
1154.000000	1.330797
1152.000000	1.331312
1150.000000	1.331608
1148.000000	1.331613
1146.000000	1.331876
1144.000000	1.332475
1142.000000	1.333234
1140.000000	1.333709
1138.000000	1.333689
1136.000000	1.333521
1134.000000	1.333593
1132.000000	1.333856
1130.000000	1.334373
1128.000000	1.334714
1126.000000	1.335000
1124.000000	1.335118
1122.000000	1.335088
1120.000000	1.335296
1118.000000	1.335952
1116.000000	1.336179
1114.000000	1.336430
1112.000000	1.337080
1110.000000	1.337948
1108.000000	1.338441
1106.000000	1.339047
1104.000000	1.339604
1102.000000	1.340015
1100.000000	1.340064
1098.000000	1.340168
1096.000000	1.340914
1094.000000	1.341322
1092.000000	1.341046
1090.000000	1.341248
1088.000000	1.341584
1086.000000	1.341468
1084.000000	1.340589
1082.000000	1.340082
1080.000000	1.340375
1078.000000	1.340498
1076.000000	1.340175
1074.000000	1.339722
1072.000000	1.339194
1070.000000	1.338867
1068.000000	1.338539
1066.000000	1.337972
1064.000000	1.337553
1062.000000	1.337585
1060.000000	1.337080
1058.000000	1.335906
1056.000000	1.334409
1054.000000	1.333777
1052.000000	1.334106
1050.000000	1.335000
1048.000000	1.336018
1046.000000	1.336104
1044.000000	1.335255
1042.000000	1.334594
1040.000000	1.333714
1038.000000	1.332914
1036.000000	1.331915
1034.000000	1.331422
1032.000000	1.331489
1030.000000	1.331254
1028.000000	1.330241
1026.000000	1.330025
1024.000000	1.329243
1022.000000	1.328422
1020.000000	1.328387
1018.000000	1.328821
1016.000000	1.328353
1014.000000	1.327099
1012.000000	1.325865
1010.000000	1.323852
1008.000000	1.320981
1006.000000	1.319353
1004.000000	1.319319
1002.000000	1.320459
1000.000000	1.318696
