PE IR       SUBTECH     SPECTRUM    ASCII       PEDS        4.00        
   -1
TE110A_032_80K_AFTER_105K.ASC
20/05/14
12:47:47.00
20/05/14
12:47:47.00
Administrator
TE110A.Thursday, May 14 2020, 001.
1000.000000
#HDR
-1
-1
#GR
cm-1
A
1.0
0.0
6000.000000
-2.000000
2501
8
1.197747
1.147231
#DATA
6000.000000	1.174998
5998.000000	1.175346
5996.000000	1.175400
5994.000000	1.175062
5992.000000	1.175028
5990.000000	1.175375
5988.000000	1.175696
5986.000000	1.175595
5984.000000	1.174979
5982.000000	1.174325
5980.000000	1.174356
5978.000000	1.174872
5976.000000	1.175250
5974.000000	1.174536
5972.000000	1.173876
5970.000000	1.173795
5968.000000	1.174115
5966.000000	1.174592
5964.000000	1.174644
5962.000000	1.174695
5960.000000	1.174643
5958.000000	1.174630
5956.000000	1.174924
5954.000000	1.175169
5952.000000	1.175110
5950.000000	1.174733
5948.000000	1.174589
5946.000000	1.174620
5944.000000	1.174349
5942.000000	1.173769
5940.000000	1.173650
5938.000000	1.173682
5936.000000	1.173958
5934.000000	1.173964
5932.000000	1.173866
5930.000000	1.173940
5928.000000	1.174343
5926.000000	1.174841
5924.000000	1.175003
5922.000000	1.174528
5920.000000	1.174111
5918.000000	1.174138
5916.000000	1.174183
5914.000000	1.174032
5912.000000	1.173774
5910.000000	1.173747
5908.000000	1.173775
5906.000000	1.173841
5904.000000	1.173879
5902.000000	1.174049
5900.000000	1.174173
5898.000000	1.174012
5896.000000	1.173694
5894.000000	1.173450
5892.000000	1.173383
5890.000000	1.173073
5888.000000	1.172901
5886.000000	1.173061
5884.000000	1.173392
5882.000000	1.173562
5880.000000	1.173337
5878.000000	1.173105
5876.000000	1.173067
5874.000000	1.173199
5872.000000	1.173216
5870.000000	1.173188
5868.000000	1.173021
5866.000000	1.172903
5864.000000	1.172914
5862.000000	1.172736
5860.000000	1.172618
5858.000000	1.172613
5856.000000	1.172445
5854.000000	1.172379
5852.000000	1.172268
5850.000000	1.172319
5848.000000	1.172612
5846.000000	1.172606
5844.000000	1.172529
5842.000000	1.172573
5840.000000	1.172812
5838.000000	1.173115
5836.000000	1.172947
5834.000000	1.172819
5832.000000	1.172955
5830.000000	1.173225
5828.000000	1.173123
5826.000000	1.172888
5824.000000	1.172670
5822.000000	1.172878
5820.000000	1.173314
5818.000000	1.173619
5816.000000	1.173605
5814.000000	1.173032
5812.000000	1.172754
5810.000000	1.172962
5808.000000	1.173332
5806.000000	1.173468
5804.000000	1.173123
5802.000000	1.172920
5800.000000	1.172854
5798.000000	1.172837
5796.000000	1.172864
5794.000000	1.172883
5792.000000	1.172816
5790.000000	1.172621
5788.000000	1.172351
5786.000000	1.172286
5784.000000	1.172258
5782.000000	1.172061
5780.000000	1.171849
5778.000000	1.171833
5776.000000	1.172031
5774.000000	1.172181
5772.000000	1.172095
5770.000000	1.172100
5768.000000	1.172296
5766.000000	1.172642
5764.000000	1.172575
5762.000000	1.172233
5760.000000	1.171959
5758.000000	1.171815
5756.000000	1.171876
5754.000000	1.171704
5752.000000	1.171714
5750.000000	1.171943
5748.000000	1.172220
5746.000000	1.172211
5744.000000	1.171796
5742.000000	1.171341
5740.000000	1.171087
5738.000000	1.171181
5736.000000	1.171426
5734.000000	1.171759
5732.000000	1.171865
5730.000000	1.171717
5728.000000	1.171509
5726.000000	1.171444
5724.000000	1.171772
5722.000000	1.171899
5720.000000	1.171705
5718.000000	1.171671
5716.000000	1.171743
5714.000000	1.171580
5712.000000	1.171023
5710.000000	1.170874
5708.000000	1.171352
5706.000000	1.171674
5704.000000	1.171813
5702.000000	1.171904
5700.000000	1.171947
5698.000000	1.171636
5696.000000	1.171286
5694.000000	1.171189
5692.000000	1.171157
5690.000000	1.170972
5688.000000	1.171110
5686.000000	1.171360
5684.000000	1.171540
5682.000000	1.171401
5680.000000	1.171223
5678.000000	1.171388
5676.000000	1.171485
5674.000000	1.171177
5672.000000	1.170725
5670.000000	1.170537
5668.000000	1.170893
5666.000000	1.171135
5664.000000	1.171092
5662.000000	1.171008
5660.000000	1.171071
5658.000000	1.171053
5656.000000	1.170678
5654.000000	1.170376
5652.000000	1.170414
5650.000000	1.170596
5648.000000	1.170796
5646.000000	1.170933
5644.000000	1.171097
5642.000000	1.171069
5640.000000	1.170764
5638.000000	1.170289
5636.000000	1.169979
5634.000000	1.169917
5632.000000	1.170125
5630.000000	1.170259
5628.000000	1.170352
5626.000000	1.170510
5624.000000	1.170520
5622.000000	1.170393
5620.000000	1.170289
5618.000000	1.170333
5616.000000	1.170254
5614.000000	1.170095
5612.000000	1.170156
5610.000000	1.170461
5608.000000	1.170678
5606.000000	1.170505
5604.000000	1.170429
5602.000000	1.170501
5600.000000	1.170379
5598.000000	1.169995
5596.000000	1.169862
5594.000000	1.170194
5592.000000	1.170440
5590.000000	1.170339
5588.000000	1.170279
5586.000000	1.170155
5584.000000	1.169853
5582.000000	1.169467
5580.000000	1.169567
5578.000000	1.169775
5576.000000	1.169739
5574.000000	1.169550
5572.000000	1.169623
5570.000000	1.169857
5568.000000	1.169859
5566.000000	1.169699
5564.000000	1.169808
5562.000000	1.170091
5560.000000	1.170266
5558.000000	1.170164
5556.000000	1.169716
5554.000000	1.169430
5552.000000	1.169461
5550.000000	1.169688
5548.000000	1.169873
5546.000000	1.169874
5544.000000	1.169849
5542.000000	1.169589
5540.000000	1.169211
5538.000000	1.169112
5536.000000	1.169269
5534.000000	1.169512
5532.000000	1.169582
5530.000000	1.169570
5528.000000	1.169455
5526.000000	1.169257
5524.000000	1.169126
5522.000000	1.169152
5520.000000	1.169397
5518.000000	1.169489
5516.000000	1.169479
5514.000000	1.169416
5512.000000	1.169444
5510.000000	1.169356
5508.000000	1.169189
5506.000000	1.169070
5504.000000	1.169225
5502.000000	1.169521
5500.000000	1.169758
5498.000000	1.169675
5496.000000	1.169382
5494.000000	1.169141
5492.000000	1.168875
5490.000000	1.168812
5488.000000	1.168825
5486.000000	1.168761
5484.000000	1.168613
5482.000000	1.168539
5480.000000	1.168605
5478.000000	1.168601
5476.000000	1.168546
5474.000000	1.168573
5472.000000	1.168668
5470.000000	1.168515
5468.000000	1.168519
5466.000000	1.168527
5464.000000	1.168662
5462.000000	1.168610
5460.000000	1.168473
5458.000000	1.168689
5456.000000	1.168963
5454.000000	1.168851
5452.000000	1.168372
5450.000000	1.167924
5448.000000	1.167758
5446.000000	1.167619
5444.000000	1.167651
5442.000000	1.168102
5440.000000	1.168519
5438.000000	1.168512
5436.000000	1.168235
5434.000000	1.168207
5432.000000	1.168193
5430.000000	1.168022
5428.000000	1.168213
5426.000000	1.168684
5424.000000	1.169013
5422.000000	1.168782
5420.000000	1.168356
5418.000000	1.167706
5416.000000	1.167201
5414.000000	1.167168
5412.000000	1.167488
5410.000000	1.167750
5408.000000	1.167890
5406.000000	1.168008
5404.000000	1.168160
5402.000000	1.168286
5400.000000	1.168483
5398.000000	1.168303
5396.000000	1.167836
5394.000000	1.167667
5392.000000	1.167732
5390.000000	1.167730
5388.000000	1.167457
5386.000000	1.167440
5384.000000	1.167639
5382.000000	1.167660
5380.000000	1.167558
5378.000000	1.167426
5376.000000	1.167372
5374.000000	1.167570
5372.000000	1.167851
5370.000000	1.167856
5368.000000	1.167516
5366.000000	1.167427
5364.000000	1.167729
5362.000000	1.167979
5360.000000	1.167992
5358.000000	1.167869
5356.000000	1.167761
5354.000000	1.167687
5352.000000	1.167784
5350.000000	1.167773
5348.000000	1.167225
5346.000000	1.166747
5344.000000	1.166970
5342.000000	1.167214
5340.000000	1.166859
5338.000000	1.166561
5336.000000	1.166965
5334.000000	1.167459
5332.000000	1.167239
5330.000000	1.166811
5328.000000	1.166866
5326.000000	1.167354
5324.000000	1.167809
5322.000000	1.167749
5320.000000	1.167355
5318.000000	1.167047
5316.000000	1.167100
5314.000000	1.167207
5312.000000	1.167179
5310.000000	1.167049
5308.000000	1.167216
5306.000000	1.167514
5304.000000	1.167538
5302.000000	1.167393
5300.000000	1.167169
5298.000000	1.166955
5296.000000	1.166780
5294.000000	1.166733
5292.000000	1.166804
5290.000000	1.166940
5288.000000	1.167066
5286.000000	1.167205
5284.000000	1.167162
5282.000000	1.167163
5280.000000	1.167111
5278.000000	1.166966
5276.000000	1.166701
5274.000000	1.166534
5272.000000	1.166425
5270.000000	1.166457
5268.000000	1.166475
5266.000000	1.166471
5264.000000	1.166475
5262.000000	1.166518
5260.000000	1.166559
5258.000000	1.166328
5256.000000	1.166329
5254.000000	1.166559
5252.000000	1.166603
5250.000000	1.166324
5248.000000	1.166309
5246.000000	1.166587
5244.000000	1.166735
5242.000000	1.166725
5240.000000	1.166644
5238.000000	1.166376
5236.000000	1.166252
5234.000000	1.166428
5232.000000	1.166628
5230.000000	1.166544
5228.000000	1.166307
5226.000000	1.166229
5224.000000	1.166336
5222.000000	1.166570
5220.000000	1.166666
5218.000000	1.166536
5216.000000	1.166479
5214.000000	1.166491
5212.000000	1.166363
5210.000000	1.165998
5208.000000	1.165824
5206.000000	1.166165
5204.000000	1.166549
5202.000000	1.166610
5200.000000	1.166395
5198.000000	1.166405
5196.000000	1.166514
5194.000000	1.166475
5192.000000	1.166348
5190.000000	1.166580
5188.000000	1.166847
5186.000000	1.166747
5184.000000	1.166351
5182.000000	1.166077
5180.000000	1.166007
5178.000000	1.166048
5176.000000	1.166096
5174.000000	1.166004
5172.000000	1.166006
5170.000000	1.166081
5168.000000	1.166179
5166.000000	1.166323
5164.000000	1.166505
5162.000000	1.166586
5160.000000	1.166408
5158.000000	1.166258
5156.000000	1.166286
5154.000000	1.166485
5152.000000	1.166567
5150.000000	1.166417
5148.000000	1.166332
5146.000000	1.166378
5144.000000	1.166393
5142.000000	1.166390
5140.000000	1.166474
5138.000000	1.166471
5136.000000	1.166283
5134.000000	1.166062
5132.000000	1.166091
5130.000000	1.166175
5128.000000	1.166325
5126.000000	1.166332
5124.000000	1.166144
5122.000000	1.165940
5120.000000	1.165979
5118.000000	1.166117
5116.000000	1.166219
5114.000000	1.166218
5112.000000	1.166286
5110.000000	1.166253
5108.000000	1.166196
5106.000000	1.166214
5104.000000	1.166235
5102.000000	1.166200
5100.000000	1.166144
5098.000000	1.166139
5096.000000	1.166146
5094.000000	1.166158
5092.000000	1.166277
5090.000000	1.166315
5088.000000	1.166295
5086.000000	1.166288
5084.000000	1.166250
5082.000000	1.166091
5080.000000	1.166002
5078.000000	1.165985
5076.000000	1.165928
5074.000000	1.165871
5072.000000	1.165805
5070.000000	1.165723
5068.000000	1.165709
5066.000000	1.165883
5064.000000	1.166138
5062.000000	1.166225
5060.000000	1.166118
5058.000000	1.165941
5056.000000	1.165909
5054.000000	1.166074
5052.000000	1.166165
5050.000000	1.166052
5048.000000	1.165939
5046.000000	1.165974
5044.000000	1.166062
5042.000000	1.166113
5040.000000	1.166168
5038.000000	1.166069
5036.000000	1.165774
5034.000000	1.165622
5032.000000	1.165730
5030.000000	1.165951
5028.000000	1.166045
5026.000000	1.166126
5024.000000	1.166136
5022.000000	1.165918
5020.000000	1.165702
5018.000000	1.165841
5016.000000	1.166248
5014.000000	1.166451
5012.000000	1.166413
5010.000000	1.166162
5008.000000	1.165876
5006.000000	1.165819
5004.000000	1.165921
5002.000000	1.165932
5000.000000	1.165944
4998.000000	1.166048
4996.000000	1.166041
4994.000000	1.165973
4992.000000	1.166084
4990.000000	1.166160
4988.000000	1.166046
4986.000000	1.165866
4984.000000	1.165834
4982.000000	1.165818
4980.000000	1.165836
4978.000000	1.165952
4976.000000	1.166123
4974.000000	1.166099
4972.000000	1.165973
4970.000000	1.165913
4968.000000	1.165946
4966.000000	1.165973
4964.000000	1.165999
4962.000000	1.166044
4960.000000	1.166151
4958.000000	1.166199
4956.000000	1.166084
4954.000000	1.166012
4952.000000	1.166163
4950.000000	1.166268
4948.000000	1.166206
4946.000000	1.166141
4944.000000	1.166155
4942.000000	1.166171
4940.000000	1.166203
4938.000000	1.166210
4936.000000	1.166161
4934.000000	1.166039
4932.000000	1.165948
4930.000000	1.165965
4928.000000	1.166096
4926.000000	1.166140
4924.000000	1.166115
4922.000000	1.166041
4920.000000	1.165904
4918.000000	1.165857
4916.000000	1.165894
4914.000000	1.165902
4912.000000	1.165865
4910.000000	1.165848
4908.000000	1.165790
4906.000000	1.165818
4904.000000	1.165952
4902.000000	1.165889
4900.000000	1.165697
4898.000000	1.165665
4896.000000	1.165826
4894.000000	1.165983
4892.000000	1.166205
4890.000000	1.166386
4888.000000	1.166396
4886.000000	1.166273
4884.000000	1.166170
4882.000000	1.166071
4880.000000	1.165929
4878.000000	1.165777
4876.000000	1.165778
4874.000000	1.165989
4872.000000	1.166127
4870.000000	1.166137
4868.000000	1.166161
4866.000000	1.166238
4864.000000	1.166163
4862.000000	1.166051
4860.000000	1.166013
4858.000000	1.166066
4856.000000	1.166138
4854.000000	1.166218
4852.000000	1.166262
4850.000000	1.166262
4848.000000	1.166296
4846.000000	1.166387
4844.000000	1.166390
4842.000000	1.166208
4840.000000	1.166028
4838.000000	1.165988
4836.000000	1.166069
4834.000000	1.166120
4832.000000	1.166131
4830.000000	1.166128
4828.000000	1.166163
4826.000000	1.166220
4824.000000	1.166258
4822.000000	1.166213
4820.000000	1.166076
4818.000000	1.166003
4816.000000	1.166058
4814.000000	1.166042
4812.000000	1.166003
4810.000000	1.165991
4808.000000	1.165976
4806.000000	1.165929
4804.000000	1.165959
4802.000000	1.165982
4800.000000	1.165984
4798.000000	1.165940
4796.000000	1.165852
4794.000000	1.165850
4792.000000	1.165905
4790.000000	1.165805
4788.000000	1.165627
4786.000000	1.165629
4784.000000	1.165751
4782.000000	1.166028
4780.000000	1.166353
4778.000000	1.166399
4776.000000	1.166093
4774.000000	1.165892
4772.000000	1.165983
4770.000000	1.166117
4768.000000	1.166043
4766.000000	1.165848
4764.000000	1.165796
4762.000000	1.165875
4760.000000	1.165869
4758.000000	1.165833
4756.000000	1.165940
4754.000000	1.165981
4752.000000	1.165884
4750.000000	1.165899
4748.000000	1.166082
4746.000000	1.166054
4744.000000	1.165847
4742.000000	1.165821
4740.000000	1.166023
4738.000000	1.166075
4736.000000	1.165947
4734.000000	1.165902
4732.000000	1.166062
4730.000000	1.166136
4728.000000	1.166015
4726.000000	1.165840
4724.000000	1.165779
4722.000000	1.165798
4720.000000	1.165788
4718.000000	1.165790
4716.000000	1.165810
4714.000000	1.165783
4712.000000	1.165729
4710.000000	1.165771
4708.000000	1.165878
4706.000000	1.165882
4704.000000	1.165753
4702.000000	1.165662
4700.000000	1.165693
4698.000000	1.165726
4696.000000	1.165714
4694.000000	1.165668
4692.000000	1.165596
4690.000000	1.165621
4688.000000	1.165611
4686.000000	1.165532
4684.000000	1.165555
4682.000000	1.165775
4680.000000	1.165980
4678.000000	1.166078
4676.000000	1.166040
4674.000000	1.165841
4672.000000	1.165589
4670.000000	1.165592
4668.000000	1.165841
4666.000000	1.165968
4664.000000	1.166000
4662.000000	1.165999
4660.000000	1.165868
4658.000000	1.165739
4656.000000	1.165836
4654.000000	1.165913
4652.000000	1.165885
4650.000000	1.165828
4648.000000	1.165841
4646.000000	1.165908
4644.000000	1.165999
4642.000000	1.166096
4640.000000	1.166092
4638.000000	1.165916
4636.000000	1.165726
4634.000000	1.165601
4632.000000	1.165522
4630.000000	1.165482
4628.000000	1.165556
4626.000000	1.165705
4624.000000	1.165831
4622.000000	1.165781
4620.000000	1.165661
4618.000000	1.165743
4616.000000	1.165863
4614.000000	1.165797
4612.000000	1.165691
4610.000000	1.165776
4608.000000	1.165803
4606.000000	1.165727
4604.000000	1.165675
4602.000000	1.165783
4600.000000	1.165896
4598.000000	1.165872
4596.000000	1.165773
4594.000000	1.165793
4592.000000	1.165819
4590.000000	1.165726
4588.000000	1.165633
4586.000000	1.165676
4584.000000	1.165814
4582.000000	1.165878
4580.000000	1.165809
4578.000000	1.165681
4576.000000	1.165629
4574.000000	1.165685
4572.000000	1.165784
4570.000000	1.165864
4568.000000	1.165881
4566.000000	1.165870
4564.000000	1.165883
4562.000000	1.165960
4560.000000	1.165984
4558.000000	1.165904
4556.000000	1.165820
4554.000000	1.165893
4552.000000	1.165974
4550.000000	1.165907
4548.000000	1.165817
4546.000000	1.165830
4544.000000	1.165848
4542.000000	1.165786
4540.000000	1.165781
4538.000000	1.165922
4536.000000	1.166018
4534.000000	1.165874
4532.000000	1.165694
4530.000000	1.165690
4528.000000	1.165785
4526.000000	1.165826
4524.000000	1.165803
4522.000000	1.165808
4520.000000	1.165810
4518.000000	1.165688
4516.000000	1.165530
4514.000000	1.165501
4512.000000	1.165510
4510.000000	1.165538
4508.000000	1.165685
4506.000000	1.165892
4504.000000	1.165944
4502.000000	1.165798
4500.000000	1.165725
4498.000000	1.165831
4496.000000	1.165877
4494.000000	1.165858
4492.000000	1.165864
4490.000000	1.165814
4488.000000	1.165815
4486.000000	1.165942
4484.000000	1.165937
4482.000000	1.165735
4480.000000	1.165652
4478.000000	1.165803
4476.000000	1.165886
4474.000000	1.165766
4472.000000	1.165639
4470.000000	1.165582
4468.000000	1.165648
4466.000000	1.165817
4464.000000	1.165874
4462.000000	1.165804
4460.000000	1.165833
4458.000000	1.165895
4456.000000	1.165855
4454.000000	1.165794
4452.000000	1.165777
4450.000000	1.165825
4448.000000	1.165946
4446.000000	1.165997
4444.000000	1.165970
4442.000000	1.165936
4440.000000	1.165865
4438.000000	1.165822
4436.000000	1.165849
4434.000000	1.165771
4432.000000	1.165654
4430.000000	1.165729
4428.000000	1.165833
4426.000000	1.165730
4424.000000	1.165577
4422.000000	1.165545
4420.000000	1.165564
4418.000000	1.165596
4416.000000	1.165675
4414.000000	1.165727
4412.000000	1.165726
4410.000000	1.165656
4408.000000	1.165526
4406.000000	1.165506
4404.000000	1.165649
4402.000000	1.165740
4400.000000	1.165709
4398.000000	1.165615
4396.000000	1.165531
4394.000000	1.165516
4392.000000	1.165560
4390.000000	1.165568
4388.000000	1.165531
4386.000000	1.165558
4384.000000	1.165661
4382.000000	1.165736
4380.000000	1.165778
4378.000000	1.165843
4376.000000	1.165922
4374.000000	1.165872
4372.000000	1.165703
4370.000000	1.165621
4368.000000	1.165619
4366.000000	1.165668
4364.000000	1.165809
4362.000000	1.165883
4360.000000	1.165812
4358.000000	1.165698
4356.000000	1.165585
4354.000000	1.165583
4352.000000	1.165619
4350.000000	1.165594
4348.000000	1.165624
4346.000000	1.165649
4344.000000	1.165526
4342.000000	1.165464
4340.000000	1.165461
4338.000000	1.165444
4336.000000	1.165506
4334.000000	1.165521
4332.000000	1.165370
4330.000000	1.165270
4328.000000	1.165308
4326.000000	1.165377
4324.000000	1.165416
4322.000000	1.165511
4320.000000	1.165569
4318.000000	1.165395
4316.000000	1.165185
4314.000000	1.165174
4312.000000	1.165244
4310.000000	1.165273
4308.000000	1.165299
4306.000000	1.165353
4304.000000	1.165343
4302.000000	1.165212
4300.000000	1.165129
4298.000000	1.165141
4296.000000	1.165186
4294.000000	1.165255
4292.000000	1.165304
4290.000000	1.165243
4288.000000	1.165145
4286.000000	1.165169
4284.000000	1.165263
4282.000000	1.165247
4280.000000	1.165262
4278.000000	1.165377
4276.000000	1.165380
4274.000000	1.165280
4272.000000	1.165254
4270.000000	1.165283
4268.000000	1.165271
4266.000000	1.165186
4264.000000	1.165096
4262.000000	1.165154
4260.000000	1.165233
4258.000000	1.165173
4256.000000	1.165122
4254.000000	1.165201
4252.000000	1.165176
4250.000000	1.165086
4248.000000	1.165084
4246.000000	1.165049
4244.000000	1.164967
4242.000000	1.165067
4240.000000	1.165139
4238.000000	1.164963
4236.000000	1.164843
4234.000000	1.164911
4232.000000	1.164940
4230.000000	1.165007
4228.000000	1.165131
4226.000000	1.165081
4224.000000	1.164865
4222.000000	1.164669
4220.000000	1.164648
4218.000000	1.164765
4216.000000	1.164824
4214.000000	1.164788
4212.000000	1.164699
4210.000000	1.164651
4208.000000	1.164782
4206.000000	1.164913
4204.000000	1.164802
4202.000000	1.164620
4200.000000	1.164570
4198.000000	1.164618
4196.000000	1.164648
4194.000000	1.164637
4192.000000	1.164624
4190.000000	1.164583
4188.000000	1.164539
4186.000000	1.164620
4184.000000	1.164689
4182.000000	1.164623
4180.000000	1.164555
4178.000000	1.164559
4176.000000	1.164567
4174.000000	1.164615
4172.000000	1.164696
4170.000000	1.164678
4168.000000	1.164593
4166.000000	1.164544
4164.000000	1.164531
4162.000000	1.164597
4160.000000	1.164572
4158.000000	1.164430
4156.000000	1.164425
4154.000000	1.164409
4152.000000	1.164220
4150.000000	1.164115
4148.000000	1.164194
4146.000000	1.164229
4144.000000	1.164068
4142.000000	1.163960
4140.000000	1.164020
4138.000000	1.164023
4136.000000	1.163895
4134.000000	1.163821
4132.000000	1.163840
4130.000000	1.163911
4128.000000	1.163956
4126.000000	1.163956
4124.000000	1.163911
4122.000000	1.163876
4120.000000	1.163834
4118.000000	1.163724
4116.000000	1.163599
4114.000000	1.163633
4112.000000	1.163677
4110.000000	1.163579
4108.000000	1.163463
4106.000000	1.163453
4104.000000	1.163480
4102.000000	1.163541
4100.000000	1.163636
4098.000000	1.163658
4096.000000	1.163558
4094.000000	1.163532
4092.000000	1.163626
4090.000000	1.163675
4088.000000	1.163653
4086.000000	1.163664
4084.000000	1.163640
4082.000000	1.163533
4080.000000	1.163392
4078.000000	1.163307
4076.000000	1.163371
4074.000000	1.163484
4072.000000	1.163446
4070.000000	1.163336
4068.000000	1.163280
4066.000000	1.163324
4064.000000	1.163348
4062.000000	1.163245
4060.000000	1.163154
4058.000000	1.163188
4056.000000	1.163206
4054.000000	1.163119
4052.000000	1.162987
4050.000000	1.162956
4048.000000	1.162976
4046.000000	1.162965
4044.000000	1.162977
4042.000000	1.162967
4040.000000	1.162876
4038.000000	1.162775
4036.000000	1.162668
4034.000000	1.162600
4032.000000	1.162565
4030.000000	1.162539
4028.000000	1.162507
4026.000000	1.162481
4024.000000	1.162482
4022.000000	1.162526
4020.000000	1.162589
4018.000000	1.162604
4016.000000	1.162577
4014.000000	1.162558
4012.000000	1.162443
4010.000000	1.162328
4008.000000	1.162356
4006.000000	1.162369
4004.000000	1.162279
4002.000000	1.162191
4000.000000	1.162143
3998.000000	1.162055
3996.000000	1.161946
3994.000000	1.161972
3992.000000	1.162067
3990.000000	1.162213
3988.000000	1.162342
3986.000000	1.162279
3984.000000	1.162137
3982.000000	1.162061
3980.000000	1.161964
3978.000000	1.161897
3976.000000	1.161919
3974.000000	1.161881
3972.000000	1.161787
3970.000000	1.161806
3968.000000	1.161851
3966.000000	1.161750
3964.000000	1.161549
3962.000000	1.161477
3960.000000	1.161529
3958.000000	1.161578
3956.000000	1.161549
3954.000000	1.161356
3952.000000	1.161091
3950.000000	1.160986
3948.000000	1.161096
3946.000000	1.161057
3944.000000	1.160836
3942.000000	1.161075
3940.000000	1.161410
3938.000000	1.161207
3936.000000	1.160699
3934.000000	1.160218
3932.000000	1.160263
3930.000000	1.160755
3928.000000	1.160787
3926.000000	1.160470
3924.000000	1.160494
3922.000000	1.160335
3920.000000	1.159702
3918.000000	1.159756
3916.000000	1.160657
3914.000000	1.161087
3912.000000	1.160867
3910.000000	1.160497
3908.000000	1.159347
3906.000000	1.157606
3904.000000	1.157026
3902.000000	1.157858
3900.000000	1.159253
3898.000000	1.160644
3896.000000	1.160581
3894.000000	1.158877
3892.000000	1.158316
3890.000000	1.159236
3888.000000	1.158366
3886.000000	1.157706
3884.000000	1.159122
3882.000000	1.159271
3880.000000	1.159269
3878.000000	1.159890
3876.000000	1.159077
3874.000000	1.157713
3872.000000	1.156290
3870.000000	1.156728
3868.000000	1.158509
3866.000000	1.158305
3864.000000	1.158378
3862.000000	1.159635
3860.000000	1.159506
3858.000000	1.155861
3856.000000	1.149548
3854.000000	1.149638
3852.000000	1.157915
3850.000000	1.162555
3848.000000	1.160866
3846.000000	1.158562
3844.000000	1.157519
3842.000000	1.156280
3840.000000	1.154076
3838.000000	1.154642
3836.000000	1.158058
3834.000000	1.159161
3832.000000	1.158713
3830.000000	1.158977
3828.000000	1.158800
3826.000000	1.158037
3824.000000	1.156031
3822.000000	1.154996
3820.000000	1.156363
3818.000000	1.155724
3816.000000	1.156217
3814.000000	1.159884
3812.000000	1.160145
3810.000000	1.156914
3808.000000	1.155232
3806.000000	1.156371
3804.000000	1.155421
3802.000000	1.154484
3800.000000	1.157739
3798.000000	1.159252
3796.000000	1.158653
3794.000000	1.159032
3792.000000	1.159028
3790.000000	1.158698
3788.000000	1.158385
3786.000000	1.158126
3784.000000	1.158137
3782.000000	1.157751
3780.000000	1.157534
3778.000000	1.158364
3776.000000	1.158794
3774.000000	1.157954
3772.000000	1.156566
3770.000000	1.156421
3768.000000	1.157341
3766.000000	1.157773
3764.000000	1.157790
3762.000000	1.156903
3760.000000	1.156202
3758.000000	1.156692
3756.000000	1.155347
3754.000000	1.151230
3752.000000	1.149460
3750.000000	1.152548
3748.000000	1.153532
3746.000000	1.150327
3744.000000	1.152968
3742.000000	1.158425
3740.000000	1.156651
3738.000000	1.152670
3736.000000	1.152365
3734.000000	1.154065
3732.000000	1.155960
3730.000000	1.157197
3728.000000	1.156329
3726.000000	1.155508
3724.000000	1.155774
3722.000000	1.156044
3720.000000	1.156381
3718.000000	1.156375
3716.000000	1.154989
3714.000000	1.152598
3712.000000	1.152704
3710.000000	1.155550
3708.000000	1.157257
3706.000000	1.156723
3704.000000	1.155325
3702.000000	1.155063
3700.000000	1.156092
3698.000000	1.156446
3696.000000	1.155889
3694.000000	1.154542
3692.000000	1.152017
3690.000000	1.150573
3688.000000	1.153523
3686.000000	1.157053
3684.000000	1.156579
3682.000000	1.154824
3680.000000	1.152861
3678.000000	1.149619
3676.000000	1.149398
3674.000000	1.152227
3672.000000	1.151632
3670.000000	1.151989
3668.000000	1.155225
3666.000000	1.155846
3664.000000	1.154875
3662.000000	1.154300
3660.000000	1.153221
3658.000000	1.151756
3656.000000	1.152277
3654.000000	1.152435
3652.000000	1.149154
3650.000000	1.147858
3648.000000	1.151354
3646.000000	1.154385
3644.000000	1.154365
3642.000000	1.153500
3640.000000	1.153139
3638.000000	1.152849
3636.000000	1.152338
3634.000000	1.151492
3632.000000	1.148951
3630.000000	1.147231
3628.000000	1.150708
3626.000000	1.153884
3624.000000	1.152641
3622.000000	1.150163
3620.000000	1.149368
3618.000000	1.150770
3616.000000	1.151258
3614.000000	1.150261
3612.000000	1.149652
3610.000000	1.149642
3608.000000	1.150769
3606.000000	1.151952
3604.000000	1.151710
3602.000000	1.151062
3600.000000	1.150832
3598.000000	1.150583
3596.000000	1.150287
3594.000000	1.150583
3592.000000	1.150402
3590.000000	1.149032
3588.000000	1.148911
3586.000000	1.150589
3584.000000	1.151350
3582.000000	1.150857
3580.000000	1.150500
3578.000000	1.150464
3576.000000	1.150577
3574.000000	1.150644
3572.000000	1.150089
3570.000000	1.148784
3568.000000	1.148306
3566.000000	1.149601
3564.000000	1.150676
3562.000000	1.150649
3560.000000	1.150507
3558.000000	1.150509
3556.000000	1.150335
3554.000000	1.150115
3552.000000	1.150201
3550.000000	1.150137
3548.000000	1.149775
3546.000000	1.149887
3544.000000	1.150468
3542.000000	1.150812
3540.000000	1.150669
3538.000000	1.150462
3536.000000	1.150540
3534.000000	1.150692
3532.000000	1.150625
3530.000000	1.150502
3528.000000	1.150513
3526.000000	1.150596
3524.000000	1.150751
3522.000000	1.151129
3520.000000	1.151376
3518.000000	1.151418
3516.000000	1.151540
3514.000000	1.151614
3512.000000	1.151577
3510.000000	1.151713
3508.000000	1.151982
3506.000000	1.151968
3504.000000	1.151989
3502.000000	1.152396
3500.000000	1.152702
3498.000000	1.152744
3496.000000	1.152839
3494.000000	1.153105
3492.000000	1.153396
3490.000000	1.153546
3488.000000	1.153663
3486.000000	1.153893
3484.000000	1.154098
3482.000000	1.154370
3480.000000	1.154771
3478.000000	1.155146
3476.000000	1.155418
3474.000000	1.155665
3472.000000	1.155932
3470.000000	1.156219
3468.000000	1.156500
3466.000000	1.156881
3464.000000	1.157332
3462.000000	1.157662
3460.000000	1.157863
3458.000000	1.158155
3456.000000	1.158599
3454.000000	1.159014
3452.000000	1.159374
3450.000000	1.159583
3448.000000	1.159802
3446.000000	1.160305
3444.000000	1.160813
3442.000000	1.161280
3440.000000	1.161787
3438.000000	1.162178
3436.000000	1.162507
3434.000000	1.162966
3432.000000	1.163461
3430.000000	1.163892
3428.000000	1.164317
3426.000000	1.164640
3424.000000	1.164933
3422.000000	1.165183
3420.000000	1.165449
3418.000000	1.165875
3416.000000	1.166255
3414.000000	1.166459
3412.000000	1.166622
3410.000000	1.166904
3408.000000	1.167190
3406.000000	1.167409
3404.000000	1.167587
3402.000000	1.167725
3400.000000	1.167951
3398.000000	1.168246
3396.000000	1.168483
3394.000000	1.168623
3392.000000	1.168825
3390.000000	1.169065
3388.000000	1.169172
3386.000000	1.169278
3384.000000	1.169419
3382.000000	1.169527
3380.000000	1.169672
3378.000000	1.169876
3376.000000	1.169989
3374.000000	1.170017
3372.000000	1.170099
3370.000000	1.170163
3368.000000	1.170232
3366.000000	1.170430
3364.000000	1.170614
3362.000000	1.170670
3360.000000	1.170688
3358.000000	1.170841
3356.000000	1.171022
3354.000000	1.171096
3352.000000	1.171098
3350.000000	1.171172
3348.000000	1.171302
3346.000000	1.171290
3344.000000	1.171248
3342.000000	1.171340
3340.000000	1.171483
3338.000000	1.171604
3336.000000	1.171712
3334.000000	1.171831
3332.000000	1.171985
3330.000000	1.171995
3328.000000	1.171829
3326.000000	1.171799
3324.000000	1.171907
3322.000000	1.171936
3320.000000	1.172051
3318.000000	1.172304
3316.000000	1.172441
3314.000000	1.172458
3312.000000	1.172478
3310.000000	1.172430
3308.000000	1.172304
3306.000000	1.172341
3304.000000	1.172627
3302.000000	1.172827
3300.000000	1.172779
3298.000000	1.172732
3296.000000	1.172816
3294.000000	1.172891
3292.000000	1.172887
3290.000000	1.172923
3288.000000	1.173055
3286.000000	1.173140
3284.000000	1.173130
3282.000000	1.173102
3280.000000	1.173127
3278.000000	1.173208
3276.000000	1.173315
3274.000000	1.173396
3272.000000	1.173422
3270.000000	1.173436
3268.000000	1.173497
3266.000000	1.173585
3264.000000	1.173632
3262.000000	1.173691
3260.000000	1.173709
3258.000000	1.173709
3256.000000	1.173850
3254.000000	1.174066
3252.000000	1.174137
3250.000000	1.173999
3248.000000	1.173873
3246.000000	1.173920
3244.000000	1.174033
3242.000000	1.174128
3240.000000	1.174201
3238.000000	1.174164
3236.000000	1.174117
3234.000000	1.174189
3232.000000	1.174346
3230.000000	1.174440
3228.000000	1.174465
3226.000000	1.174506
3224.000000	1.174590
3222.000000	1.174681
3220.000000	1.174696
3218.000000	1.174752
3216.000000	1.174821
3214.000000	1.174838
3212.000000	1.174903
3210.000000	1.174930
3208.000000	1.174963
3206.000000	1.174949
3204.000000	1.174908
3202.000000	1.174977
3200.000000	1.175008
3198.000000	1.175015
3196.000000	1.175079
3194.000000	1.175056
3192.000000	1.175018
3190.000000	1.175118
3188.000000	1.175225
3186.000000	1.175195
3184.000000	1.175086
3182.000000	1.175039
3180.000000	1.174977
3178.000000	1.175006
3176.000000	1.175232
3174.000000	1.175397
3172.000000	1.175394
3170.000000	1.175358
3168.000000	1.175284
3166.000000	1.175230
3164.000000	1.175323
3162.000000	1.175497
3160.000000	1.175581
3158.000000	1.175535
3156.000000	1.175496
3154.000000	1.175532
3152.000000	1.175562
3150.000000	1.175575
3148.000000	1.175604
3146.000000	1.175615
3144.000000	1.175669
3142.000000	1.175782
3140.000000	1.175791
3138.000000	1.175789
3136.000000	1.175902
3134.000000	1.175967
3132.000000	1.176018
3130.000000	1.176038
3128.000000	1.175951
3126.000000	1.175922
3124.000000	1.175914
3122.000000	1.175875
3120.000000	1.175838
3118.000000	1.175766
3116.000000	1.175798
3114.000000	1.175955
3112.000000	1.175995
3110.000000	1.175903
3108.000000	1.175839
3106.000000	1.175853
3104.000000	1.175851
3102.000000	1.175846
3100.000000	1.175896
3098.000000	1.175926
3096.000000	1.175869
3094.000000	1.175861
3092.000000	1.175853
3090.000000	1.175709
3088.000000	1.175592
3086.000000	1.175583
3084.000000	1.175486
3082.000000	1.175356
3080.000000	1.175283
3078.000000	1.175267
3076.000000	1.175352
3074.000000	1.175368
3072.000000	1.175236
3070.000000	1.175008
3068.000000	1.174882
3066.000000	1.174902
3064.000000	1.174908
3062.000000	1.174836
3060.000000	1.174754
3058.000000	1.174700
3056.000000	1.174694
3054.000000	1.174679
3052.000000	1.174548
3050.000000	1.174408
3048.000000	1.174347
3046.000000	1.174294
3044.000000	1.174188
3042.000000	1.174162
3040.000000	1.174225
3038.000000	1.174164
3036.000000	1.174039
3034.000000	1.173926
3032.000000	1.173853
3030.000000	1.173775
3028.000000	1.173640
3026.000000	1.173523
3024.000000	1.173443
3022.000000	1.173442
3020.000000	1.173509
3018.000000	1.173712
3016.000000	1.173972
3014.000000	1.174120
3012.000000	1.174120
3010.000000	1.174021
3008.000000	1.173892
3006.000000	1.173771
3004.000000	1.173653
3002.000000	1.173488
3000.000000	1.173386
2998.000000	1.173279
2996.000000	1.173147
2994.000000	1.173131
2992.000000	1.173116
2990.000000	1.173058
2988.000000	1.173033
2986.000000	1.172987
2984.000000	1.172884
2982.000000	1.172815
2980.000000	1.172810
2978.000000	1.172784
2976.000000	1.172721
2974.000000	1.172652
2972.000000	1.172649
2970.000000	1.172801
2968.000000	1.173108
2966.000000	1.173612
2964.000000	1.174266
2962.000000	1.174838
2960.000000	1.175113
2958.000000	1.175039
2956.000000	1.174631
2954.000000	1.174138
2952.000000	1.173722
2950.000000	1.173298
2948.000000	1.172800
2946.000000	1.172318
2944.000000	1.171900
2942.000000	1.171511
2940.000000	1.171304
2938.000000	1.171263
2936.000000	1.171339
2934.000000	1.171468
2932.000000	1.171480
2930.000000	1.171487
2928.000000	1.171720
2926.000000	1.172313
2924.000000	1.173049
2922.000000	1.173763
2920.000000	1.174415
2918.000000	1.174745
2916.000000	1.174681
2914.000000	1.174365
2912.000000	1.173969
2910.000000	1.173600
2908.000000	1.173341
2906.000000	1.173129
2904.000000	1.172953
2902.000000	1.172891
2900.000000	1.172793
2898.000000	1.172619
2896.000000	1.172492
2894.000000	1.172452
2892.000000	1.172396
2890.000000	1.172313
2888.000000	1.172200
2886.000000	1.172028
2884.000000	1.171896
2882.000000	1.171782
2880.000000	1.171645
2878.000000	1.171465
2876.000000	1.171264
2874.000000	1.171076
2872.000000	1.170844
2870.000000	1.170482
2868.000000	1.170100
2866.000000	1.169835
2864.000000	1.169970
2862.000000	1.170577
2860.000000	1.171311
2858.000000	1.171787
2856.000000	1.172047
2854.000000	1.172187
2852.000000	1.172319
2850.000000	1.172520
2848.000000	1.172663
2846.000000	1.172622
2844.000000	1.172374
2842.000000	1.172077
2840.000000	1.171893
2838.000000	1.171785
2836.000000	1.171680
2834.000000	1.171546
2832.000000	1.171511
2830.000000	1.171525
2828.000000	1.171409
2826.000000	1.171312
2824.000000	1.171332
2822.000000	1.171281
2820.000000	1.171239
2818.000000	1.171275
2816.000000	1.171226
2814.000000	1.171152
2812.000000	1.171100
2810.000000	1.171011
2808.000000	1.170977
2806.000000	1.170987
2804.000000	1.170937
2802.000000	1.170898
2800.000000	1.170915
2798.000000	1.171008
2796.000000	1.171023
2794.000000	1.170932
2792.000000	1.170898
2790.000000	1.170913
2788.000000	1.170920
2786.000000	1.170909
2784.000000	1.170828
2782.000000	1.170762
2780.000000	1.170743
2778.000000	1.170756
2776.000000	1.170833
2774.000000	1.170824
2772.000000	1.170786
2770.000000	1.170723
2768.000000	1.170676
2766.000000	1.170651
2764.000000	1.170609
2762.000000	1.170566
2760.000000	1.170584
2758.000000	1.170658
2756.000000	1.170728
2754.000000	1.170740
2752.000000	1.170712
2750.000000	1.170740
2748.000000	1.170763
2746.000000	1.170736
2744.000000	1.170739
2742.000000	1.170792
2740.000000	1.170851
2738.000000	1.170866
2736.000000	1.170869
2734.000000	1.170908
2732.000000	1.170985
2730.000000	1.170954
2728.000000	1.170902
2726.000000	1.170965
2724.000000	1.171117
2722.000000	1.171205
2720.000000	1.171214
2718.000000	1.171157
2716.000000	1.171147
2714.000000	1.171232
2712.000000	1.171327
2710.000000	1.171394
2708.000000	1.171485
2706.000000	1.171547
2704.000000	1.171622
2702.000000	1.171662
2700.000000	1.171600
2698.000000	1.171550
2696.000000	1.171653
2694.000000	1.171800
2692.000000	1.171926
2690.000000	1.172019
2688.000000	1.172187
2686.000000	1.172333
2684.000000	1.172360
2682.000000	1.172371
2680.000000	1.172452
2678.000000	1.172515
2676.000000	1.172571
2674.000000	1.172653
2672.000000	1.172670
2670.000000	1.172683
2668.000000	1.172742
2666.000000	1.172816
2664.000000	1.172951
2662.000000	1.173020
2660.000000	1.173058
2658.000000	1.173132
2656.000000	1.173226
2654.000000	1.173233
2652.000000	1.173272
2650.000000	1.173379
2648.000000	1.173445
2646.000000	1.173480
2644.000000	1.173528
2642.000000	1.173565
2640.000000	1.173564
2638.000000	1.173567
2636.000000	1.173635
2634.000000	1.173718
2632.000000	1.173744
2630.000000	1.173727
2628.000000	1.173784
2626.000000	1.173843
2624.000000	1.173854
2622.000000	1.173860
2620.000000	1.173926
2618.000000	1.173932
2616.000000	1.173886
2614.000000	1.173924
2612.000000	1.174024
2610.000000	1.174080
2608.000000	1.174114
2606.000000	1.174113
2604.000000	1.174113
2602.000000	1.174155
2600.000000	1.174189
2598.000000	1.174187
2596.000000	1.174220
2594.000000	1.174227
2592.000000	1.174287
2590.000000	1.174382
2588.000000	1.174400
2586.000000	1.174444
2584.000000	1.174584
2582.000000	1.174654
2580.000000	1.174650
2578.000000	1.174674
2576.000000	1.174665
2574.000000	1.174591
2572.000000	1.174549
2570.000000	1.174547
2568.000000	1.174612
2566.000000	1.174626
2564.000000	1.174598
2562.000000	1.174619
2560.000000	1.174697
2558.000000	1.174717
2556.000000	1.174724
2554.000000	1.174713
2552.000000	1.174761
2550.000000	1.174885
2548.000000	1.174842
2546.000000	1.174693
2544.000000	1.174681
2542.000000	1.174671
2540.000000	1.174654
2538.000000	1.174672
2536.000000	1.174648
2534.000000	1.174651
2532.000000	1.174712
2530.000000	1.174716
2528.000000	1.174695
2526.000000	1.174720
2524.000000	1.174739
2522.000000	1.174721
2520.000000	1.174685
2518.000000	1.174665
2516.000000	1.174672
2514.000000	1.174707
2512.000000	1.174715
2510.000000	1.174699
2508.000000	1.174653
2506.000000	1.174691
2504.000000	1.174754
2502.000000	1.174696
2500.000000	1.174657
2498.000000	1.174627
2496.000000	1.174594
2494.000000	1.174609
2492.000000	1.174651
2490.000000	1.174623
2488.000000	1.174587
2486.000000	1.174593
2484.000000	1.174615
2482.000000	1.174589
2480.000000	1.174610
2478.000000	1.174591
2476.000000	1.174581
2474.000000	1.174575
2472.000000	1.174547
2470.000000	1.174535
2468.000000	1.174514
2466.000000	1.174538
2464.000000	1.174551
2462.000000	1.174612
2460.000000	1.174674
2458.000000	1.174649
2456.000000	1.174602
2454.000000	1.174529
2452.000000	1.174522
2450.000000	1.174601
2448.000000	1.174660
2446.000000	1.174688
2444.000000	1.174683
2442.000000	1.174612
2440.000000	1.174543
2438.000000	1.174529
2436.000000	1.174522
2434.000000	1.174487
2432.000000	1.174553
2430.000000	1.174607
2428.000000	1.174586
2426.000000	1.174599
2424.000000	1.174629
2422.000000	1.174653
2420.000000	1.174645
2418.000000	1.174616
2416.000000	1.174631
2414.000000	1.174623
2412.000000	1.174504
2410.000000	1.174396
2408.000000	1.174439
2406.000000	1.174479
2404.000000	1.174482
2402.000000	1.174448
2400.000000	1.174504
2398.000000	1.174490
2396.000000	1.174360
2394.000000	1.174330
2392.000000	1.174384
2390.000000	1.174408
2388.000000	1.174451
2386.000000	1.174428
2384.000000	1.174358
2382.000000	1.174206
2380.000000	1.174051
2378.000000	1.173811
2376.000000	1.173508
2374.000000	1.173226
2372.000000	1.172999
2370.000000	1.172812
2368.000000	1.172657
2366.000000	1.172568
2364.000000	1.172632
2362.000000	1.172826
2360.000000	1.173065
2358.000000	1.173344
2356.000000	1.173656
2354.000000	1.174033
2352.000000	1.174402
2350.000000	1.174282
2348.000000	1.173630
2346.000000	1.173209
2344.000000	1.173469
2342.000000	1.174266
2340.000000	1.175092
2338.000000	1.175288
2336.000000	1.174878
2334.000000	1.174290
2332.000000	1.173898
2330.000000	1.173782
2328.000000	1.173792
2326.000000	1.173866
2324.000000	1.173980
2322.000000	1.174023
2320.000000	1.173980
2318.000000	1.174007
2316.000000	1.174109
2314.000000	1.174236
2312.000000	1.174358
2310.000000	1.174346
2308.000000	1.174331
2306.000000	1.174363
2304.000000	1.174428
2302.000000	1.174460
2300.000000	1.174418
2298.000000	1.174324
2296.000000	1.174324
2294.000000	1.174395
2292.000000	1.174425
2290.000000	1.174382
2288.000000	1.174392
2286.000000	1.174405
2284.000000	1.174391
2282.000000	1.174405
2280.000000	1.174508
2278.000000	1.174541
2276.000000	1.174492
2274.000000	1.174486
2272.000000	1.174504
2270.000000	1.174433
2268.000000	1.174397
2266.000000	1.174382
2264.000000	1.174313
2262.000000	1.174225
2260.000000	1.174220
2258.000000	1.174188
2256.000000	1.174143
2254.000000	1.174108
2252.000000	1.174102
2250.000000	1.174104
2248.000000	1.174096
2246.000000	1.174074
2244.000000	1.174004
2242.000000	1.173880
2240.000000	1.173818
2238.000000	1.173816
2236.000000	1.173797
2234.000000	1.173729
2232.000000	1.173695
2230.000000	1.173622
2228.000000	1.173572
2226.000000	1.173580
2224.000000	1.173618
2222.000000	1.173525
2220.000000	1.173420
2218.000000	1.173389
2216.000000	1.173360
2214.000000	1.173362
2212.000000	1.173341
2210.000000	1.173227
2208.000000	1.173140
2206.000000	1.173025
2204.000000	1.173011
2202.000000	1.173027
2200.000000	1.173044
2198.000000	1.172883
2196.000000	1.172701
2194.000000	1.172655
2192.000000	1.172697
2190.000000	1.172781
2188.000000	1.172827
2186.000000	1.172714
2184.000000	1.172533
2182.000000	1.172375
2180.000000	1.172363
2178.000000	1.172363
2176.000000	1.172297
2174.000000	1.172265
2172.000000	1.172238
2170.000000	1.172194
2168.000000	1.172153
2166.000000	1.172060
2164.000000	1.172005
2162.000000	1.171934
2160.000000	1.171886
2158.000000	1.171896
2156.000000	1.171841
2154.000000	1.171791
2152.000000	1.171778
2150.000000	1.171693
2148.000000	1.171625
2146.000000	1.171602
2144.000000	1.171602
2142.000000	1.171489
2140.000000	1.171366
2138.000000	1.171339
2136.000000	1.171387
2134.000000	1.171391
2132.000000	1.171346
2130.000000	1.171263
2128.000000	1.171259
2126.000000	1.171213
2124.000000	1.171129
2122.000000	1.171116
2120.000000	1.171067
2118.000000	1.170937
2116.000000	1.170919
2114.000000	1.170944
2112.000000	1.170897
2110.000000	1.170877
2108.000000	1.170888
2106.000000	1.170784
2104.000000	1.170701
2102.000000	1.170707
2100.000000	1.170699
2098.000000	1.170635
2096.000000	1.170675
2094.000000	1.170702
2092.000000	1.170667
2090.000000	1.170556
2088.000000	1.170438
2086.000000	1.170366
2084.000000	1.170363
2082.000000	1.170359
2080.000000	1.170266
2078.000000	1.170161
2076.000000	1.170260
2074.000000	1.170354
2072.000000	1.170316
2070.000000	1.170193
2068.000000	1.170184
2066.000000	1.170185
2064.000000	1.170177
2062.000000	1.170086
2060.000000	1.170018
2058.000000	1.169975
2056.000000	1.169943
2054.000000	1.169946
2052.000000	1.169960
2050.000000	1.169960
2048.000000	1.169951
2046.000000	1.169842
2044.000000	1.169773
2042.000000	1.169754
2040.000000	1.169743
2038.000000	1.169680
2036.000000	1.169638
2034.000000	1.169549
2032.000000	1.169513
2030.000000	1.169508
2028.000000	1.169529
2026.000000	1.169460
2024.000000	1.169378
2022.000000	1.169307
2020.000000	1.169210
2018.000000	1.169157
2016.000000	1.169300
2014.000000	1.169297
2012.000000	1.169219
2010.000000	1.169249
2008.000000	1.169301
2006.000000	1.169294
2004.000000	1.169276
2002.000000	1.169261
2000.000000	1.169200
1998.000000	1.169048
1996.000000	1.168989
1994.000000	1.168810
1992.000000	1.168775
1990.000000	1.168892
1988.000000	1.168883
1986.000000	1.168896
1984.000000	1.168893
1982.000000	1.168920
1980.000000	1.168953
1978.000000	1.168973
1976.000000	1.168985
1974.000000	1.168969
1972.000000	1.168857
1970.000000	1.168539
1968.000000	1.168373
1966.000000	1.168570
1964.000000	1.168700
1962.000000	1.168618
1960.000000	1.168627
1958.000000	1.168912
1956.000000	1.168924
1954.000000	1.168787
1952.000000	1.168828
1950.000000	1.168845
1948.000000	1.168796
1946.000000	1.168615
1944.000000	1.168300
1942.000000	1.168489
1940.000000	1.168869
1938.000000	1.168773
1936.000000	1.168795
1934.000000	1.168915
1932.000000	1.168941
1930.000000	1.168834
1928.000000	1.168817
1926.000000	1.168708
1924.000000	1.168513
1922.000000	1.168571
1920.000000	1.168158
1918.000000	1.168127
1916.000000	1.168931
1914.000000	1.168907
1912.000000	1.168701
1910.000000	1.168677
1908.000000	1.168891
1906.000000	1.168920
1904.000000	1.168931
1902.000000	1.168931
1900.000000	1.168983
1898.000000	1.168870
1896.000000	1.168879
1894.000000	1.168999
1892.000000	1.168812
1890.000000	1.168546
1888.000000	1.169026
1886.000000	1.169171
1884.000000	1.169192
1882.000000	1.169169
1880.000000	1.169167
1878.000000	1.169146
1876.000000	1.169165
1874.000000	1.169066
1872.000000	1.168452
1870.000000	1.167596
1868.000000	1.168264
1866.000000	1.169007
1864.000000	1.169065
1862.000000	1.168965
1860.000000	1.169030
1858.000000	1.169017
1856.000000	1.169049
1854.000000	1.169013
1852.000000	1.169046
1850.000000	1.168814
1848.000000	1.168298
1846.000000	1.166757
1844.000000	1.167088
1842.000000	1.169038
1840.000000	1.169106
1838.000000	1.168793
1836.000000	1.168937
1834.000000	1.168856
1832.000000	1.167872
1830.000000	1.167650
1828.000000	1.168390
1826.000000	1.168100
1824.000000	1.168713
1822.000000	1.169210
1820.000000	1.169124
1818.000000	1.169026
1816.000000	1.169227
1814.000000	1.169047
1812.000000	1.168692
1810.000000	1.168796
1808.000000	1.169094
1806.000000	1.169002
1804.000000	1.168648
1802.000000	1.168071
1800.000000	1.168357
1798.000000	1.168827
1796.000000	1.168328
1794.000000	1.166647
1792.000000	1.167202
1790.000000	1.169054
1788.000000	1.169100
1786.000000	1.168504
1784.000000	1.168849
1782.000000	1.168806
1780.000000	1.168878
1778.000000	1.169010
1776.000000	1.167884
1774.000000	1.165520
1772.000000	1.166325
1770.000000	1.168223
1768.000000	1.168530
1766.000000	1.169345
1764.000000	1.168300
1762.000000	1.168012
1760.000000	1.169139
1758.000000	1.168796
1756.000000	1.169037
1754.000000	1.168254
1752.000000	1.166440
1750.000000	1.167562
1748.000000	1.168755
1746.000000	1.169044
1744.000000	1.168815
1742.000000	1.168119
1740.000000	1.168070
1738.000000	1.168535
1736.000000	1.164580
1734.000000	1.164386
1732.000000	1.169326
1730.000000	1.170211
1728.000000	1.170337
1726.000000	1.170290
1724.000000	1.170239
1722.000000	1.169687
1720.000000	1.166351
1718.000000	1.164182
1716.000000	1.167784
1714.000000	1.170232
1712.000000	1.170826
1710.000000	1.170274
1708.000000	1.169442
1706.000000	1.168742
1704.000000	1.168540
1702.000000	1.164027
1700.000000	1.164422
1698.000000	1.166148
1696.000000	1.166022
1694.000000	1.170989
1692.000000	1.171518
1690.000000	1.170457
1688.000000	1.168536
1686.000000	1.163658
1684.000000	1.165825
1682.000000	1.171210
1680.000000	1.171440
1678.000000	1.170022
1676.000000	1.168295
1674.000000	1.170037
1672.000000	1.169666
1670.000000	1.168794
1668.000000	1.170923
1666.000000	1.171471
1664.000000	1.170037
1662.000000	1.170901
1660.000000	1.172105
1658.000000	1.171316
1656.000000	1.165829
1654.000000	1.159872
1652.000000	1.166870
1650.000000	1.171613
1648.000000	1.168118
1646.000000	1.169099
1644.000000	1.172404
1642.000000	1.172631
1640.000000	1.171615
1638.000000	1.168588
1636.000000	1.167338
1634.000000	1.171589
1632.000000	1.173027
1630.000000	1.171882
1628.000000	1.171546
1626.000000	1.171158
1624.000000	1.170397
1622.000000	1.171679
1620.000000	1.170960
1618.000000	1.167745
1616.000000	1.169764
1614.000000	1.172786
1612.000000	1.172314
1610.000000	1.172470
1608.000000	1.173106
1606.000000	1.173679
1604.000000	1.173705
1602.000000	1.173852
1600.000000	1.173982
1598.000000	1.174041
1596.000000	1.173809
1594.000000	1.173804
1592.000000	1.173759
1590.000000	1.173729
1588.000000	1.173717
1586.000000	1.173756
1584.000000	1.173777
1582.000000	1.173841
1580.000000	1.173014
1578.000000	1.169389
1576.000000	1.169638
1574.000000	1.173730
1572.000000	1.172339
1570.000000	1.171283
1568.000000	1.173027
1566.000000	1.173402
1564.000000	1.172482
1562.000000	1.167627
1560.000000	1.162357
1558.000000	1.167429
1556.000000	1.171645
1554.000000	1.172467
1552.000000	1.173594
1550.000000	1.173579
1548.000000	1.173359
1546.000000	1.171753
1544.000000	1.169563
1542.000000	1.166117
1540.000000	1.166120
1538.000000	1.172016
1536.000000	1.172922
1534.000000	1.171348
1532.000000	1.173165
1530.000000	1.173324
1528.000000	1.171956
1526.000000	1.171306
1524.000000	1.169833
1522.000000	1.167908
1520.000000	1.170537
1518.000000	1.171587
1516.000000	1.172040
1514.000000	1.172587
1512.000000	1.172163
1510.000000	1.169917
1508.000000	1.165287
1506.000000	1.167372
1504.000000	1.172555
1502.000000	1.171670
1500.000000	1.168561
1498.000000	1.166389
1496.000000	1.168919
1494.000000	1.173745
1492.000000	1.174608
1490.000000	1.174562
1488.000000	1.175258
1486.000000	1.175509
1484.000000	1.175200
1482.000000	1.174499
1480.000000	1.174241
1478.000000	1.173058
1476.000000	1.171448
1474.000000	1.169785
1472.000000	1.171245
1470.000000	1.173643
1468.000000	1.173023
1466.000000	1.171626
1464.000000	1.172524
1462.000000	1.173000
1460.000000	1.169673
1458.000000	1.165795
1456.000000	1.168771
1454.000000	1.172451
1452.000000	1.173038
1450.000000	1.173898
1448.000000	1.174342
1446.000000	1.174531
1444.000000	1.173987
1442.000000	1.173770
1440.000000	1.172664
1438.000000	1.170363
1436.000000	1.171539
1434.000000	1.173638
1432.000000	1.172974
1430.000000	1.172848
1428.000000	1.173235
1426.000000	1.172993
1424.000000	1.172604
1422.000000	1.171383
1420.000000	1.169485
1418.000000	1.171488
1416.000000	1.172995
1414.000000	1.172935
1412.000000	1.172661
1410.000000	1.172533
1408.000000	1.172076
1406.000000	1.171863
1404.000000	1.172686
1402.000000	1.173266
1400.000000	1.172780
1398.000000	1.172928
1396.000000	1.172380
1394.000000	1.172765
1392.000000	1.173320
1390.000000	1.172321
1388.000000	1.171356
1386.000000	1.172200
1384.000000	1.173081
1382.000000	1.173303
1380.000000	1.173018
1378.000000	1.172720
1376.000000	1.172112
1374.000000	1.172085
1372.000000	1.172593
1370.000000	1.172532
1368.000000	1.172434
1366.000000	1.172265
1364.000000	1.171654
1362.000000	1.171828
1360.000000	1.172330
1358.000000	1.172398
1356.000000	1.172201
1354.000000	1.172146
1352.000000	1.172060
1350.000000	1.172037
1348.000000	1.172119
1346.000000	1.172148
1344.000000	1.171963
1342.000000	1.171570
1340.000000	1.171283
1338.000000	1.171639
1336.000000	1.171899
1334.000000	1.171840
1332.000000	1.171695
1330.000000	1.171701
1328.000000	1.171638
1326.000000	1.171547
1324.000000	1.171435
1322.000000	1.171298
1320.000000	1.171056
1318.000000	1.171012
1316.000000	1.170977
1314.000000	1.170935
1312.000000	1.171021
1310.000000	1.171052
1308.000000	1.170930
1306.000000	1.170853
1304.000000	1.170699
1302.000000	1.170601
1300.000000	1.170558
1298.000000	1.170621
1296.000000	1.170612
1294.000000	1.170559
1292.000000	1.170391
1290.000000	1.170308
1288.000000	1.170343
1286.000000	1.170419
1284.000000	1.170349
1282.000000	1.170412
1280.000000	1.170511
1278.000000	1.170587
1276.000000	1.170486
1274.000000	1.170452
1272.000000	1.170612
1270.000000	1.170922
1268.000000	1.171451
1266.000000	1.172715
1264.000000	1.174674
1262.000000	1.177186
1260.000000	1.179293
1258.000000	1.179853
1256.000000	1.178809
1254.000000	1.176962
1252.000000	1.175269
1250.000000	1.174376
1248.000000	1.173888
1246.000000	1.173841
1244.000000	1.173993
1242.000000	1.174124
1240.000000	1.174206
1238.000000	1.174421
1236.000000	1.174738
1234.000000	1.175079
1232.000000	1.175222
1230.000000	1.175365
1228.000000	1.175442
1226.000000	1.175666
1224.000000	1.175945
1222.000000	1.176395
1220.000000	1.176766
1218.000000	1.177003
1216.000000	1.177177
1214.000000	1.177441
1212.000000	1.177730
1210.000000	1.178113
1208.000000	1.178355
1206.000000	1.178457
1204.000000	1.178460
1202.000000	1.178710
1200.000000	1.179057
1198.000000	1.179468
1196.000000	1.179786
1194.000000	1.180058
1192.000000	1.180498
1190.000000	1.181136
1188.000000	1.181498
1186.000000	1.181750
1184.000000	1.181573
1182.000000	1.181555
1180.000000	1.182442
1178.000000	1.183359
1176.000000	1.183674
1174.000000	1.183927
1172.000000	1.184163
1170.000000	1.184477
1168.000000	1.184755
1166.000000	1.185385
1164.000000	1.185877
1162.000000	1.185974
1160.000000	1.186535
1158.000000	1.187284
1156.000000	1.187388
1154.000000	1.187316
1152.000000	1.187706
1150.000000	1.188408
1148.000000	1.188813
1146.000000	1.189170
1144.000000	1.189261
1142.000000	1.189597
1140.000000	1.190006
1138.000000	1.190445
1136.000000	1.190621
1134.000000	1.190596
1132.000000	1.190555
1130.000000	1.190741
1128.000000	1.190882
1126.000000	1.190984
1124.000000	1.191062
1122.000000	1.191572
1120.000000	1.192095
1118.000000	1.192302
1116.000000	1.192258
1114.000000	1.192666
1112.000000	1.193279
1110.000000	1.194031
1108.000000	1.194527
1106.000000	1.195092
1104.000000	1.195377
1102.000000	1.195873
1100.000000	1.196459
1098.000000	1.196996
1096.000000	1.197416
1094.000000	1.197723
1092.000000	1.197747
1090.000000	1.197576
1088.000000	1.197169
1086.000000	1.197191
1084.000000	1.197008
1082.000000	1.196646
1080.000000	1.196430
1078.000000	1.196141
1076.000000	1.195736
1074.000000	1.195826
1072.000000	1.195637
1070.000000	1.195258
1068.000000	1.195084
1066.000000	1.195083
1064.000000	1.194549
1062.000000	1.194142
1060.000000	1.193685
1058.000000	1.192822
1056.000000	1.191074
1054.000000	1.189652
1052.000000	1.190298
1050.000000	1.191952
1048.000000	1.192514
1046.000000	1.192083
1044.000000	1.190954
1042.000000	1.189793
1040.000000	1.189013
1038.000000	1.188966
1036.000000	1.188224
1034.000000	1.187681
1032.000000	1.187130
1030.000000	1.186185
1028.000000	1.185712
1026.000000	1.185891
1024.000000	1.186232
1022.000000	1.185925
1020.000000	1.184685
1018.000000	1.184252
1016.000000	1.183570
1014.000000	1.182501
1012.000000	1.181304
1010.000000	1.179484
1008.000000	1.177520
1006.000000	1.175535
1004.000000	1.173434
1002.000000	1.172445
1000.000000	1.172376
