PE IR       SUBTECH     SPECTRUM    ASCII       PEDS        4.00        
   -1
TE110A_056_80K_AFTER_120K.ASC
20/05/14
14:21:47.00
20/05/14
14:21:47.00
Administrator
TE110A.Thursday, May 14 2020, 004.
1000.000000
#HDR
-1
-1
#GR
cm-1
A
1.0
0.0
6000.000000
-2.000000
2501
8
1.226667
1.174811
#DATA
6000.000000	1.204601
5998.000000	1.204094
5996.000000	1.204401
5994.000000	1.205228
5992.000000	1.205694
5990.000000	1.205562
5988.000000	1.204982
5986.000000	1.204715
5984.000000	1.204890
5982.000000	1.204922
5980.000000	1.204797
5978.000000	1.204935
5976.000000	1.205038
5974.000000	1.204926
5972.000000	1.204584
5970.000000	1.204272
5968.000000	1.204392
5966.000000	1.204603
5964.000000	1.204725
5962.000000	1.204751
5960.000000	1.204344
5958.000000	1.203820
5956.000000	1.203407
5954.000000	1.203645
5952.000000	1.204179
5950.000000	1.204475
5948.000000	1.204637
5946.000000	1.204828
5944.000000	1.205065
5942.000000	1.205144
5940.000000	1.204832
5938.000000	1.204100
5936.000000	1.203502
5934.000000	1.203298
5932.000000	1.203458
5930.000000	1.203971
5928.000000	1.203949
5926.000000	1.203680
5924.000000	1.203525
5922.000000	1.203723
5920.000000	1.204246
5918.000000	1.204204
5916.000000	1.203667
5914.000000	1.203487
5912.000000	1.203630
5910.000000	1.203749
5908.000000	1.203607
5906.000000	1.203612
5904.000000	1.203934
5902.000000	1.203950
5900.000000	1.203691
5898.000000	1.203463
5896.000000	1.203552
5894.000000	1.203725
5892.000000	1.203532
5890.000000	1.203274
5888.000000	1.203098
5886.000000	1.203095
5884.000000	1.203422
5882.000000	1.203741
5880.000000	1.203569
5878.000000	1.203235
5876.000000	1.202793
5874.000000	1.202680
5872.000000	1.202964
5870.000000	1.203066
5868.000000	1.203245
5866.000000	1.203287
5864.000000	1.203054
5862.000000	1.202692
5860.000000	1.202281
5858.000000	1.202113
5856.000000	1.202335
5854.000000	1.202424
5852.000000	1.202462
5850.000000	1.202284
5848.000000	1.202123
5846.000000	1.201867
5844.000000	1.201824
5842.000000	1.201892
5840.000000	1.201792
5838.000000	1.201754
5836.000000	1.201717
5834.000000	1.201978
5832.000000	1.202224
5830.000000	1.202261
5828.000000	1.202454
5826.000000	1.202591
5824.000000	1.202686
5822.000000	1.202518
5820.000000	1.202219
5818.000000	1.201920
5816.000000	1.201710
5814.000000	1.201743
5812.000000	1.202150
5810.000000	1.202454
5808.000000	1.202264
5806.000000	1.201711
5804.000000	1.201533
5802.000000	1.201820
5800.000000	1.202245
5798.000000	1.202317
5796.000000	1.202014
5794.000000	1.201862
5792.000000	1.202086
5790.000000	1.202573
5788.000000	1.202775
5786.000000	1.202672
5784.000000	1.202341
5782.000000	1.202219
5780.000000	1.202116
5778.000000	1.201810
5776.000000	1.201542
5774.000000	1.201344
5772.000000	1.201421
5770.000000	1.201331
5768.000000	1.200816
5766.000000	1.200786
5764.000000	1.201142
5762.000000	1.201462
5760.000000	1.201578
5758.000000	1.201637
5756.000000	1.201644
5754.000000	1.201530
5752.000000	1.201280
5750.000000	1.201261
5748.000000	1.201225
5746.000000	1.201060
5744.000000	1.200962
5742.000000	1.201241
5740.000000	1.201656
5738.000000	1.201720
5736.000000	1.201617
5734.000000	1.201155
5732.000000	1.200961
5730.000000	1.200829
5728.000000	1.200795
5726.000000	1.200885
5724.000000	1.201005
5722.000000	1.201127
5720.000000	1.201299
5718.000000	1.201223
5716.000000	1.201143
5714.000000	1.200786
5712.000000	1.200453
5710.000000	1.200172
5708.000000	1.200143
5706.000000	1.200496
5704.000000	1.200789
5702.000000	1.201221
5700.000000	1.201021
5698.000000	1.200551
5696.000000	1.200340
5694.000000	1.200500
5692.000000	1.200802
5690.000000	1.200675
5688.000000	1.200481
5686.000000	1.200259
5684.000000	1.200316
5682.000000	1.200248
5680.000000	1.200206
5678.000000	1.200253
5676.000000	1.200268
5674.000000	1.200303
5672.000000	1.200042
5670.000000	1.199876
5668.000000	1.199940
5666.000000	1.199949
5664.000000	1.199909
5662.000000	1.200080
5660.000000	1.200150
5658.000000	1.199897
5656.000000	1.199560
5654.000000	1.199613
5652.000000	1.200029
5650.000000	1.200336
5648.000000	1.200531
5646.000000	1.200704
5644.000000	1.200788
5642.000000	1.200561
5640.000000	1.200118
5638.000000	1.199792
5636.000000	1.199819
5634.000000	1.199973
5632.000000	1.199967
5630.000000	1.199641
5628.000000	1.199543
5626.000000	1.199668
5624.000000	1.199879
5622.000000	1.199881
5620.000000	1.199820
5618.000000	1.199798
5616.000000	1.199673
5614.000000	1.199480
5612.000000	1.199392
5610.000000	1.199447
5608.000000	1.199504
5606.000000	1.199516
5604.000000	1.199492
5602.000000	1.199689
5600.000000	1.199701
5598.000000	1.199646
5596.000000	1.199543
5594.000000	1.199359
5592.000000	1.199144
5590.000000	1.198836
5588.000000	1.199134
5586.000000	1.199526
5584.000000	1.199398
5582.000000	1.198969
5580.000000	1.198718
5578.000000	1.198994
5576.000000	1.199336
5574.000000	1.199370
5572.000000	1.199149
5570.000000	1.198915
5568.000000	1.198853
5566.000000	1.198893
5564.000000	1.198966
5562.000000	1.198918
5560.000000	1.198851
5558.000000	1.198764
5556.000000	1.198751
5554.000000	1.198856
5552.000000	1.198787
5550.000000	1.198726
5548.000000	1.198675
5546.000000	1.198671
5544.000000	1.198540
5542.000000	1.198505
5540.000000	1.198651
5538.000000	1.198892
5536.000000	1.198968
5534.000000	1.198677
5532.000000	1.198426
5530.000000	1.198385
5528.000000	1.198521
5526.000000	1.198684
5524.000000	1.198776
5522.000000	1.198830
5520.000000	1.198779
5518.000000	1.198486
5516.000000	1.198304
5514.000000	1.198320
5512.000000	1.198323
5510.000000	1.198155
5508.000000	1.198052
5506.000000	1.198196
5504.000000	1.198488
5502.000000	1.198498
5500.000000	1.198219
5498.000000	1.197841
5496.000000	1.197593
5494.000000	1.197625
5492.000000	1.197695
5490.000000	1.197665
5488.000000	1.197664
5486.000000	1.197763
5484.000000	1.198020
5482.000000	1.198258
5480.000000	1.198252
5478.000000	1.198048
5476.000000	1.197711
5474.000000	1.197573
5472.000000	1.197750
5470.000000	1.197841
5468.000000	1.197721
5466.000000	1.197382
5464.000000	1.197118
5462.000000	1.197194
5460.000000	1.197421
5458.000000	1.197778
5456.000000	1.197984
5454.000000	1.197705
5452.000000	1.197019
5450.000000	1.196644
5448.000000	1.196952
5446.000000	1.197494
5444.000000	1.197685
5442.000000	1.197700
5440.000000	1.197642
5438.000000	1.197429
5436.000000	1.197217
5434.000000	1.197049
5432.000000	1.196960
5430.000000	1.196918
5428.000000	1.197102
5426.000000	1.197335
5424.000000	1.197458
5422.000000	1.197524
5420.000000	1.197584
5418.000000	1.197241
5416.000000	1.196685
5414.000000	1.196374
5412.000000	1.196521
5410.000000	1.196908
5408.000000	1.197004
5406.000000	1.197100
5404.000000	1.197137
5402.000000	1.196922
5400.000000	1.196676
5398.000000	1.196521
5396.000000	1.196650
5394.000000	1.196740
5392.000000	1.196761
5390.000000	1.196690
5388.000000	1.196624
5386.000000	1.196696
5384.000000	1.196928
5382.000000	1.196918
5380.000000	1.196255
5378.000000	1.195630
5376.000000	1.195735
5374.000000	1.196484
5372.000000	1.196887
5370.000000	1.196708
5368.000000	1.196469
5366.000000	1.196380
5364.000000	1.196335
5362.000000	1.196579
5360.000000	1.196796
5358.000000	1.196594
5356.000000	1.195971
5354.000000	1.195636
5352.000000	1.195725
5350.000000	1.195933
5348.000000	1.195840
5346.000000	1.195694
5344.000000	1.195545
5342.000000	1.195517
5340.000000	1.195660
5338.000000	1.196098
5336.000000	1.196568
5334.000000	1.196552
5332.000000	1.196283
5330.000000	1.196123
5328.000000	1.196212
5326.000000	1.196401
5324.000000	1.196374
5322.000000	1.196136
5320.000000	1.195786
5318.000000	1.195665
5316.000000	1.195817
5314.000000	1.196084
5312.000000	1.196193
5310.000000	1.196163
5308.000000	1.196152
5306.000000	1.196288
5304.000000	1.196180
5302.000000	1.195842
5300.000000	1.195654
5298.000000	1.195678
5296.000000	1.195734
5294.000000	1.195714
5292.000000	1.195582
5290.000000	1.195459
5288.000000	1.195606
5286.000000	1.195864
5284.000000	1.195977
5282.000000	1.195840
5280.000000	1.195844
5278.000000	1.195902
5276.000000	1.195943
5274.000000	1.195924
5272.000000	1.195869
5270.000000	1.195706
5268.000000	1.195372
5266.000000	1.195212
5264.000000	1.195433
5262.000000	1.195750
5260.000000	1.195653
5258.000000	1.195365
5256.000000	1.195278
5254.000000	1.195464
5252.000000	1.195561
5250.000000	1.195459
5248.000000	1.195253
5246.000000	1.195347
5244.000000	1.195588
5242.000000	1.195735
5240.000000	1.195656
5238.000000	1.195605
5236.000000	1.195647
5234.000000	1.195724
5232.000000	1.195702
5230.000000	1.195336
5228.000000	1.194847
5226.000000	1.194791
5224.000000	1.195253
5222.000000	1.195740
5220.000000	1.195787
5218.000000	1.195744
5216.000000	1.195632
5214.000000	1.195558
5212.000000	1.195449
5210.000000	1.195182
5208.000000	1.194878
5206.000000	1.194903
5204.000000	1.195325
5202.000000	1.195586
5200.000000	1.195554
5198.000000	1.195489
5196.000000	1.195416
5194.000000	1.195226
5192.000000	1.194997
5190.000000	1.194835
5188.000000	1.194812
5186.000000	1.194916
5184.000000	1.194972
5182.000000	1.195050
5180.000000	1.195164
5178.000000	1.195250
5176.000000	1.195034
5174.000000	1.194766
5172.000000	1.194815
5170.000000	1.195174
5168.000000	1.195366
5166.000000	1.195268
5164.000000	1.195141
5162.000000	1.195073
5160.000000	1.194935
5158.000000	1.194885
5156.000000	1.195052
5154.000000	1.195174
5152.000000	1.195212
5150.000000	1.195207
5148.000000	1.195130
5146.000000	1.195028
5144.000000	1.195042
5142.000000	1.195184
5140.000000	1.195340
5138.000000	1.195427
5136.000000	1.195438
5134.000000	1.195499
5132.000000	1.195623
5130.000000	1.195584
5128.000000	1.195335
5126.000000	1.195015
5124.000000	1.194819
5122.000000	1.194912
5120.000000	1.195178
5118.000000	1.195162
5116.000000	1.195030
5114.000000	1.195166
5112.000000	1.195330
5110.000000	1.195150
5108.000000	1.194927
5106.000000	1.195027
5104.000000	1.195193
5102.000000	1.195152
5100.000000	1.194959
5098.000000	1.194776
5096.000000	1.194674
5094.000000	1.194645
5092.000000	1.194620
5090.000000	1.194629
5088.000000	1.194742
5086.000000	1.194950
5084.000000	1.194999
5082.000000	1.194855
5080.000000	1.194795
5078.000000	1.194980
5076.000000	1.195186
5074.000000	1.195196
5072.000000	1.195087
5070.000000	1.195034
5068.000000	1.195107
5066.000000	1.195125
5064.000000	1.194993
5062.000000	1.194948
5060.000000	1.195049
5058.000000	1.195182
5056.000000	1.195186
5054.000000	1.195233
5052.000000	1.195190
5050.000000	1.195018
5048.000000	1.194882
5046.000000	1.194892
5044.000000	1.194902
5042.000000	1.194889
5040.000000	1.194965
5038.000000	1.195086
5036.000000	1.195253
5034.000000	1.195304
5032.000000	1.195258
5030.000000	1.195202
5028.000000	1.195274
5026.000000	1.195169
5024.000000	1.194994
5022.000000	1.195084
5020.000000	1.195221
5018.000000	1.195196
5016.000000	1.195093
5014.000000	1.195109
5012.000000	1.195180
5010.000000	1.195181
5008.000000	1.195242
5006.000000	1.195371
5004.000000	1.195414
5002.000000	1.195189
5000.000000	1.194888
4998.000000	1.194732
4996.000000	1.194685
4994.000000	1.194681
4992.000000	1.194719
4990.000000	1.194955
4988.000000	1.195304
4986.000000	1.195322
4984.000000	1.194987
4982.000000	1.194853
4980.000000	1.194963
4978.000000	1.195061
4976.000000	1.195039
4974.000000	1.194975
4972.000000	1.194839
4970.000000	1.194816
4968.000000	1.194995
4966.000000	1.195106
4964.000000	1.195032
4962.000000	1.194927
4960.000000	1.194899
4958.000000	1.194887
4956.000000	1.194854
4954.000000	1.194862
4952.000000	1.194905
4950.000000	1.195002
4948.000000	1.195134
4946.000000	1.195206
4944.000000	1.195130
4942.000000	1.195116
4940.000000	1.195126
4938.000000	1.195197
4936.000000	1.195149
4934.000000	1.195129
4932.000000	1.195082
4930.000000	1.195064
4928.000000	1.195095
4926.000000	1.195133
4924.000000	1.195074
4922.000000	1.194989
4920.000000	1.195015
4918.000000	1.195000
4916.000000	1.194880
4914.000000	1.194833
4912.000000	1.194888
4910.000000	1.194955
4908.000000	1.194992
4906.000000	1.195088
4904.000000	1.195270
4902.000000	1.195411
4900.000000	1.195221
4898.000000	1.194884
4896.000000	1.194798
4894.000000	1.194932
4892.000000	1.194995
4890.000000	1.194942
4888.000000	1.194858
4886.000000	1.194852
4884.000000	1.194852
4882.000000	1.194831
4880.000000	1.194896
4878.000000	1.195059
4876.000000	1.195162
4874.000000	1.195248
4872.000000	1.195355
4870.000000	1.195287
4868.000000	1.195067
4866.000000	1.195038
4864.000000	1.195092
4862.000000	1.195032
4860.000000	1.194865
4858.000000	1.195045
4856.000000	1.195304
4854.000000	1.195306
4852.000000	1.195073
4850.000000	1.195084
4848.000000	1.195243
4846.000000	1.195273
4844.000000	1.195234
4842.000000	1.195262
4840.000000	1.195279
4838.000000	1.195200
4836.000000	1.195192
4834.000000	1.195288
4832.000000	1.195368
4830.000000	1.195404
4828.000000	1.195332
4826.000000	1.195193
4824.000000	1.195034
4822.000000	1.195011
4820.000000	1.194974
4818.000000	1.194915
4816.000000	1.194930
4814.000000	1.195040
4812.000000	1.195138
4810.000000	1.195238
4808.000000	1.195249
4806.000000	1.195116
4804.000000	1.195033
4802.000000	1.195124
4800.000000	1.195241
4798.000000	1.195330
4796.000000	1.195364
4794.000000	1.195313
4792.000000	1.195165
4790.000000	1.194984
4788.000000	1.194881
4786.000000	1.194938
4784.000000	1.195048
4782.000000	1.195059
4780.000000	1.194994
4778.000000	1.194972
4776.000000	1.194966
4774.000000	1.194941
4772.000000	1.194903
4770.000000	1.194939
4768.000000	1.195063
4766.000000	1.195120
4764.000000	1.195072
4762.000000	1.195028
4760.000000	1.195006
4758.000000	1.195124
4756.000000	1.195377
4754.000000	1.195436
4752.000000	1.195209
4750.000000	1.195127
4748.000000	1.195168
4746.000000	1.195102
4744.000000	1.195033
4742.000000	1.195096
4740.000000	1.195178
4738.000000	1.195204
4736.000000	1.195131
4734.000000	1.195041
4732.000000	1.195046
4730.000000	1.195136
4728.000000	1.195210
4726.000000	1.195129
4724.000000	1.194938
4722.000000	1.194880
4720.000000	1.194918
4718.000000	1.194921
4716.000000	1.194940
4714.000000	1.194887
4712.000000	1.194832
4710.000000	1.194943
4708.000000	1.195050
4706.000000	1.195055
4704.000000	1.195099
4702.000000	1.195131
4700.000000	1.195069
4698.000000	1.195034
4696.000000	1.194943
4694.000000	1.194797
4692.000000	1.194752
4690.000000	1.194903
4688.000000	1.195066
4686.000000	1.195073
4684.000000	1.195011
4682.000000	1.194852
4680.000000	1.194669
4678.000000	1.194733
4676.000000	1.194883
4674.000000	1.194980
4672.000000	1.195092
4670.000000	1.195124
4668.000000	1.194955
4666.000000	1.194827
4664.000000	1.194866
4662.000000	1.194993
4660.000000	1.195112
4658.000000	1.195049
4656.000000	1.194874
4654.000000	1.194872
4652.000000	1.195071
4650.000000	1.195198
4648.000000	1.195110
4646.000000	1.194985
4644.000000	1.194823
4642.000000	1.194762
4640.000000	1.194883
4638.000000	1.195079
4636.000000	1.195125
4634.000000	1.194989
4632.000000	1.194856
4630.000000	1.194949
4628.000000	1.195070
4626.000000	1.195031
4624.000000	1.194908
4622.000000	1.194903
4620.000000	1.194977
4618.000000	1.195072
4616.000000	1.195075
4614.000000	1.195054
4612.000000	1.194967
4610.000000	1.194836
4608.000000	1.194660
4606.000000	1.194583
4604.000000	1.194585
4602.000000	1.194654
4600.000000	1.194831
4598.000000	1.194981
4596.000000	1.194872
4594.000000	1.194797
4592.000000	1.194851
4590.000000	1.194806
4588.000000	1.194695
4586.000000	1.194698
4584.000000	1.194755
4582.000000	1.194768
4580.000000	1.194787
4578.000000	1.194900
4576.000000	1.195100
4574.000000	1.195233
4572.000000	1.195227
4570.000000	1.195118
4568.000000	1.195000
4566.000000	1.194976
4564.000000	1.194995
4562.000000	1.194986
4560.000000	1.194905
4558.000000	1.194882
4556.000000	1.194948
4554.000000	1.194978
4552.000000	1.194959
4550.000000	1.194976
4548.000000	1.194934
4546.000000	1.194830
4544.000000	1.194815
4542.000000	1.194847
4540.000000	1.194866
4538.000000	1.195000
4536.000000	1.195116
4534.000000	1.194990
4532.000000	1.194779
4530.000000	1.194694
4528.000000	1.194722
4526.000000	1.194822
4524.000000	1.194933
4522.000000	1.194935
4520.000000	1.194849
4518.000000	1.194759
4516.000000	1.194792
4514.000000	1.194908
4512.000000	1.194924
4510.000000	1.194889
4508.000000	1.194977
4506.000000	1.195124
4504.000000	1.195196
4502.000000	1.195176
4500.000000	1.195021
4498.000000	1.194830
4496.000000	1.194780
4494.000000	1.194855
4492.000000	1.194906
4490.000000	1.194888
4488.000000	1.194881
4486.000000	1.194926
4484.000000	1.194942
4482.000000	1.194848
4480.000000	1.194748
4478.000000	1.194765
4476.000000	1.194877
4474.000000	1.194915
4472.000000	1.194918
4470.000000	1.194985
4468.000000	1.194958
4466.000000	1.194909
4464.000000	1.195038
4462.000000	1.195127
4460.000000	1.194988
4458.000000	1.194832
4456.000000	1.194801
4454.000000	1.194939
4452.000000	1.195142
4450.000000	1.195202
4448.000000	1.195074
4446.000000	1.194928
4444.000000	1.194861
4442.000000	1.194854
4440.000000	1.194849
4438.000000	1.194877
4436.000000	1.194954
4434.000000	1.195012
4432.000000	1.194951
4430.000000	1.194859
4428.000000	1.194779
4426.000000	1.194722
4424.000000	1.194618
4422.000000	1.194544
4420.000000	1.194548
4418.000000	1.194556
4416.000000	1.194545
4414.000000	1.194589
4412.000000	1.194594
4410.000000	1.194616
4408.000000	1.194629
4406.000000	1.194631
4404.000000	1.194701
4402.000000	1.194698
4400.000000	1.194650
4398.000000	1.194731
4396.000000	1.194701
4394.000000	1.194620
4392.000000	1.194798
4390.000000	1.194985
4388.000000	1.194894
4386.000000	1.194705
4384.000000	1.194634
4382.000000	1.194689
4380.000000	1.194787
4378.000000	1.194829
4376.000000	1.194830
4374.000000	1.194768
4372.000000	1.194599
4370.000000	1.194540
4368.000000	1.194675
4366.000000	1.194763
4364.000000	1.194782
4362.000000	1.194822
4360.000000	1.194707
4358.000000	1.194498
4356.000000	1.194413
4354.000000	1.194535
4352.000000	1.194704
4350.000000	1.194743
4348.000000	1.194694
4346.000000	1.194729
4344.000000	1.194771
4342.000000	1.194731
4340.000000	1.194671
4338.000000	1.194659
4336.000000	1.194675
4334.000000	1.194663
4332.000000	1.194561
4330.000000	1.194388
4328.000000	1.194339
4326.000000	1.194477
4324.000000	1.194562
4322.000000	1.194509
4320.000000	1.194430
4318.000000	1.194385
4316.000000	1.194387
4314.000000	1.194483
4312.000000	1.194546
4310.000000	1.194421
4308.000000	1.194169
4306.000000	1.194063
4304.000000	1.194138
4302.000000	1.194318
4300.000000	1.194464
4298.000000	1.194426
4296.000000	1.194337
4294.000000	1.194308
4292.000000	1.194256
4290.000000	1.194223
4288.000000	1.194269
4286.000000	1.194362
4284.000000	1.194418
4282.000000	1.194391
4280.000000	1.194347
4278.000000	1.194315
4276.000000	1.194241
4274.000000	1.194212
4272.000000	1.194304
4270.000000	1.194417
4268.000000	1.194446
4266.000000	1.194429
4264.000000	1.194399
4262.000000	1.194458
4260.000000	1.194457
4258.000000	1.194312
4256.000000	1.194248
4254.000000	1.194225
4252.000000	1.194181
4250.000000	1.194240
4248.000000	1.194203
4246.000000	1.194132
4244.000000	1.194231
4242.000000	1.194310
4240.000000	1.194272
4238.000000	1.194203
4236.000000	1.194140
4234.000000	1.194117
4232.000000	1.194076
4230.000000	1.194011
4228.000000	1.193951
4226.000000	1.193910
4224.000000	1.193921
4222.000000	1.193971
4220.000000	1.193998
4218.000000	1.193901
4216.000000	1.193790
4214.000000	1.193798
4212.000000	1.193751
4210.000000	1.193730
4208.000000	1.193828
4206.000000	1.193806
4204.000000	1.193686
4202.000000	1.193638
4200.000000	1.193622
4198.000000	1.193677
4196.000000	1.193806
4194.000000	1.193935
4192.000000	1.193910
4190.000000	1.193766
4188.000000	1.193679
4186.000000	1.193695
4184.000000	1.193691
4182.000000	1.193657
4180.000000	1.193610
4178.000000	1.193618
4176.000000	1.193636
4174.000000	1.193626
4172.000000	1.193635
4170.000000	1.193648
4168.000000	1.193588
4166.000000	1.193484
4164.000000	1.193386
4162.000000	1.193391
4160.000000	1.193423
4158.000000	1.193352
4156.000000	1.193320
4154.000000	1.193424
4152.000000	1.193395
4150.000000	1.193234
4148.000000	1.193259
4146.000000	1.193455
4144.000000	1.193540
4142.000000	1.193397
4140.000000	1.193127
4138.000000	1.192958
4136.000000	1.192938
4134.000000	1.192955
4132.000000	1.192912
4130.000000	1.192930
4128.000000	1.193036
4126.000000	1.193004
4124.000000	1.192837
4122.000000	1.192749
4120.000000	1.192754
4118.000000	1.192842
4116.000000	1.192886
4114.000000	1.192751
4112.000000	1.192557
4110.000000	1.192461
4108.000000	1.192467
4106.000000	1.192574
4104.000000	1.192619
4102.000000	1.192566
4100.000000	1.192592
4098.000000	1.192674
4096.000000	1.192668
4094.000000	1.192601
4092.000000	1.192528
4090.000000	1.192484
4088.000000	1.192497
4086.000000	1.192556
4084.000000	1.192534
4082.000000	1.192490
4080.000000	1.192397
4078.000000	1.192252
4076.000000	1.192273
4074.000000	1.192380
4072.000000	1.192377
4070.000000	1.192369
4068.000000	1.192329
4066.000000	1.192217
4064.000000	1.192131
4062.000000	1.192113
4060.000000	1.192106
4058.000000	1.192092
4056.000000	1.192044
4054.000000	1.192019
4052.000000	1.192012
4050.000000	1.191912
4048.000000	1.191741
4046.000000	1.191721
4044.000000	1.191820
4042.000000	1.191830
4040.000000	1.191760
4038.000000	1.191697
4036.000000	1.191659
4034.000000	1.191664
4032.000000	1.191650
4030.000000	1.191574
4028.000000	1.191507
4026.000000	1.191523
4024.000000	1.191525
4022.000000	1.191461
4020.000000	1.191392
4018.000000	1.191370
4016.000000	1.191379
4014.000000	1.191346
4012.000000	1.191331
4010.000000	1.191386
4008.000000	1.191324
4006.000000	1.191169
4004.000000	1.191129
4002.000000	1.191160
4000.000000	1.191115
3998.000000	1.191010
3996.000000	1.190953
3994.000000	1.190944
3992.000000	1.190907
3990.000000	1.190966
3988.000000	1.191095
3986.000000	1.191088
3984.000000	1.190986
3982.000000	1.190930
3980.000000	1.190849
3978.000000	1.190726
3976.000000	1.190696
3974.000000	1.190730
3972.000000	1.190755
3970.000000	1.190795
3968.000000	1.190801
3966.000000	1.190777
3964.000000	1.190580
3962.000000	1.190313
3960.000000	1.190269
3958.000000	1.190317
3956.000000	1.190324
3954.000000	1.190222
3952.000000	1.189902
3950.000000	1.189741
3948.000000	1.189903
3946.000000	1.189823
3944.000000	1.189578
3942.000000	1.189905
3940.000000	1.190290
3938.000000	1.190080
3936.000000	1.189509
3934.000000	1.188972
3932.000000	1.189050
3930.000000	1.189602
3928.000000	1.189596
3926.000000	1.189147
3924.000000	1.189085
3922.000000	1.188968
3920.000000	1.188408
3918.000000	1.188410
3916.000000	1.189258
3914.000000	1.189849
3912.000000	1.189690
3910.000000	1.189204
3908.000000	1.187963
3906.000000	1.186106
3904.000000	1.185517
3902.000000	1.186469
3900.000000	1.187941
3898.000000	1.189392
3896.000000	1.189343
3894.000000	1.187516
3892.000000	1.186814
3890.000000	1.187758
3888.000000	1.186947
3886.000000	1.186264
3884.000000	1.187743
3882.000000	1.188049
3880.000000	1.188140
3878.000000	1.188682
3876.000000	1.187649
3874.000000	1.186154
3872.000000	1.184643
3870.000000	1.185002
3868.000000	1.186894
3866.000000	1.186780
3864.000000	1.186792
3862.000000	1.188068
3860.000000	1.188106
3858.000000	1.184466
3856.000000	1.177699
3854.000000	1.177330
3852.000000	1.185728
3850.000000	1.190881
3848.000000	1.189540
3846.000000	1.187189
3844.000000	1.185903
3842.000000	1.184484
3840.000000	1.182083
3838.000000	1.182446
3836.000000	1.185976
3834.000000	1.187408
3832.000000	1.187168
3830.000000	1.187472
3828.000000	1.187266
3826.000000	1.186454
3824.000000	1.184304
3822.000000	1.183011
3820.000000	1.184311
3818.000000	1.183833
3816.000000	1.184383
3814.000000	1.188078
3812.000000	1.188466
3810.000000	1.185285
3808.000000	1.183497
3806.000000	1.184578
3804.000000	1.183583
3802.000000	1.182427
3800.000000	1.185608
3798.000000	1.187373
3796.000000	1.187063
3794.000000	1.187555
3792.000000	1.187581
3790.000000	1.187194
3788.000000	1.186718
3786.000000	1.186406
3784.000000	1.186459
3782.000000	1.186111
3780.000000	1.185916
3778.000000	1.186719
3776.000000	1.187183
3774.000000	1.186412
3772.000000	1.184957
3770.000000	1.184703
3768.000000	1.185511
3766.000000	1.185864
3764.000000	1.186018
3762.000000	1.185248
3760.000000	1.184466
3758.000000	1.184978
3756.000000	1.183655
3754.000000	1.179246
3752.000000	1.177130
3750.000000	1.180192
3748.000000	1.181335
3746.000000	1.178004
3744.000000	1.180646
3742.000000	1.186608
3740.000000	1.184996
3738.000000	1.180698
3736.000000	1.180243
3734.000000	1.182073
3732.000000	1.184097
3730.000000	1.185293
3728.000000	1.184412
3726.000000	1.183752
3724.000000	1.184099
3722.000000	1.184394
3720.000000	1.184812
3718.000000	1.184839
3716.000000	1.183385
3714.000000	1.180718
3712.000000	1.180572
3710.000000	1.183480
3708.000000	1.185397
3706.000000	1.185039
3704.000000	1.183605
3702.000000	1.183303
3700.000000	1.184431
3698.000000	1.184783
3696.000000	1.184162
3694.000000	1.182725
3692.000000	1.179977
3690.000000	1.178300
3688.000000	1.181283
3686.000000	1.185049
3684.000000	1.184775
3682.000000	1.183113
3680.000000	1.181131
3678.000000	1.177578
3676.000000	1.176920
3674.000000	1.179785
3672.000000	1.179342
3670.000000	1.179705
3668.000000	1.183189
3666.000000	1.184022
3664.000000	1.183069
3662.000000	1.182497
3660.000000	1.181349
3658.000000	1.179758
3656.000000	1.180281
3654.000000	1.180566
3652.000000	1.177155
3650.000000	1.175582
3648.000000	1.179129
3646.000000	1.182338
3644.000000	1.182342
3642.000000	1.181521
3640.000000	1.181286
3638.000000	1.181031
3636.000000	1.180478
3634.000000	1.179527
3632.000000	1.176797
3630.000000	1.174811
3628.000000	1.178217
3626.000000	1.181621
3624.000000	1.180536
3622.000000	1.178086
3620.000000	1.177205
3618.000000	1.178537
3616.000000	1.179114
3614.000000	1.178225
3612.000000	1.177677
3610.000000	1.177566
3608.000000	1.178560
3606.000000	1.179748
3604.000000	1.179500
3602.000000	1.178836
3600.000000	1.178667
3598.000000	1.178516
3596.000000	1.178224
3594.000000	1.178367
3592.000000	1.178062
3590.000000	1.176646
3588.000000	1.176469
3586.000000	1.178169
3584.000000	1.179096
3582.000000	1.178739
3580.000000	1.178335
3578.000000	1.178236
3576.000000	1.178224
3574.000000	1.178156
3572.000000	1.177621
3570.000000	1.176308
3568.000000	1.175868
3566.000000	1.177289
3564.000000	1.178333
3562.000000	1.178174
3560.000000	1.178052
3558.000000	1.178172
3556.000000	1.178030
3554.000000	1.177666
3552.000000	1.177619
3550.000000	1.177613
3548.000000	1.177257
3546.000000	1.177326
3544.000000	1.177904
3542.000000	1.178285
3540.000000	1.178283
3538.000000	1.178080
3536.000000	1.178101
3534.000000	1.178303
3532.000000	1.178231
3530.000000	1.178022
3528.000000	1.177965
3526.000000	1.178123
3524.000000	1.178374
3522.000000	1.178727
3520.000000	1.178957
3518.000000	1.179016
3516.000000	1.179055
3514.000000	1.179055
3512.000000	1.179050
3510.000000	1.179201
3508.000000	1.179504
3506.000000	1.179468
3504.000000	1.179272
3502.000000	1.179638
3500.000000	1.180076
3498.000000	1.180195
3496.000000	1.180370
3494.000000	1.180616
3492.000000	1.180770
3490.000000	1.180936
3488.000000	1.181180
3486.000000	1.181369
3484.000000	1.181425
3482.000000	1.181608
3480.000000	1.182088
3478.000000	1.182571
3476.000000	1.182795
3474.000000	1.183010
3472.000000	1.183314
3470.000000	1.183622
3468.000000	1.183994
3466.000000	1.184424
3464.000000	1.184765
3462.000000	1.185074
3460.000000	1.185437
3458.000000	1.185817
3456.000000	1.186163
3454.000000	1.186507
3452.000000	1.186897
3450.000000	1.187136
3448.000000	1.187355
3446.000000	1.187888
3444.000000	1.188473
3442.000000	1.188981
3440.000000	1.189460
3438.000000	1.189864
3436.000000	1.190261
3434.000000	1.190788
3432.000000	1.191317
3430.000000	1.191806
3428.000000	1.192267
3426.000000	1.192513
3424.000000	1.192703
3422.000000	1.193005
3420.000000	1.193424
3418.000000	1.193903
3416.000000	1.194219
3414.000000	1.194438
3412.000000	1.194737
3410.000000	1.195001
3408.000000	1.195162
3406.000000	1.195358
3404.000000	1.195539
3402.000000	1.195702
3400.000000	1.195881
3398.000000	1.196118
3396.000000	1.196393
3394.000000	1.196588
3392.000000	1.196782
3390.000000	1.197060
3388.000000	1.197220
3386.000000	1.197294
3384.000000	1.197432
3382.000000	1.197549
3380.000000	1.197623
3378.000000	1.197692
3376.000000	1.197859
3374.000000	1.198055
3372.000000	1.198091
3370.000000	1.198079
3368.000000	1.198185
3366.000000	1.198335
3364.000000	1.198504
3362.000000	1.198646
3360.000000	1.198721
3358.000000	1.198846
3356.000000	1.198949
3354.000000	1.198959
3352.000000	1.198944
3350.000000	1.198972
3348.000000	1.199132
3346.000000	1.199320
3344.000000	1.199391
3342.000000	1.199386
3340.000000	1.199397
3338.000000	1.199383
3336.000000	1.199440
3334.000000	1.199567
3332.000000	1.199678
3330.000000	1.199836
3328.000000	1.199868
3326.000000	1.199826
3324.000000	1.199841
3322.000000	1.199921
3320.000000	1.200039
3318.000000	1.200138
3316.000000	1.200173
3314.000000	1.200179
3312.000000	1.200219
3310.000000	1.200265
3308.000000	1.200255
3306.000000	1.200225
3304.000000	1.200293
3302.000000	1.200467
3300.000000	1.200627
3298.000000	1.200669
3296.000000	1.200624
3294.000000	1.200536
3292.000000	1.200522
3290.000000	1.200765
3288.000000	1.201087
3286.000000	1.201155
3284.000000	1.201054
3282.000000	1.201072
3280.000000	1.201130
3278.000000	1.201136
3276.000000	1.201170
3274.000000	1.201192
3272.000000	1.201209
3270.000000	1.201337
3268.000000	1.201424
3266.000000	1.201454
3264.000000	1.201548
3262.000000	1.201601
3260.000000	1.201618
3258.000000	1.201661
3256.000000	1.201648
3254.000000	1.201651
3252.000000	1.201742
3250.000000	1.201796
3248.000000	1.201744
3246.000000	1.201768
3244.000000	1.201954
3242.000000	1.202059
3240.000000	1.202076
3238.000000	1.202177
3236.000000	1.202241
3234.000000	1.202234
3232.000000	1.202258
3230.000000	1.202355
3228.000000	1.202488
3226.000000	1.202638
3224.000000	1.202727
3222.000000	1.202766
3220.000000	1.202784
3218.000000	1.202781
3216.000000	1.202788
3214.000000	1.202800
3212.000000	1.202870
3210.000000	1.203034
3208.000000	1.203140
3206.000000	1.203135
3204.000000	1.203067
3202.000000	1.203046
3200.000000	1.203218
3198.000000	1.203321
3196.000000	1.203213
3194.000000	1.203194
3192.000000	1.203300
3190.000000	1.203347
3188.000000	1.203331
3186.000000	1.203302
3184.000000	1.203371
3182.000000	1.203429
3180.000000	1.203402
3178.000000	1.203423
3176.000000	1.203507
3174.000000	1.203540
3172.000000	1.203584
3170.000000	1.203638
3168.000000	1.203682
3166.000000	1.203757
3164.000000	1.203752
3162.000000	1.203699
3160.000000	1.203733
3158.000000	1.203835
3156.000000	1.203918
3154.000000	1.203892
3152.000000	1.203927
3150.000000	1.204080
3148.000000	1.204161
3146.000000	1.204199
3144.000000	1.204192
3142.000000	1.204255
3140.000000	1.204336
3138.000000	1.204340
3136.000000	1.204396
3134.000000	1.204409
3132.000000	1.204484
3130.000000	1.204634
3128.000000	1.204686
3126.000000	1.204686
3124.000000	1.204741
3122.000000	1.204752
3120.000000	1.204663
3118.000000	1.204640
3116.000000	1.204707
3114.000000	1.204812
3112.000000	1.204915
3110.000000	1.204878
3108.000000	1.204822
3106.000000	1.204823
3104.000000	1.204745
3102.000000	1.204759
3100.000000	1.204888
3098.000000	1.204862
3096.000000	1.204797
3094.000000	1.204766
3092.000000	1.204658
3090.000000	1.204547
3088.000000	1.204529
3086.000000	1.204532
3084.000000	1.204394
3082.000000	1.204226
3080.000000	1.204219
3078.000000	1.204244
3076.000000	1.204180
3074.000000	1.204033
3072.000000	1.203925
3070.000000	1.203860
3068.000000	1.203707
3066.000000	1.203610
3064.000000	1.203650
3062.000000	1.203710
3060.000000	1.203748
3058.000000	1.203694
3056.000000	1.203650
3054.000000	1.203608
3052.000000	1.203530
3050.000000	1.203477
3048.000000	1.203340
3046.000000	1.203177
3044.000000	1.203104
3042.000000	1.203095
3040.000000	1.203133
3038.000000	1.203115
3036.000000	1.203011
3034.000000	1.202901
3032.000000	1.202833
3030.000000	1.202778
3028.000000	1.202575
3026.000000	1.202316
3024.000000	1.202219
3022.000000	1.202334
3020.000000	1.202577
3018.000000	1.202787
3016.000000	1.203027
3014.000000	1.203182
3012.000000	1.203224
3010.000000	1.203195
3008.000000	1.203048
3006.000000	1.202802
3004.000000	1.202605
3002.000000	1.202517
3000.000000	1.202454
2998.000000	1.202407
2996.000000	1.202377
2994.000000	1.202324
2992.000000	1.202256
2990.000000	1.202186
2988.000000	1.202122
2986.000000	1.202052
2984.000000	1.201962
2982.000000	1.201931
2980.000000	1.201977
2978.000000	1.201998
2976.000000	1.201940
2974.000000	1.201832
2972.000000	1.201770
2970.000000	1.201803
2968.000000	1.202055
2966.000000	1.202497
2964.000000	1.203179
2962.000000	1.203839
2960.000000	1.204143
2958.000000	1.204084
2956.000000	1.203778
2954.000000	1.203319
2952.000000	1.202862
2950.000000	1.202474
2948.000000	1.201952
2946.000000	1.201371
2944.000000	1.200954
2942.000000	1.200698
2940.000000	1.200492
2938.000000	1.200404
2936.000000	1.200477
2934.000000	1.200577
2932.000000	1.200618
2930.000000	1.200612
2928.000000	1.200784
2926.000000	1.201334
2924.000000	1.202271
2922.000000	1.203290
2920.000000	1.203963
2918.000000	1.204145
2916.000000	1.204025
2914.000000	1.203731
2912.000000	1.203371
2910.000000	1.202994
2908.000000	1.202634
2906.000000	1.202389
2904.000000	1.202293
2902.000000	1.202170
2900.000000	1.202065
2898.000000	1.201979
2896.000000	1.201823
2894.000000	1.201684
2892.000000	1.201653
2890.000000	1.201653
2888.000000	1.201523
2886.000000	1.201332
2884.000000	1.201187
2882.000000	1.200998
2880.000000	1.200733
2878.000000	1.200570
2876.000000	1.200469
2874.000000	1.200243
2872.000000	1.199957
2870.000000	1.199602
2868.000000	1.199222
2866.000000	1.198982
2864.000000	1.199120
2862.000000	1.199715
2860.000000	1.200480
2858.000000	1.201043
2856.000000	1.201371
2854.000000	1.201529
2852.000000	1.201615
2850.000000	1.201775
2848.000000	1.202004
2846.000000	1.202015
2844.000000	1.201752
2842.000000	1.201431
2840.000000	1.201107
2838.000000	1.200923
2836.000000	1.200921
2834.000000	1.200890
2832.000000	1.200793
2830.000000	1.200725
2828.000000	1.200708
2826.000000	1.200690
2824.000000	1.200655
2822.000000	1.200536
2820.000000	1.200427
2818.000000	1.200463
2816.000000	1.200453
2814.000000	1.200390
2812.000000	1.200436
2810.000000	1.200493
2808.000000	1.200349
2806.000000	1.200140
2804.000000	1.200067
2802.000000	1.200064
2800.000000	1.200124
2798.000000	1.200189
2796.000000	1.200193
2794.000000	1.200172
2792.000000	1.200180
2790.000000	1.200237
2788.000000	1.200221
2786.000000	1.200141
2784.000000	1.200116
2782.000000	1.200104
2780.000000	1.200079
2778.000000	1.200085
2776.000000	1.200088
2774.000000	1.200074
2772.000000	1.200041
2770.000000	1.200017
2768.000000	1.200079
2766.000000	1.200073
2764.000000	1.199978
2762.000000	1.199908
2760.000000	1.199929
2758.000000	1.199968
2756.000000	1.200007
2754.000000	1.199991
2752.000000	1.199999
2750.000000	1.200029
2748.000000	1.200061
2746.000000	1.200051
2744.000000	1.200073
2742.000000	1.200122
2740.000000	1.200141
2738.000000	1.200170
2736.000000	1.200245
2734.000000	1.200239
2732.000000	1.200148
2730.000000	1.200092
2728.000000	1.200091
2726.000000	1.200143
2724.000000	1.200245
2722.000000	1.200327
2720.000000	1.200377
2718.000000	1.200376
2716.000000	1.200379
2714.000000	1.200423
2712.000000	1.200472
2710.000000	1.200536
2708.000000	1.200575
2706.000000	1.200658
2704.000000	1.200784
2702.000000	1.200839
2700.000000	1.200913
2698.000000	1.200995
2696.000000	1.201060
2694.000000	1.201122
2692.000000	1.201176
2690.000000	1.201223
2688.000000	1.201279
2686.000000	1.201395
2684.000000	1.201515
2682.000000	1.201542
2680.000000	1.201603
2678.000000	1.201700
2676.000000	1.201706
2674.000000	1.201742
2672.000000	1.201840
2670.000000	1.201870
2668.000000	1.201984
2666.000000	1.202132
2664.000000	1.202150
2662.000000	1.202183
2660.000000	1.202320
2658.000000	1.202463
2656.000000	1.202552
2654.000000	1.202558
2652.000000	1.202565
2650.000000	1.202648
2648.000000	1.202760
2646.000000	1.202758
2644.000000	1.202822
2642.000000	1.202900
2640.000000	1.202884
2638.000000	1.202896
2636.000000	1.202944
2634.000000	1.202993
2632.000000	1.203056
2630.000000	1.203069
2628.000000	1.202978
2626.000000	1.202959
2624.000000	1.203013
2622.000000	1.203015
2620.000000	1.203044
2618.000000	1.203138
2616.000000	1.203226
2614.000000	1.203214
2612.000000	1.203176
2610.000000	1.203118
2608.000000	1.203151
2606.000000	1.203255
2604.000000	1.203245
2602.000000	1.203202
2600.000000	1.203280
2598.000000	1.203400
2596.000000	1.203490
2594.000000	1.203513
2592.000000	1.203527
2590.000000	1.203549
2588.000000	1.203546
2586.000000	1.203578
2584.000000	1.203630
2582.000000	1.203661
2580.000000	1.203657
2578.000000	1.203693
2576.000000	1.203692
2574.000000	1.203692
2572.000000	1.203760
2570.000000	1.203821
2568.000000	1.203814
2566.000000	1.203755
2564.000000	1.203792
2562.000000	1.203841
2560.000000	1.203868
2558.000000	1.203932
2556.000000	1.203964
2554.000000	1.203846
2552.000000	1.203776
2550.000000	1.203792
2548.000000	1.203785
2546.000000	1.203818
2544.000000	1.203885
2542.000000	1.203867
2540.000000	1.203863
2538.000000	1.203800
2536.000000	1.203735
2534.000000	1.203706
2532.000000	1.203744
2530.000000	1.203768
2528.000000	1.203824
2526.000000	1.203870
2524.000000	1.203870
2522.000000	1.203812
2520.000000	1.203783
2518.000000	1.203755
2516.000000	1.203764
2514.000000	1.203791
2512.000000	1.203750
2510.000000	1.203734
2508.000000	1.203756
2506.000000	1.203713
2504.000000	1.203683
2502.000000	1.203702
2500.000000	1.203705
2498.000000	1.203710
2496.000000	1.203741
2494.000000	1.203752
2492.000000	1.203744
2490.000000	1.203728
2488.000000	1.203697
2486.000000	1.203654
2484.000000	1.203689
2482.000000	1.203792
2480.000000	1.203828
2478.000000	1.203778
2476.000000	1.203747
2474.000000	1.203748
2472.000000	1.203737
2470.000000	1.203673
2468.000000	1.203651
2466.000000	1.203720
2464.000000	1.203790
2462.000000	1.203737
2460.000000	1.203706
2458.000000	1.203744
2456.000000	1.203794
2454.000000	1.203804
2452.000000	1.203800
2450.000000	1.203787
2448.000000	1.203779
2446.000000	1.203755
2444.000000	1.203779
2442.000000	1.203770
2440.000000	1.203687
2438.000000	1.203621
2436.000000	1.203652
2434.000000	1.203717
2432.000000	1.203709
2430.000000	1.203687
2428.000000	1.203668
2426.000000	1.203645
2424.000000	1.203629
2422.000000	1.203636
2420.000000	1.203637
2418.000000	1.203606
2416.000000	1.203700
2414.000000	1.203724
2412.000000	1.203630
2410.000000	1.203502
2408.000000	1.203498
2406.000000	1.203517
2404.000000	1.203497
2402.000000	1.203517
2400.000000	1.203578
2398.000000	1.203558
2396.000000	1.203570
2394.000000	1.203524
2392.000000	1.203525
2390.000000	1.203508
2388.000000	1.203439
2386.000000	1.203346
2384.000000	1.203250
2382.000000	1.203124
2380.000000	1.202979
2378.000000	1.202721
2376.000000	1.202379
2374.000000	1.201986
2372.000000	1.201568
2370.000000	1.201282
2368.000000	1.201129
2366.000000	1.200914
2364.000000	1.200761
2362.000000	1.200895
2360.000000	1.201219
2358.000000	1.201533
2356.000000	1.201907
2354.000000	1.202387
2352.000000	1.202860
2350.000000	1.202883
2348.000000	1.202266
2346.000000	1.201760
2344.000000	1.201904
2342.000000	1.202498
2340.000000	1.203284
2338.000000	1.203551
2336.000000	1.203102
2334.000000	1.202430
2332.000000	1.202107
2330.000000	1.202218
2328.000000	1.202404
2326.000000	1.202545
2324.000000	1.202670
2322.000000	1.202691
2320.000000	1.202762
2318.000000	1.202853
2316.000000	1.202962
2314.000000	1.203047
2312.000000	1.203086
2310.000000	1.203119
2308.000000	1.203145
2306.000000	1.203155
2304.000000	1.203199
2302.000000	1.203210
2300.000000	1.203210
2298.000000	1.203204
2296.000000	1.203275
2294.000000	1.203323
2292.000000	1.203323
2290.000000	1.203283
2288.000000	1.203312
2286.000000	1.203400
2284.000000	1.203401
2282.000000	1.203346
2280.000000	1.203330
2278.000000	1.203340
2276.000000	1.203376
2274.000000	1.203331
2272.000000	1.203297
2270.000000	1.203342
2268.000000	1.203275
2266.000000	1.203133
2264.000000	1.203125
2262.000000	1.203231
2260.000000	1.203271
2258.000000	1.203206
2256.000000	1.203223
2254.000000	1.203141
2252.000000	1.202954
2250.000000	1.202966
2248.000000	1.203102
2246.000000	1.203003
2244.000000	1.202878
2242.000000	1.202834
2240.000000	1.202845
2238.000000	1.202840
2236.000000	1.202804
2234.000000	1.202648
2232.000000	1.202580
2230.000000	1.202575
2228.000000	1.202600
2226.000000	1.202545
2224.000000	1.202422
2222.000000	1.202304
2220.000000	1.202298
2218.000000	1.202386
2216.000000	1.202420
2214.000000	1.202333
2212.000000	1.202193
2210.000000	1.202055
2208.000000	1.202017
2206.000000	1.202056
2204.000000	1.202016
2202.000000	1.201937
2200.000000	1.201887
2198.000000	1.201758
2196.000000	1.201683
2194.000000	1.201764
2192.000000	1.201799
2190.000000	1.201707
2188.000000	1.201700
2186.000000	1.201686
2184.000000	1.201552
2182.000000	1.201466
2180.000000	1.201453
2178.000000	1.201402
2176.000000	1.201356
2174.000000	1.201328
2172.000000	1.201263
2170.000000	1.201153
2168.000000	1.201137
2166.000000	1.201172
2164.000000	1.201121
2162.000000	1.200972
2160.000000	1.200935
2158.000000	1.200890
2156.000000	1.200743
2154.000000	1.200712
2152.000000	1.200795
2150.000000	1.200784
2148.000000	1.200797
2146.000000	1.200734
2144.000000	1.200610
2142.000000	1.200528
2140.000000	1.200449
2138.000000	1.200306
2136.000000	1.200306
2134.000000	1.200320
2132.000000	1.200282
2130.000000	1.200227
2128.000000	1.200146
2126.000000	1.200106
2124.000000	1.200123
2122.000000	1.200105
2120.000000	1.200062
2118.000000	1.199984
2116.000000	1.199906
2114.000000	1.199848
2112.000000	1.199863
2110.000000	1.199864
2108.000000	1.199929
2106.000000	1.199968
2104.000000	1.199956
2102.000000	1.199880
2100.000000	1.199765
2098.000000	1.199681
2096.000000	1.199685
2094.000000	1.199653
2092.000000	1.199619
2090.000000	1.199605
2088.000000	1.199585
2086.000000	1.199565
2084.000000	1.199500
2082.000000	1.199347
2080.000000	1.199307
2078.000000	1.199317
2076.000000	1.199320
2074.000000	1.199283
2072.000000	1.199267
2070.000000	1.199260
2068.000000	1.199225
2066.000000	1.199068
2064.000000	1.198970
2062.000000	1.198940
2060.000000	1.198885
2058.000000	1.198920
2056.000000	1.198979
2054.000000	1.199012
2052.000000	1.198981
2050.000000	1.198875
2048.000000	1.198896
2046.000000	1.198873
2044.000000	1.198825
2042.000000	1.198783
2040.000000	1.198745
2038.000000	1.198728
2036.000000	1.198711
2034.000000	1.198602
2032.000000	1.198540
2030.000000	1.198498
2028.000000	1.198568
2026.000000	1.198578
2024.000000	1.198440
2022.000000	1.198359
2020.000000	1.198287
2018.000000	1.198136
2016.000000	1.198269
2014.000000	1.198343
2012.000000	1.198279
2010.000000	1.198301
2008.000000	1.198325
2006.000000	1.198242
2004.000000	1.198179
2002.000000	1.198168
2000.000000	1.198162
1998.000000	1.198108
1996.000000	1.198046
1994.000000	1.197803
1992.000000	1.197771
1990.000000	1.197952
1988.000000	1.197976
1986.000000	1.197982
1984.000000	1.198032
1982.000000	1.198009
1980.000000	1.197918
1978.000000	1.197864
1976.000000	1.197843
1974.000000	1.197800
1972.000000	1.197824
1970.000000	1.197772
1968.000000	1.197576
1966.000000	1.197647
1964.000000	1.197814
1962.000000	1.197760
1960.000000	1.197720
1958.000000	1.197896
1956.000000	1.197891
1954.000000	1.197743
1952.000000	1.197796
1950.000000	1.197850
1948.000000	1.197784
1946.000000	1.197581
1944.000000	1.197310
1942.000000	1.197428
1940.000000	1.197816
1938.000000	1.197876
1936.000000	1.197870
1934.000000	1.197864
1932.000000	1.197873
1930.000000	1.197823
1928.000000	1.197849
1926.000000	1.197690
1924.000000	1.197464
1922.000000	1.197606
1920.000000	1.197245
1918.000000	1.197104
1916.000000	1.197956
1914.000000	1.198105
1912.000000	1.197934
1910.000000	1.197794
1908.000000	1.197996
1906.000000	1.198113
1904.000000	1.198112
1902.000000	1.198015
1900.000000	1.198053
1898.000000	1.197998
1896.000000	1.197984
1894.000000	1.198065
1892.000000	1.197827
1890.000000	1.197591
1888.000000	1.198107
1886.000000	1.198114
1884.000000	1.198105
1882.000000	1.198195
1880.000000	1.198213
1878.000000	1.198192
1876.000000	1.198260
1874.000000	1.198131
1872.000000	1.197454
1870.000000	1.196525
1868.000000	1.197264
1866.000000	1.198037
1864.000000	1.198042
1862.000000	1.197959
1860.000000	1.198038
1858.000000	1.198026
1856.000000	1.198074
1854.000000	1.198013
1852.000000	1.198051
1850.000000	1.197850
1848.000000	1.197294
1846.000000	1.195649
1844.000000	1.195913
1842.000000	1.197895
1840.000000	1.198046
1838.000000	1.197844
1836.000000	1.197978
1834.000000	1.197836
1832.000000	1.196898
1830.000000	1.196633
1828.000000	1.197415
1826.000000	1.197170
1824.000000	1.197804
1822.000000	1.198334
1820.000000	1.198269
1818.000000	1.198213
1816.000000	1.198291
1814.000000	1.197995
1812.000000	1.197619
1810.000000	1.197775
1808.000000	1.198202
1806.000000	1.198164
1804.000000	1.197718
1802.000000	1.197074
1800.000000	1.197321
1798.000000	1.197836
1796.000000	1.197309
1794.000000	1.195381
1792.000000	1.195856
1790.000000	1.197988
1788.000000	1.198169
1786.000000	1.197388
1784.000000	1.197617
1782.000000	1.197595
1780.000000	1.197789
1778.000000	1.197995
1776.000000	1.196822
1774.000000	1.194284
1772.000000	1.194921
1770.000000	1.196872
1768.000000	1.197233
1766.000000	1.198236
1764.000000	1.197226
1762.000000	1.196741
1760.000000	1.197844
1758.000000	1.197449
1756.000000	1.197715
1754.000000	1.197048
1752.000000	1.195151
1750.000000	1.196267
1748.000000	1.197603
1746.000000	1.197980
1744.000000	1.197778
1742.000000	1.196994
1740.000000	1.196744
1738.000000	1.197284
1736.000000	1.193180
1734.000000	1.192533
1732.000000	1.197720
1730.000000	1.199049
1728.000000	1.199402
1726.000000	1.199364
1724.000000	1.199195
1722.000000	1.198549
1720.000000	1.194976
1718.000000	1.192478
1716.000000	1.196134
1714.000000	1.198853
1712.000000	1.199642
1710.000000	1.199157
1708.000000	1.198255
1706.000000	1.197444
1704.000000	1.197267
1702.000000	1.192435
1700.000000	1.192411
1698.000000	1.194243
1696.000000	1.194076
1694.000000	1.199360
1692.000000	1.200337
1690.000000	1.199419
1688.000000	1.197436
1686.000000	1.191981
1684.000000	1.193808
1682.000000	1.199614
1680.000000	1.200122
1678.000000	1.198698
1676.000000	1.196773
1674.000000	1.198584
1672.000000	1.198270
1670.000000	1.197261
1668.000000	1.199639
1666.000000	1.200391
1664.000000	1.198827
1662.000000	1.199653
1660.000000	1.200898
1658.000000	1.200130
1656.000000	1.194504
1654.000000	1.187831
1652.000000	1.194628
1650.000000	1.199932
1648.000000	1.196569
1646.000000	1.197591
1644.000000	1.201183
1642.000000	1.201581
1640.000000	1.200539
1638.000000	1.197269
1636.000000	1.195638
1634.000000	1.200112
1632.000000	1.202018
1630.000000	1.200884
1628.000000	1.200455
1626.000000	1.200033
1624.000000	1.199095
1622.000000	1.200446
1620.000000	1.199863
1618.000000	1.196282
1616.000000	1.198200
1614.000000	1.201662
1612.000000	1.201307
1610.000000	1.201369
1608.000000	1.202042
1606.000000	1.202671
1604.000000	1.202723
1602.000000	1.202890
1600.000000	1.202976
1598.000000	1.202980
1596.000000	1.202816
1594.000000	1.202874
1592.000000	1.202807
1590.000000	1.202806
1588.000000	1.202871
1586.000000	1.202906
1584.000000	1.202861
1582.000000	1.202914
1580.000000	1.202002
1578.000000	1.198052
1576.000000	1.198088
1574.000000	1.202504
1572.000000	1.201295
1570.000000	1.200111
1568.000000	1.201876
1566.000000	1.202306
1564.000000	1.201279
1562.000000	1.196049
1560.000000	1.190198
1558.000000	1.195458
1556.000000	1.200291
1554.000000	1.201282
1552.000000	1.202466
1550.000000	1.202537
1548.000000	1.202332
1546.000000	1.200481
1544.000000	1.198064
1542.000000	1.194255
1540.000000	1.193879
1538.000000	1.200258
1536.000000	1.201875
1534.000000	1.200301
1532.000000	1.202050
1530.000000	1.202231
1528.000000	1.200759
1526.000000	1.199953
1524.000000	1.198270
1522.000000	1.196165
1520.000000	1.198961
1518.000000	1.200271
1516.000000	1.200859
1514.000000	1.201490
1512.000000	1.200995
1510.000000	1.198609
1508.000000	1.193567
1506.000000	1.195458
1504.000000	1.201069
1502.000000	1.200304
1500.000000	1.197012
1498.000000	1.194736
1496.000000	1.197452
1494.000000	1.202788
1492.000000	1.203803
1490.000000	1.203611
1488.000000	1.204269
1486.000000	1.204522
1484.000000	1.204215
1482.000000	1.203514
1480.000000	1.203151
1478.000000	1.201857
1476.000000	1.200116
1474.000000	1.198187
1472.000000	1.199658
1470.000000	1.202499
1468.000000	1.202076
1466.000000	1.200508
1464.000000	1.201379
1462.000000	1.201875
1460.000000	1.198279
1458.000000	1.193956
1456.000000	1.196997
1454.000000	1.201219
1452.000000	1.201979
1450.000000	1.202896
1448.000000	1.203415
1446.000000	1.203626
1444.000000	1.202952
1442.000000	1.202577
1440.000000	1.201416
1438.000000	1.198982
1436.000000	1.200187
1434.000000	1.202583
1432.000000	1.201911
1430.000000	1.201593
1428.000000	1.202063
1426.000000	1.202008
1424.000000	1.201548
1422.000000	1.200339
1420.000000	1.198304
1418.000000	1.200198
1416.000000	1.201932
1414.000000	1.201973
1412.000000	1.201642
1410.000000	1.201495
1408.000000	1.201054
1406.000000	1.200857
1404.000000	1.201656
1402.000000	1.202286
1400.000000	1.201730
1398.000000	1.201818
1396.000000	1.201258
1394.000000	1.201631
1392.000000	1.202383
1390.000000	1.201438
1388.000000	1.200410
1386.000000	1.201305
1384.000000	1.202190
1382.000000	1.202320
1380.000000	1.201960
1378.000000	1.201615
1376.000000	1.201057
1374.000000	1.201037
1372.000000	1.201560
1370.000000	1.201539
1368.000000	1.201492
1366.000000	1.201342
1364.000000	1.200635
1362.000000	1.200682
1360.000000	1.201222
1358.000000	1.201340
1356.000000	1.201169
1354.000000	1.201152
1352.000000	1.201128
1350.000000	1.201087
1348.000000	1.200994
1346.000000	1.200977
1344.000000	1.200889
1342.000000	1.200519
1340.000000	1.200116
1338.000000	1.200379
1336.000000	1.200714
1334.000000	1.200882
1332.000000	1.200840
1330.000000	1.200680
1328.000000	1.200561
1326.000000	1.200547
1324.000000	1.200380
1322.000000	1.200145
1320.000000	1.199960
1318.000000	1.199956
1316.000000	1.199935
1314.000000	1.199878
1312.000000	1.199860
1310.000000	1.199921
1308.000000	1.199864
1306.000000	1.199771
1304.000000	1.199595
1302.000000	1.199503
1300.000000	1.199430
1298.000000	1.199406
1296.000000	1.199348
1294.000000	1.199322
1292.000000	1.199139
1290.000000	1.199185
1288.000000	1.199280
1286.000000	1.199182
1284.000000	1.199054
1282.000000	1.199130
1280.000000	1.199182
1278.000000	1.199185
1276.000000	1.199184
1274.000000	1.199157
1272.000000	1.199242
1270.000000	1.199592
1268.000000	1.200097
1266.000000	1.201196
1264.000000	1.203133
1262.000000	1.205692
1260.000000	1.207768
1258.000000	1.208476
1256.000000	1.207453
1254.000000	1.205609
1252.000000	1.203803
1250.000000	1.202709
1248.000000	1.202305
1246.000000	1.202285
1244.000000	1.202333
1242.000000	1.202600
1240.000000	1.202940
1238.000000	1.203254
1236.000000	1.203469
1234.000000	1.203726
1232.000000	1.203873
1230.000000	1.204029
1228.000000	1.204231
1226.000000	1.204591
1224.000000	1.204970
1222.000000	1.205199
1220.000000	1.205403
1218.000000	1.205666
1216.000000	1.205890
1214.000000	1.206182
1212.000000	1.206400
1210.000000	1.206743
1208.000000	1.207039
1206.000000	1.207264
1204.000000	1.207515
1202.000000	1.207871
1200.000000	1.208013
1198.000000	1.208339
1196.000000	1.208729
1194.000000	1.209192
1192.000000	1.209514
1190.000000	1.209799
1188.000000	1.210054
1186.000000	1.210320
1184.000000	1.210376
1182.000000	1.210681
1180.000000	1.211753
1178.000000	1.212608
1176.000000	1.212630
1174.000000	1.212761
1172.000000	1.213091
1170.000000	1.213502
1168.000000	1.213969
1166.000000	1.214400
1164.000000	1.214804
1162.000000	1.215292
1160.000000	1.215508
1158.000000	1.215898
1156.000000	1.216228
1154.000000	1.216486
1152.000000	1.216843
1150.000000	1.217293
1148.000000	1.217668
1146.000000	1.218030
1144.000000	1.218147
1142.000000	1.218377
1140.000000	1.218752
1138.000000	1.219029
1136.000000	1.219250
1134.000000	1.219542
1132.000000	1.219557
1130.000000	1.219614
1128.000000	1.220124
1126.000000	1.220694
1124.000000	1.221013
1122.000000	1.221227
1120.000000	1.221064
1118.000000	1.221397
1116.000000	1.222110
1114.000000	1.222634
1112.000000	1.222666
1110.000000	1.222943
1108.000000	1.223478
1106.000000	1.223910
1104.000000	1.224225
1102.000000	1.224520
1100.000000	1.224956
1098.000000	1.225568
1096.000000	1.225932
1094.000000	1.226347
1092.000000	1.226540
1090.000000	1.226282
1088.000000	1.226358
1086.000000	1.226667
1084.000000	1.226508
1082.000000	1.226168
1080.000000	1.225951
1078.000000	1.225937
1076.000000	1.225685
1074.000000	1.225054
1072.000000	1.224424
1070.000000	1.224230
1068.000000	1.224367
1066.000000	1.224111
1064.000000	1.223157
1062.000000	1.222516
1060.000000	1.222317
1058.000000	1.221694
1056.000000	1.220878
1054.000000	1.220127
1052.000000	1.219411
1050.000000	1.220194
1048.000000	1.220959
1046.000000	1.220999
1044.000000	1.219891
1042.000000	1.218585
1040.000000	1.217606
1038.000000	1.217338
1036.000000	1.217191
1034.000000	1.216958
1032.000000	1.216464
1030.000000	1.215851
1028.000000	1.215017
1026.000000	1.214474
1024.000000	1.214245
1022.000000	1.214132
1020.000000	1.213725
1018.000000	1.213250
1016.000000	1.212714
1014.000000	1.211929
1012.000000	1.209879
1010.000000	1.207984
1008.000000	1.206578
1006.000000	1.205168
1004.000000	1.204101
1002.000000	1.204990
1000.000000	1.203277
