PE IR       SUBTECH     SPECTRUM    ASCII       PEDS        4.00        
   -1
TE110A_089_80K_AFTER_150K.ASC
20/05/14
16:32:02.00
20/05/14
16:32:02.00
Administrator
TE110A.Thursday, May 14 2020, 020.
1000.000000
#HDR
-1
-1
#GR
cm-1
A
1.0
0.0
6000.000000
-2.000000
2501
8
1.261855
1.201937
#DATA
6000.000000	1.214178
5998.000000	1.214250
5996.000000	1.214206
5994.000000	1.214100
5992.000000	1.214119
5990.000000	1.214464
5988.000000	1.214378
5986.000000	1.214030
5984.000000	1.213950
5982.000000	1.214394
5980.000000	1.214827
5978.000000	1.214752
5976.000000	1.214357
5974.000000	1.214367
5972.000000	1.214539
5970.000000	1.213979
5968.000000	1.213445
5966.000000	1.213595
5964.000000	1.213965
5962.000000	1.214432
5960.000000	1.214428
5958.000000	1.214516
5956.000000	1.214348
5954.000000	1.213778
5952.000000	1.213549
5950.000000	1.213664
5948.000000	1.213826
5946.000000	1.213901
5944.000000	1.214129
5942.000000	1.214481
5940.000000	1.214464
5938.000000	1.213950
5936.000000	1.213555
5934.000000	1.213512
5932.000000	1.214036
5930.000000	1.214310
5928.000000	1.214206
5926.000000	1.213921
5924.000000	1.213654
5922.000000	1.213696
5920.000000	1.213939
5918.000000	1.214136
5916.000000	1.214184
5914.000000	1.214056
5912.000000	1.213807
5910.000000	1.213852
5908.000000	1.213942
5906.000000	1.214077
5904.000000	1.214134
5902.000000	1.213858
5900.000000	1.213927
5898.000000	1.214053
5896.000000	1.214251
5894.000000	1.214132
5892.000000	1.213831
5890.000000	1.213561
5888.000000	1.213437
5886.000000	1.213388
5884.000000	1.213308
5882.000000	1.213492
5880.000000	1.213598
5878.000000	1.213782
5876.000000	1.213803
5874.000000	1.214019
5872.000000	1.214409
5870.000000	1.214297
5868.000000	1.213729
5866.000000	1.213344
5864.000000	1.213480
5862.000000	1.213761
5860.000000	1.213631
5858.000000	1.213210
5856.000000	1.213070
5854.000000	1.213532
5852.000000	1.214064
5850.000000	1.214480
5848.000000	1.214230
5846.000000	1.213736
5844.000000	1.213466
5842.000000	1.213197
5840.000000	1.213231
5838.000000	1.213233
5836.000000	1.213237
5834.000000	1.213484
5832.000000	1.213507
5830.000000	1.213308
5828.000000	1.213002
5826.000000	1.212807
5824.000000	1.213182
5822.000000	1.213539
5820.000000	1.213609
5818.000000	1.213930
5816.000000	1.214201
5814.000000	1.214122
5812.000000	1.213702
5810.000000	1.213411
5808.000000	1.213750
5806.000000	1.214339
5804.000000	1.214389
5802.000000	1.214198
5800.000000	1.214108
5798.000000	1.214241
5796.000000	1.214606
5794.000000	1.214490
5792.000000	1.213931
5790.000000	1.213464
5788.000000	1.213371
5786.000000	1.213784
5784.000000	1.214113
5782.000000	1.214194
5780.000000	1.214050
5778.000000	1.214021
5776.000000	1.213892
5774.000000	1.214114
5772.000000	1.214375
5770.000000	1.214574
5768.000000	1.214506
5766.000000	1.214091
5764.000000	1.213779
5762.000000	1.213719
5760.000000	1.213929
5758.000000	1.214117
5756.000000	1.214008
5754.000000	1.213404
5752.000000	1.212914
5750.000000	1.213010
5748.000000	1.213483
5746.000000	1.213926
5744.000000	1.213929
5742.000000	1.213919
5740.000000	1.214081
5738.000000	1.214238
5736.000000	1.214311
5734.000000	1.214095
5732.000000	1.213766
5730.000000	1.213691
5728.000000	1.213964
5726.000000	1.214107
5724.000000	1.213849
5722.000000	1.213455
5720.000000	1.213415
5718.000000	1.213574
5716.000000	1.213554
5714.000000	1.213496
5712.000000	1.213730
5710.000000	1.214024
5708.000000	1.214123
5706.000000	1.213863
5704.000000	1.213347
5702.000000	1.213039
5700.000000	1.213113
5698.000000	1.213543
5696.000000	1.213854
5694.000000	1.213718
5692.000000	1.213541
5690.000000	1.213731
5688.000000	1.214135
5686.000000	1.214214
5684.000000	1.213836
5682.000000	1.213637
5680.000000	1.213608
5678.000000	1.213765
5676.000000	1.213889
5674.000000	1.214108
5672.000000	1.214353
5670.000000	1.214460
5668.000000	1.214505
5666.000000	1.214335
5664.000000	1.214209
5662.000000	1.214045
5660.000000	1.213738
5658.000000	1.213417
5656.000000	1.213313
5654.000000	1.213573
5652.000000	1.213568
5650.000000	1.213596
5648.000000	1.213902
5646.000000	1.214283
5644.000000	1.214414
5642.000000	1.214222
5640.000000	1.214142
5638.000000	1.213983
5636.000000	1.213841
5634.000000	1.213589
5632.000000	1.213300
5630.000000	1.213172
5628.000000	1.213326
5626.000000	1.213579
5624.000000	1.213674
5622.000000	1.213821
5620.000000	1.213938
5618.000000	1.213929
5616.000000	1.213885
5614.000000	1.213932
5612.000000	1.213943
5610.000000	1.213604
5608.000000	1.213454
5606.000000	1.213616
5604.000000	1.213968
5602.000000	1.214120
5600.000000	1.214134
5598.000000	1.214029
5596.000000	1.213718
5594.000000	1.213558
5592.000000	1.213685
5590.000000	1.214118
5588.000000	1.214406
5586.000000	1.214189
5584.000000	1.213827
5582.000000	1.213572
5580.000000	1.213576
5578.000000	1.213834
5576.000000	1.213931
5574.000000	1.213869
5572.000000	1.213877
5570.000000	1.214122
5568.000000	1.214376
5566.000000	1.214298
5564.000000	1.214113
5562.000000	1.213946
5560.000000	1.213814
5558.000000	1.213804
5556.000000	1.213919
5554.000000	1.213951
5552.000000	1.213684
5550.000000	1.213442
5548.000000	1.213543
5546.000000	1.213836
5544.000000	1.214080
5542.000000	1.213885
5540.000000	1.213677
5538.000000	1.213845
5536.000000	1.214271
5534.000000	1.214387
5532.000000	1.213968
5530.000000	1.213540
5528.000000	1.213570
5526.000000	1.213841
5524.000000	1.213845
5522.000000	1.213674
5520.000000	1.213687
5518.000000	1.213938
5516.000000	1.214206
5514.000000	1.214301
5512.000000	1.214156
5510.000000	1.213732
5508.000000	1.213465
5506.000000	1.213580
5504.000000	1.213818
5502.000000	1.213759
5500.000000	1.213636
5498.000000	1.213729
5496.000000	1.213745
5494.000000	1.213677
5492.000000	1.213484
5490.000000	1.213387
5488.000000	1.213435
5486.000000	1.213512
5484.000000	1.213680
5482.000000	1.213765
5480.000000	1.213704
5478.000000	1.213436
5476.000000	1.213280
5474.000000	1.213429
5472.000000	1.213739
5470.000000	1.213815
5468.000000	1.213746
5466.000000	1.213594
5464.000000	1.213467
5462.000000	1.213583
5460.000000	1.213907
5458.000000	1.214154
5456.000000	1.214156
5454.000000	1.214037
5452.000000	1.213799
5450.000000	1.213466
5448.000000	1.213441
5446.000000	1.213720
5444.000000	1.213809
5442.000000	1.213901
5440.000000	1.214081
5438.000000	1.214362
5436.000000	1.214179
5434.000000	1.213690
5432.000000	1.213499
5430.000000	1.213713
5428.000000	1.214122
5426.000000	1.214300
5424.000000	1.214193
5422.000000	1.213971
5420.000000	1.213742
5418.000000	1.213372
5416.000000	1.212997
5414.000000	1.212755
5412.000000	1.212845
5410.000000	1.213223
5408.000000	1.213511
5406.000000	1.213629
5404.000000	1.213654
5402.000000	1.213673
5400.000000	1.213621
5398.000000	1.213409
5396.000000	1.213237
5394.000000	1.213251
5392.000000	1.213515
5390.000000	1.213552
5388.000000	1.213326
5386.000000	1.213014
5384.000000	1.213187
5382.000000	1.213377
5380.000000	1.213205
5378.000000	1.213051
5376.000000	1.213368
5374.000000	1.213918
5372.000000	1.214063
5370.000000	1.213865
5368.000000	1.213864
5366.000000	1.214037
5364.000000	1.213999
5362.000000	1.213759
5360.000000	1.213653
5358.000000	1.213490
5356.000000	1.213228
5354.000000	1.213218
5352.000000	1.213443
5350.000000	1.213407
5348.000000	1.212837
5346.000000	1.212746
5344.000000	1.213201
5342.000000	1.213661
5340.000000	1.213709
5338.000000	1.213662
5336.000000	1.213676
5334.000000	1.213642
5332.000000	1.213493
5330.000000	1.213431
5328.000000	1.213606
5326.000000	1.213969
5324.000000	1.214259
5322.000000	1.214189
5320.000000	1.213825
5318.000000	1.213450
5316.000000	1.213538
5314.000000	1.213880
5312.000000	1.214082
5310.000000	1.213820
5308.000000	1.213712
5306.000000	1.213875
5304.000000	1.213954
5302.000000	1.213857
5300.000000	1.213829
5298.000000	1.214062
5296.000000	1.214018
5294.000000	1.213629
5292.000000	1.213235
5290.000000	1.213183
5288.000000	1.213550
5286.000000	1.214014
5284.000000	1.214179
5282.000000	1.214005
5280.000000	1.213765
5278.000000	1.213743
5276.000000	1.213806
5274.000000	1.213769
5272.000000	1.213612
5270.000000	1.213507
5268.000000	1.213488
5266.000000	1.213358
5264.000000	1.213255
5262.000000	1.213470
5260.000000	1.213577
5258.000000	1.213348
5256.000000	1.213191
5254.000000	1.213582
5252.000000	1.213872
5250.000000	1.213648
5248.000000	1.213381
5246.000000	1.213540
5244.000000	1.213871
5242.000000	1.214104
5240.000000	1.214152
5238.000000	1.214114
5236.000000	1.213966
5234.000000	1.213893
5232.000000	1.213945
5230.000000	1.213861
5228.000000	1.213775
5226.000000	1.213676
5224.000000	1.213711
5222.000000	1.213848
5220.000000	1.214015
5218.000000	1.214185
5216.000000	1.214146
5214.000000	1.213950
5212.000000	1.213515
5210.000000	1.213048
5208.000000	1.212868
5206.000000	1.213223
5204.000000	1.213779
5202.000000	1.214013
5200.000000	1.213945
5198.000000	1.213800
5196.000000	1.213754
5194.000000	1.213866
5192.000000	1.213933
5190.000000	1.213796
5188.000000	1.213573
5186.000000	1.213544
5184.000000	1.213587
5182.000000	1.213622
5180.000000	1.213615
5178.000000	1.213568
5176.000000	1.213628
5174.000000	1.213830
5172.000000	1.213945
5170.000000	1.213839
5168.000000	1.213704
5166.000000	1.213499
5164.000000	1.213525
5162.000000	1.213726
5160.000000	1.213984
5158.000000	1.214146
5156.000000	1.214247
5154.000000	1.214403
5152.000000	1.214342
5150.000000	1.214268
5148.000000	1.214218
5146.000000	1.214227
5144.000000	1.214127
5142.000000	1.214009
5140.000000	1.213994
5138.000000	1.214221
5136.000000	1.214296
5134.000000	1.214201
5132.000000	1.214138
5130.000000	1.214282
5128.000000	1.214602
5126.000000	1.214677
5124.000000	1.214452
5122.000000	1.214097
5120.000000	1.213957
5118.000000	1.214007
5116.000000	1.214082
5114.000000	1.214134
5112.000000	1.214205
5110.000000	1.214187
5108.000000	1.214054
5106.000000	1.213826
5104.000000	1.213871
5102.000000	1.214161
5100.000000	1.214399
5098.000000	1.214364
5096.000000	1.214186
5094.000000	1.214017
5092.000000	1.213956
5090.000000	1.213965
5088.000000	1.213957
5086.000000	1.213882
5084.000000	1.213986
5082.000000	1.214253
5080.000000	1.214470
5078.000000	1.214305
5076.000000	1.213986
5074.000000	1.213939
5072.000000	1.214267
5070.000000	1.214473
5068.000000	1.214326
5066.000000	1.214125
5064.000000	1.214271
5062.000000	1.214577
5060.000000	1.214548
5058.000000	1.214307
5056.000000	1.214304
5054.000000	1.214598
5052.000000	1.214747
5050.000000	1.214596
5048.000000	1.214492
5046.000000	1.214683
5044.000000	1.214925
5042.000000	1.214811
5040.000000	1.214522
5038.000000	1.214411
5036.000000	1.214505
5034.000000	1.214569
5032.000000	1.214593
5030.000000	1.214705
5028.000000	1.214746
5026.000000	1.214601
5024.000000	1.214402
5022.000000	1.214389
5020.000000	1.214549
5018.000000	1.214680
5016.000000	1.214802
5014.000000	1.214866
5012.000000	1.214949
5010.000000	1.215050
5008.000000	1.214978
5006.000000	1.214797
5004.000000	1.214724
5002.000000	1.214791
5000.000000	1.214748
4998.000000	1.214707
4996.000000	1.214906
4994.000000	1.215033
4992.000000	1.214995
4990.000000	1.214870
4988.000000	1.214847
4986.000000	1.214871
4984.000000	1.215142
4982.000000	1.215399
4980.000000	1.215345
4978.000000	1.215144
4976.000000	1.215114
4974.000000	1.215086
4972.000000	1.214942
4970.000000	1.214861
4968.000000	1.214949
4966.000000	1.215127
4964.000000	1.215213
4962.000000	1.215138
4960.000000	1.214972
4958.000000	1.214988
4956.000000	1.215107
4954.000000	1.215245
4952.000000	1.215434
4950.000000	1.215530
4948.000000	1.215475
4946.000000	1.215461
4944.000000	1.215523
4942.000000	1.215395
4940.000000	1.215220
4938.000000	1.215343
4936.000000	1.215498
4934.000000	1.215437
4932.000000	1.215253
4930.000000	1.215280
4928.000000	1.215418
4926.000000	1.215444
4924.000000	1.215462
4922.000000	1.215613
4920.000000	1.215645
4918.000000	1.215433
4916.000000	1.215234
4914.000000	1.215150
4912.000000	1.215125
4910.000000	1.215252
4908.000000	1.215490
4906.000000	1.215591
4904.000000	1.215651
4902.000000	1.215578
4900.000000	1.215344
4898.000000	1.215240
4896.000000	1.215439
4894.000000	1.215587
4892.000000	1.215584
4890.000000	1.215652
4888.000000	1.215785
4886.000000	1.215834
4884.000000	1.215793
4882.000000	1.215642
4880.000000	1.215388
4878.000000	1.215256
4876.000000	1.215425
4874.000000	1.215585
4872.000000	1.215542
4870.000000	1.215541
4868.000000	1.215641
4866.000000	1.215622
4864.000000	1.215582
4862.000000	1.215710
4860.000000	1.215800
4858.000000	1.215820
4856.000000	1.215757
4854.000000	1.215679
4852.000000	1.215789
4850.000000	1.216015
4848.000000	1.215988
4846.000000	1.215782
4844.000000	1.215806
4842.000000	1.215983
4840.000000	1.215997
4838.000000	1.215798
4836.000000	1.215595
4834.000000	1.215696
4832.000000	1.216010
4830.000000	1.216140
4828.000000	1.215997
4826.000000	1.215983
4824.000000	1.216157
4822.000000	1.216200
4820.000000	1.216002
4818.000000	1.215857
4816.000000	1.215931
4814.000000	1.216087
4812.000000	1.216076
4810.000000	1.215898
4808.000000	1.215797
4806.000000	1.215894
4804.000000	1.216062
4802.000000	1.216113
4800.000000	1.216060
4798.000000	1.216012
4796.000000	1.215936
4794.000000	1.215982
4792.000000	1.216148
4790.000000	1.216200
4788.000000	1.215944
4786.000000	1.215880
4784.000000	1.216113
4782.000000	1.216264
4780.000000	1.216156
4778.000000	1.216076
4776.000000	1.216049
4774.000000	1.216026
4772.000000	1.216082
4770.000000	1.216251
4768.000000	1.216426
4766.000000	1.216413
4764.000000	1.216222
4762.000000	1.216212
4760.000000	1.216450
4758.000000	1.216557
4756.000000	1.216448
4754.000000	1.216501
4752.000000	1.216650
4750.000000	1.216582
4748.000000	1.216354
4746.000000	1.216266
4744.000000	1.216343
4742.000000	1.216426
4740.000000	1.216384
4738.000000	1.216369
4736.000000	1.216397
4734.000000	1.216425
4732.000000	1.216353
4730.000000	1.216328
4728.000000	1.216396
4726.000000	1.216502
4724.000000	1.216472
4722.000000	1.216271
4720.000000	1.216152
4718.000000	1.216234
4716.000000	1.216350
4714.000000	1.216211
4712.000000	1.215967
4710.000000	1.216065
4708.000000	1.216373
4706.000000	1.216392
4704.000000	1.216242
4702.000000	1.216292
4700.000000	1.216409
4698.000000	1.216371
4696.000000	1.216316
4694.000000	1.216275
4692.000000	1.216214
4690.000000	1.216178
4688.000000	1.216153
4686.000000	1.216144
4684.000000	1.216301
4682.000000	1.216483
4680.000000	1.216498
4678.000000	1.216435
4676.000000	1.216490
4674.000000	1.216636
4672.000000	1.216651
4670.000000	1.216464
4668.000000	1.216321
4666.000000	1.216426
4664.000000	1.216596
4662.000000	1.216696
4660.000000	1.216767
4658.000000	1.216866
4656.000000	1.216945
4654.000000	1.216874
4652.000000	1.216701
4650.000000	1.216707
4648.000000	1.216877
4646.000000	1.216928
4644.000000	1.216862
4642.000000	1.216847
4640.000000	1.216837
4638.000000	1.216723
4636.000000	1.216556
4634.000000	1.216539
4632.000000	1.216631
4630.000000	1.216595
4628.000000	1.216472
4626.000000	1.216485
4624.000000	1.216629
4622.000000	1.216823
4620.000000	1.216965
4618.000000	1.216997
4616.000000	1.216880
4614.000000	1.216834
4612.000000	1.216959
4610.000000	1.216971
4608.000000	1.216703
4606.000000	1.216520
4604.000000	1.216573
4602.000000	1.216672
4600.000000	1.216798
4598.000000	1.216882
4596.000000	1.216874
4594.000000	1.216891
4592.000000	1.217154
4590.000000	1.217425
4588.000000	1.217373
4586.000000	1.217119
4584.000000	1.216924
4582.000000	1.216929
4580.000000	1.217065
4578.000000	1.217075
4576.000000	1.216927
4574.000000	1.216910
4572.000000	1.216970
4570.000000	1.216949
4568.000000	1.216916
4566.000000	1.216962
4564.000000	1.217087
4562.000000	1.217237
4560.000000	1.217284
4558.000000	1.217181
4556.000000	1.217087
4554.000000	1.217178
4552.000000	1.217320
4550.000000	1.217248
4548.000000	1.217095
4546.000000	1.217048
4544.000000	1.217098
4542.000000	1.217034
4540.000000	1.216933
4538.000000	1.216990
4536.000000	1.217117
4534.000000	1.217132
4532.000000	1.217026
4530.000000	1.216962
4528.000000	1.216994
4526.000000	1.217098
4524.000000	1.217100
4522.000000	1.217032
4520.000000	1.217053
4518.000000	1.217123
4516.000000	1.217083
4514.000000	1.217037
4512.000000	1.217151
4510.000000	1.217327
4508.000000	1.217388
4506.000000	1.217314
4504.000000	1.217151
4502.000000	1.217006
4500.000000	1.217011
4498.000000	1.217168
4496.000000	1.217270
4494.000000	1.217240
4492.000000	1.217155
4490.000000	1.217084
4488.000000	1.217000
4486.000000	1.216897
4484.000000	1.216991
4482.000000	1.217258
4480.000000	1.217411
4478.000000	1.217391
4476.000000	1.217374
4474.000000	1.217377
4472.000000	1.217420
4470.000000	1.217514
4468.000000	1.217544
4466.000000	1.217526
4464.000000	1.217589
4462.000000	1.217683
4460.000000	1.217627
4458.000000	1.217530
4456.000000	1.217528
4454.000000	1.217467
4452.000000	1.217353
4450.000000	1.217474
4448.000000	1.217579
4446.000000	1.217317
4444.000000	1.217048
4442.000000	1.217091
4440.000000	1.217184
4438.000000	1.217216
4436.000000	1.217263
4434.000000	1.217247
4432.000000	1.217205
4430.000000	1.217274
4428.000000	1.217383
4426.000000	1.217472
4424.000000	1.217525
4422.000000	1.217495
4420.000000	1.217420
4418.000000	1.217349
4416.000000	1.217338
4414.000000	1.217528
4412.000000	1.217731
4410.000000	1.217609
4408.000000	1.217350
4406.000000	1.217315
4404.000000	1.217339
4402.000000	1.217280
4400.000000	1.217338
4398.000000	1.217513
4396.000000	1.217571
4394.000000	1.217467
4392.000000	1.217291
4390.000000	1.217241
4388.000000	1.217345
4386.000000	1.217448
4384.000000	1.217559
4382.000000	1.217682
4380.000000	1.217656
4378.000000	1.217567
4376.000000	1.217542
4374.000000	1.217531
4372.000000	1.217516
4370.000000	1.217532
4368.000000	1.217575
4366.000000	1.217586
4364.000000	1.217564
4362.000000	1.217670
4360.000000	1.217855
4358.000000	1.217877
4356.000000	1.217735
4354.000000	1.217624
4352.000000	1.217675
4350.000000	1.217759
4348.000000	1.217704
4346.000000	1.217639
4344.000000	1.217625
4342.000000	1.217505
4340.000000	1.217376
4338.000000	1.217454
4336.000000	1.217688
4334.000000	1.217871
4332.000000	1.217849
4330.000000	1.217645
4328.000000	1.217479
4326.000000	1.217528
4324.000000	1.217638
4322.000000	1.217623
4320.000000	1.217564
4318.000000	1.217553
4316.000000	1.217537
4314.000000	1.217516
4312.000000	1.217447
4310.000000	1.217305
4308.000000	1.217272
4306.000000	1.217459
4304.000000	1.217658
4302.000000	1.217603
4300.000000	1.217451
4298.000000	1.217589
4296.000000	1.217791
4294.000000	1.217622
4292.000000	1.217400
4290.000000	1.217458
4288.000000	1.217598
4286.000000	1.217650
4284.000000	1.217609
4282.000000	1.217592
4280.000000	1.217705
4278.000000	1.217776
4276.000000	1.217665
4274.000000	1.217546
4272.000000	1.217599
4270.000000	1.217788
4268.000000	1.217917
4266.000000	1.217890
4264.000000	1.217734
4262.000000	1.217567
4260.000000	1.217519
4258.000000	1.217528
4256.000000	1.217487
4254.000000	1.217453
4252.000000	1.217452
4250.000000	1.217472
4248.000000	1.217532
4246.000000	1.217543
4244.000000	1.217515
4242.000000	1.217581
4240.000000	1.217691
4238.000000	1.217748
4236.000000	1.217758
4234.000000	1.217708
4232.000000	1.217622
4230.000000	1.217521
4228.000000	1.217405
4226.000000	1.217385
4224.000000	1.217426
4222.000000	1.217455
4220.000000	1.217506
4218.000000	1.217515
4216.000000	1.217386
4214.000000	1.217281
4212.000000	1.217316
4210.000000	1.217430
4208.000000	1.217521
4206.000000	1.217580
4204.000000	1.217558
4202.000000	1.217509
4200.000000	1.217534
4198.000000	1.217575
4196.000000	1.217491
4194.000000	1.217371
4192.000000	1.217355
4190.000000	1.217481
4188.000000	1.217581
4186.000000	1.217458
4184.000000	1.217313
4182.000000	1.217429
4180.000000	1.217572
4178.000000	1.217484
4176.000000	1.217319
4174.000000	1.217370
4172.000000	1.217564
4170.000000	1.217516
4168.000000	1.217323
4166.000000	1.217312
4164.000000	1.217364
4162.000000	1.217350
4160.000000	1.217293
4158.000000	1.217192
4156.000000	1.217159
4154.000000	1.217224
4152.000000	1.217288
4150.000000	1.217344
4148.000000	1.217328
4146.000000	1.217233
4144.000000	1.217115
4142.000000	1.217087
4140.000000	1.217169
4138.000000	1.217186
4136.000000	1.217098
4134.000000	1.217049
4132.000000	1.217039
4130.000000	1.217026
4128.000000	1.216987
4126.000000	1.216963
4124.000000	1.216945
4122.000000	1.216915
4120.000000	1.216957
4118.000000	1.217051
4116.000000	1.217038
4114.000000	1.217012
4112.000000	1.216995
4110.000000	1.216972
4108.000000	1.216950
4106.000000	1.216866
4104.000000	1.216817
4102.000000	1.216858
4100.000000	1.216858
4098.000000	1.216800
4096.000000	1.216683
4094.000000	1.216586
4092.000000	1.216700
4090.000000	1.216984
4088.000000	1.217108
4086.000000	1.216976
4084.000000	1.216837
4082.000000	1.216864
4080.000000	1.216874
4078.000000	1.216832
4076.000000	1.216873
4074.000000	1.216876
4072.000000	1.216767
4070.000000	1.216703
4068.000000	1.216736
4066.000000	1.216761
4064.000000	1.216687
4062.000000	1.216612
4060.000000	1.216547
4058.000000	1.216457
4056.000000	1.216426
4054.000000	1.216475
4052.000000	1.216483
4050.000000	1.216473
4048.000000	1.216432
4046.000000	1.216393
4044.000000	1.216417
4042.000000	1.216408
4040.000000	1.216348
4038.000000	1.216324
4036.000000	1.216296
4034.000000	1.216287
4032.000000	1.216233
4030.000000	1.216124
4028.000000	1.216107
4026.000000	1.216206
4024.000000	1.216238
4022.000000	1.216196
4020.000000	1.216153
4018.000000	1.216132
4016.000000	1.216121
4014.000000	1.216107
4012.000000	1.216024
4010.000000	1.215983
4008.000000	1.216071
4006.000000	1.216110
4004.000000	1.215994
4002.000000	1.215968
4000.000000	1.216072
3998.000000	1.216084
3996.000000	1.215995
3994.000000	1.215986
3992.000000	1.215999
3990.000000	1.215977
3988.000000	1.215958
3986.000000	1.215926
3984.000000	1.215825
3982.000000	1.215729
3980.000000	1.215706
3978.000000	1.215747
3976.000000	1.215792
3974.000000	1.215782
3972.000000	1.215747
3970.000000	1.215769
3968.000000	1.215851
3966.000000	1.215799
3964.000000	1.215496
3962.000000	1.215360
3960.000000	1.215443
3958.000000	1.215471
3956.000000	1.215455
3954.000000	1.215341
3952.000000	1.215045
3950.000000	1.214831
3948.000000	1.214968
3946.000000	1.214988
3944.000000	1.214710
3942.000000	1.214962
3940.000000	1.215509
3938.000000	1.215429
3936.000000	1.214812
3934.000000	1.214320
3932.000000	1.214489
3930.000000	1.214980
3928.000000	1.214865
3926.000000	1.214385
3924.000000	1.214323
3922.000000	1.214325
3920.000000	1.213900
3918.000000	1.213817
3916.000000	1.214580
3914.000000	1.215158
3912.000000	1.215013
3910.000000	1.214641
3908.000000	1.213478
3906.000000	1.211567
3904.000000	1.210874
3902.000000	1.211862
3900.000000	1.213537
3898.000000	1.215109
3896.000000	1.214978
3894.000000	1.213073
3892.000000	1.212452
3890.000000	1.213501
3888.000000	1.212550
3886.000000	1.211617
3884.000000	1.213067
3882.000000	1.213453
3880.000000	1.213613
3878.000000	1.214246
3876.000000	1.213271
3874.000000	1.211783
3872.000000	1.210267
3870.000000	1.210657
3868.000000	1.212578
3866.000000	1.212412
3864.000000	1.212348
3862.000000	1.213671
3860.000000	1.213808
3858.000000	1.210103
3856.000000	1.203058
3854.000000	1.202531
3852.000000	1.211241
3850.000000	1.216722
3848.000000	1.215309
3846.000000	1.212887
3844.000000	1.211724
3842.000000	1.210403
3840.000000	1.207995
3838.000000	1.208367
3836.000000	1.211951
3834.000000	1.213336
3832.000000	1.213007
3830.000000	1.213359
3828.000000	1.213222
3826.000000	1.212416
3824.000000	1.210244
3822.000000	1.208871
3820.000000	1.210148
3818.000000	1.209618
3816.000000	1.210169
3814.000000	1.214036
3812.000000	1.214489
3810.000000	1.211301
3808.000000	1.209507
3806.000000	1.210678
3804.000000	1.209761
3802.000000	1.208491
3800.000000	1.211665
3798.000000	1.213454
3796.000000	1.213097
3794.000000	1.213662
3792.000000	1.213656
3790.000000	1.213270
3788.000000	1.213135
3786.000000	1.212991
3784.000000	1.212759
3782.000000	1.212055
3780.000000	1.211815
3778.000000	1.212920
3776.000000	1.213494
3774.000000	1.212561
3772.000000	1.211022
3770.000000	1.210751
3768.000000	1.211709
3766.000000	1.212254
3764.000000	1.212432
3762.000000	1.211625
3760.000000	1.210815
3758.000000	1.211355
3756.000000	1.210050
3754.000000	1.205582
3752.000000	1.203452
3750.000000	1.206462
3748.000000	1.207449
3746.000000	1.204106
3744.000000	1.207062
3742.000000	1.213316
3740.000000	1.211661
3738.000000	1.207251
3736.000000	1.206702
3734.000000	1.208426
3732.000000	1.210489
3730.000000	1.211915
3728.000000	1.211187
3726.000000	1.210470
3724.000000	1.210747
3722.000000	1.211057
3720.000000	1.211492
3718.000000	1.211492
3716.000000	1.209989
3714.000000	1.207243
3712.000000	1.207014
3710.000000	1.209925
3708.000000	1.211973
3706.000000	1.211713
3704.000000	1.210309
3702.000000	1.210003
3700.000000	1.211131
3698.000000	1.211542
3696.000000	1.210957
3694.000000	1.209465
3692.000000	1.206599
3690.000000	1.204853
3688.000000	1.207998
3686.000000	1.212052
3684.000000	1.211807
3682.000000	1.210014
3680.000000	1.207961
3678.000000	1.204448
3676.000000	1.203880
3674.000000	1.206796
3672.000000	1.206380
3670.000000	1.206794
3668.000000	1.210376
3666.000000	1.211135
3664.000000	1.210027
3662.000000	1.209484
3660.000000	1.208449
3658.000000	1.206814
3656.000000	1.207247
3654.000000	1.207525
3652.000000	1.204163
3650.000000	1.202669
3648.000000	1.206278
3646.000000	1.209616
3644.000000	1.209745
3642.000000	1.208918
3640.000000	1.208578
3638.000000	1.208239
3636.000000	1.207629
3634.000000	1.206654
3632.000000	1.203930
3630.000000	1.201937
3628.000000	1.205511
3626.000000	1.209159
3624.000000	1.208067
3622.000000	1.205356
3620.000000	1.204346
3618.000000	1.205817
3616.000000	1.206430
3614.000000	1.205518
3612.000000	1.204962
3610.000000	1.204819
3608.000000	1.205852
3606.000000	1.207124
3604.000000	1.206921
3602.000000	1.206222
3600.000000	1.205962
3598.000000	1.205733
3596.000000	1.205536
3594.000000	1.205834
3592.000000	1.205474
3590.000000	1.203854
3588.000000	1.203555
3586.000000	1.205277
3584.000000	1.206170
3582.000000	1.205753
3580.000000	1.205492
3578.000000	1.205550
3576.000000	1.205536
3574.000000	1.205446
3572.000000	1.204876
3570.000000	1.203499
3568.000000	1.203031
3566.000000	1.204379
3564.000000	1.205231
3562.000000	1.204920
3560.000000	1.204793
3558.000000	1.204985
3556.000000	1.204812
3554.000000	1.204445
3552.000000	1.204522
3550.000000	1.204522
3548.000000	1.204085
3546.000000	1.204181
3544.000000	1.204816
3542.000000	1.205130
3540.000000	1.204999
3538.000000	1.204776
3536.000000	1.204788
3534.000000	1.204909
3532.000000	1.204783
3530.000000	1.204555
3528.000000	1.204540
3526.000000	1.204625
3524.000000	1.204752
3522.000000	1.205088
3520.000000	1.205248
3518.000000	1.205301
3516.000000	1.205444
3514.000000	1.205399
3512.000000	1.205246
3510.000000	1.205326
3508.000000	1.205588
3506.000000	1.205494
3504.000000	1.205344
3502.000000	1.205773
3500.000000	1.206208
3498.000000	1.206176
3496.000000	1.206146
3494.000000	1.206340
3492.000000	1.206480
3490.000000	1.206597
3488.000000	1.206829
3486.000000	1.207049
3484.000000	1.207175
3482.000000	1.207391
3480.000000	1.207770
3478.000000	1.208068
3476.000000	1.208260
3474.000000	1.208539
3472.000000	1.208819
3470.000000	1.208907
3468.000000	1.208968
3466.000000	1.209338
3464.000000	1.209764
3462.000000	1.210070
3460.000000	1.210453
3458.000000	1.210812
3456.000000	1.211078
3454.000000	1.211296
3452.000000	1.211558
3450.000000	1.211818
3448.000000	1.212074
3446.000000	1.212618
3444.000000	1.213192
3442.000000	1.213679
3440.000000	1.214201
3438.000000	1.214626
3436.000000	1.215064
3434.000000	1.215607
3432.000000	1.216165
3430.000000	1.216719
3428.000000	1.217211
3426.000000	1.217568
3424.000000	1.217879
3422.000000	1.218253
3420.000000	1.218746
3418.000000	1.219234
3416.000000	1.219575
3414.000000	1.219883
3412.000000	1.220195
3410.000000	1.220473
3408.000000	1.220762
3406.000000	1.220997
3404.000000	1.221091
3402.000000	1.221214
3400.000000	1.221463
3398.000000	1.221823
3396.000000	1.222141
3394.000000	1.222313
3392.000000	1.222523
3390.000000	1.222830
3388.000000	1.223029
3386.000000	1.223094
3384.000000	1.223193
3382.000000	1.223361
3380.000000	1.223551
3378.000000	1.223691
3376.000000	1.223805
3374.000000	1.223998
3372.000000	1.224065
3370.000000	1.224048
3368.000000	1.224106
3366.000000	1.224234
3364.000000	1.224433
3362.000000	1.224600
3360.000000	1.224610
3358.000000	1.224699
3356.000000	1.224892
3354.000000	1.224918
3352.000000	1.224859
3350.000000	1.224889
3348.000000	1.225095
3346.000000	1.225209
3344.000000	1.225205
3342.000000	1.225210
3340.000000	1.225166
3338.000000	1.225212
3336.000000	1.225380
3334.000000	1.225492
3332.000000	1.225506
3330.000000	1.225579
3328.000000	1.225667
3326.000000	1.225664
3324.000000	1.225668
3322.000000	1.225820
3320.000000	1.226024
3318.000000	1.226199
3316.000000	1.226253
3314.000000	1.226160
3312.000000	1.226109
3310.000000	1.226170
3308.000000	1.226194
3306.000000	1.226263
3304.000000	1.226514
3302.000000	1.226749
3300.000000	1.226896
3298.000000	1.227021
3296.000000	1.227007
3294.000000	1.226930
3292.000000	1.227026
3290.000000	1.227242
3288.000000	1.227394
3286.000000	1.227493
3284.000000	1.227595
3282.000000	1.227674
3280.000000	1.227701
3278.000000	1.227705
3276.000000	1.227726
3274.000000	1.227864
3272.000000	1.228046
3270.000000	1.228124
3268.000000	1.228152
3266.000000	1.228249
3264.000000	1.228318
3262.000000	1.228402
3260.000000	1.228549
3258.000000	1.228602
3256.000000	1.228595
3254.000000	1.228689
3252.000000	1.228744
3250.000000	1.228718
3248.000000	1.228782
3246.000000	1.228911
3244.000000	1.228999
3242.000000	1.229040
3240.000000	1.229152
3238.000000	1.229311
3236.000000	1.229396
3234.000000	1.229372
3232.000000	1.229354
3230.000000	1.229500
3228.000000	1.229730
3226.000000	1.229914
3224.000000	1.229937
3222.000000	1.229953
3220.000000	1.230101
3218.000000	1.230271
3216.000000	1.230342
3214.000000	1.230285
3212.000000	1.230165
3210.000000	1.230160
3208.000000	1.230313
3206.000000	1.230432
3204.000000	1.230528
3202.000000	1.230598
3200.000000	1.230562
3198.000000	1.230512
3196.000000	1.230548
3194.000000	1.230569
3192.000000	1.230650
3190.000000	1.230735
3188.000000	1.230701
3186.000000	1.230669
3184.000000	1.230785
3182.000000	1.230915
3180.000000	1.230963
3178.000000	1.230972
3176.000000	1.230970
3174.000000	1.230969
3172.000000	1.230989
3170.000000	1.231037
3168.000000	1.231100
3166.000000	1.231120
3164.000000	1.231165
3162.000000	1.231227
3160.000000	1.231245
3158.000000	1.231215
3156.000000	1.231195
3154.000000	1.231313
3152.000000	1.231513
3150.000000	1.231643
3148.000000	1.231641
3146.000000	1.231639
3144.000000	1.231715
3142.000000	1.231816
3140.000000	1.231856
3138.000000	1.231847
3136.000000	1.231914
3134.000000	1.232076
3132.000000	1.232263
3130.000000	1.232337
3128.000000	1.232308
3126.000000	1.232296
3124.000000	1.232345
3122.000000	1.232434
3120.000000	1.232497
3118.000000	1.232549
3116.000000	1.232668
3114.000000	1.232830
3112.000000	1.232879
3110.000000	1.232781
3108.000000	1.232758
3106.000000	1.232833
3104.000000	1.232881
3102.000000	1.232946
3100.000000	1.233028
3098.000000	1.233004
3096.000000	1.233013
3094.000000	1.233073
3092.000000	1.233041
3090.000000	1.233027
3088.000000	1.233038
3086.000000	1.232970
3084.000000	1.232917
3082.000000	1.232891
3080.000000	1.232778
3078.000000	1.232654
3076.000000	1.232686
3074.000000	1.232764
3072.000000	1.232719
3070.000000	1.232533
3068.000000	1.232405
3066.000000	1.232439
3064.000000	1.232563
3062.000000	1.232651
3060.000000	1.232699
3058.000000	1.232696
3056.000000	1.232622
3054.000000	1.232545
3052.000000	1.232432
3050.000000	1.232293
3048.000000	1.232315
3046.000000	1.232315
3044.000000	1.232140
3042.000000	1.232075
3040.000000	1.232106
3038.000000	1.232098
3036.000000	1.232017
3034.000000	1.231897
3032.000000	1.231844
3030.000000	1.231914
3028.000000	1.231883
3026.000000	1.231690
3024.000000	1.231573
3022.000000	1.231566
3020.000000	1.231668
3018.000000	1.231900
3016.000000	1.232148
3014.000000	1.232348
3012.000000	1.232422
3010.000000	1.232413
3008.000000	1.232313
3006.000000	1.232116
3004.000000	1.231953
3002.000000	1.231850
3000.000000	1.231776
2998.000000	1.231677
2996.000000	1.231556
2994.000000	1.231460
2992.000000	1.231437
2990.000000	1.231435
2988.000000	1.231375
2986.000000	1.231284
2984.000000	1.231213
2982.000000	1.231173
2980.000000	1.231142
2978.000000	1.231114
2976.000000	1.231046
2974.000000	1.230912
2972.000000	1.230883
2970.000000	1.230991
2968.000000	1.231343
2966.000000	1.231935
2964.000000	1.232631
2962.000000	1.233196
2960.000000	1.233528
2958.000000	1.233538
2956.000000	1.233210
2954.000000	1.232819
2952.000000	1.232392
2950.000000	1.231848
2948.000000	1.231306
2946.000000	1.230798
2944.000000	1.230266
2942.000000	1.229888
2940.000000	1.229784
2938.000000	1.229814
2936.000000	1.229945
2934.000000	1.230046
2932.000000	1.230007
2930.000000	1.230018
2928.000000	1.230289
2926.000000	1.230890
2924.000000	1.231674
2922.000000	1.232486
2920.000000	1.233150
2918.000000	1.233467
2916.000000	1.233512
2914.000000	1.233257
2912.000000	1.232878
2910.000000	1.232494
2908.000000	1.232145
2906.000000	1.231922
2904.000000	1.231761
2902.000000	1.231635
2900.000000	1.231559
2898.000000	1.231491
2896.000000	1.231344
2894.000000	1.231242
2892.000000	1.231236
2890.000000	1.231181
2888.000000	1.231056
2886.000000	1.230921
2884.000000	1.230815
2882.000000	1.230642
2880.000000	1.230456
2878.000000	1.230233
2876.000000	1.229956
2874.000000	1.229676
2872.000000	1.229397
2870.000000	1.229104
2868.000000	1.228695
2866.000000	1.228396
2864.000000	1.228526
2862.000000	1.229184
2860.000000	1.230037
2858.000000	1.230555
2856.000000	1.230789
2854.000000	1.230977
2852.000000	1.231154
2850.000000	1.231355
2848.000000	1.231606
2846.000000	1.231626
2844.000000	1.231377
2842.000000	1.231083
2840.000000	1.230824
2838.000000	1.230606
2836.000000	1.230474
2834.000000	1.230357
2832.000000	1.230262
2830.000000	1.230195
2828.000000	1.230177
2826.000000	1.230150
2824.000000	1.230054
2822.000000	1.229976
2820.000000	1.229974
2818.000000	1.229956
2816.000000	1.229909
2814.000000	1.229856
2812.000000	1.229804
2810.000000	1.229739
2808.000000	1.229684
2806.000000	1.229657
2804.000000	1.229635
2802.000000	1.229617
2800.000000	1.229642
2798.000000	1.229632
2796.000000	1.229666
2794.000000	1.229730
2792.000000	1.229741
2790.000000	1.229689
2788.000000	1.229671
2786.000000	1.229681
2784.000000	1.229641
2782.000000	1.229641
2780.000000	1.229602
2778.000000	1.229589
2776.000000	1.229650
2774.000000	1.229616
2772.000000	1.229557
2770.000000	1.229480
2768.000000	1.229439
2766.000000	1.229455
2764.000000	1.229470
2762.000000	1.229429
2760.000000	1.229379
2758.000000	1.229401
2756.000000	1.229447
2754.000000	1.229479
2752.000000	1.229521
2750.000000	1.229491
2748.000000	1.229493
2746.000000	1.229526
2744.000000	1.229540
2742.000000	1.229547
2740.000000	1.229515
2738.000000	1.229480
2736.000000	1.229549
2734.000000	1.229634
2732.000000	1.229644
2730.000000	1.229521
2728.000000	1.229395
2726.000000	1.229395
2724.000000	1.229493
2722.000000	1.229586
2720.000000	1.229539
2718.000000	1.229520
2716.000000	1.229677
2714.000000	1.229794
2712.000000	1.229822
2710.000000	1.229858
2708.000000	1.229900
2706.000000	1.230030
2704.000000	1.230191
2702.000000	1.230315
2700.000000	1.230383
2698.000000	1.230407
2696.000000	1.230529
2694.000000	1.230619
2692.000000	1.230606
2690.000000	1.230575
2688.000000	1.230679
2686.000000	1.230841
2684.000000	1.230927
2682.000000	1.230945
2680.000000	1.230984
2678.000000	1.231062
2676.000000	1.231154
2674.000000	1.231199
2672.000000	1.231229
2670.000000	1.231248
2668.000000	1.231248
2666.000000	1.231249
2664.000000	1.231330
2662.000000	1.231431
2660.000000	1.231491
2658.000000	1.231638
2656.000000	1.231736
2654.000000	1.231800
2652.000000	1.232011
2650.000000	1.232163
2648.000000	1.232203
2646.000000	1.232113
2644.000000	1.232118
2642.000000	1.232279
2640.000000	1.232358
2638.000000	1.232310
2636.000000	1.232313
2634.000000	1.232440
2632.000000	1.232596
2630.000000	1.232696
2628.000000	1.232668
2626.000000	1.232589
2624.000000	1.232606
2622.000000	1.232750
2620.000000	1.232833
2618.000000	1.232814
2616.000000	1.232877
2614.000000	1.232918
2612.000000	1.232937
2610.000000	1.232956
2608.000000	1.233022
2606.000000	1.233082
2604.000000	1.233105
2602.000000	1.233142
2600.000000	1.233147
2598.000000	1.233175
2596.000000	1.233337
2594.000000	1.233439
2592.000000	1.233424
2590.000000	1.233431
2588.000000	1.233498
2586.000000	1.233586
2584.000000	1.233664
2582.000000	1.233639
2580.000000	1.233598
2578.000000	1.233673
2576.000000	1.233825
2574.000000	1.233951
2572.000000	1.233982
2570.000000	1.233971
2568.000000	1.233965
2566.000000	1.233999
2564.000000	1.234072
2562.000000	1.234118
2560.000000	1.234154
2558.000000	1.234116
2556.000000	1.234072
2554.000000	1.234157
2552.000000	1.234225
2550.000000	1.234248
2548.000000	1.234269
2546.000000	1.234230
2544.000000	1.234230
2542.000000	1.234264
2540.000000	1.234253
2538.000000	1.234215
2536.000000	1.234177
2534.000000	1.234202
2532.000000	1.234278
2530.000000	1.234316
2528.000000	1.234281
2526.000000	1.234204
2524.000000	1.234237
2522.000000	1.234282
2520.000000	1.234259
2518.000000	1.234255
2516.000000	1.234292
2514.000000	1.234316
2512.000000	1.234272
2510.000000	1.234172
2508.000000	1.234131
2506.000000	1.234152
2504.000000	1.234197
2502.000000	1.234263
2500.000000	1.234298
2498.000000	1.234274
2496.000000	1.234294
2494.000000	1.234328
2492.000000	1.234361
2490.000000	1.234368
2488.000000	1.234333
2486.000000	1.234217
2484.000000	1.234188
2482.000000	1.234267
2480.000000	1.234247
2478.000000	1.234197
2476.000000	1.234219
2474.000000	1.234332
2472.000000	1.234360
2470.000000	1.234300
2468.000000	1.234330
2466.000000	1.234377
2464.000000	1.234450
2462.000000	1.234490
2460.000000	1.234434
2458.000000	1.234397
2456.000000	1.234390
2454.000000	1.234377
2452.000000	1.234395
2450.000000	1.234468
2448.000000	1.234504
2446.000000	1.234539
2444.000000	1.234685
2442.000000	1.234771
2440.000000	1.234677
2438.000000	1.234591
2436.000000	1.234650
2434.000000	1.234695
2432.000000	1.234645
2430.000000	1.234598
2428.000000	1.234716
2426.000000	1.234883
2424.000000	1.234963
2422.000000	1.235086
2420.000000	1.235237
2418.000000	1.235345
2416.000000	1.235399
2414.000000	1.235397
2412.000000	1.235449
2410.000000	1.235457
2408.000000	1.235387
2406.000000	1.235358
2404.000000	1.235297
2402.000000	1.235189
2400.000000	1.235196
2398.000000	1.235156
2396.000000	1.235091
2394.000000	1.235093
2392.000000	1.235061
2390.000000	1.234981
2388.000000	1.234902
2386.000000	1.234886
2384.000000	1.234905
2382.000000	1.234840
2380.000000	1.234634
2378.000000	1.234292
2376.000000	1.233866
2374.000000	1.233423
2372.000000	1.233035
2370.000000	1.232686
2368.000000	1.232406
2366.000000	1.232234
2364.000000	1.232103
2362.000000	1.232085
2360.000000	1.232376
2358.000000	1.232856
2356.000000	1.233392
2354.000000	1.233959
2352.000000	1.234519
2350.000000	1.234571
2348.000000	1.233859
2346.000000	1.233214
2344.000000	1.232969
2342.000000	1.232839
2340.000000	1.232859
2338.000000	1.232929
2336.000000	1.233018
2334.000000	1.233133
2332.000000	1.233272
2330.000000	1.233393
2328.000000	1.233616
2326.000000	1.233758
2324.000000	1.233794
2322.000000	1.233919
2320.000000	1.234048
2318.000000	1.234176
2316.000000	1.234435
2314.000000	1.234556
2312.000000	1.234544
2310.000000	1.234608
2308.000000	1.234733
2306.000000	1.234764
2304.000000	1.234697
2302.000000	1.234701
2300.000000	1.234816
2298.000000	1.234878
2296.000000	1.234860
2294.000000	1.234855
2292.000000	1.234888
2290.000000	1.234944
2288.000000	1.235100
2286.000000	1.235211
2284.000000	1.235163
2282.000000	1.235151
2280.000000	1.235181
2278.000000	1.235123
2276.000000	1.235077
2274.000000	1.235053
2272.000000	1.235088
2270.000000	1.235045
2268.000000	1.235082
2266.000000	1.235186
2264.000000	1.235181
2262.000000	1.235045
2260.000000	1.235022
2258.000000	1.235036
2256.000000	1.235000
2254.000000	1.235015
2252.000000	1.235111
2250.000000	1.235112
2248.000000	1.234997
2246.000000	1.234909
2244.000000	1.234916
2242.000000	1.234973
2240.000000	1.234961
2238.000000	1.234812
2236.000000	1.234686
2234.000000	1.234626
2232.000000	1.234655
2230.000000	1.234547
2228.000000	1.234448
2226.000000	1.234438
2224.000000	1.234503
2222.000000	1.234529
2220.000000	1.234470
2218.000000	1.234412
2216.000000	1.234405
2214.000000	1.234425
2212.000000	1.234419
2210.000000	1.234375
2208.000000	1.234277
2206.000000	1.234188
2204.000000	1.234240
2202.000000	1.234180
2200.000000	1.234066
2198.000000	1.234027
2196.000000	1.234054
2194.000000	1.233979
2192.000000	1.233857
2190.000000	1.233916
2188.000000	1.233990
2186.000000	1.233943
2184.000000	1.233953
2182.000000	1.233894
2180.000000	1.233741
2178.000000	1.233622
2176.000000	1.233553
2174.000000	1.233515
2172.000000	1.233527
2170.000000	1.233467
2168.000000	1.233460
2166.000000	1.233407
2164.000000	1.233407
2162.000000	1.233382
2160.000000	1.233288
2158.000000	1.233273
2156.000000	1.233241
2154.000000	1.233138
2152.000000	1.233077
2150.000000	1.233013
2148.000000	1.232954
2146.000000	1.232951
2144.000000	1.232955
2142.000000	1.232971
2140.000000	1.232889
2138.000000	1.232778
2136.000000	1.232729
2134.000000	1.232615
2132.000000	1.232711
2130.000000	1.232817
2128.000000	1.232851
2126.000000	1.232821
2124.000000	1.232742
2122.000000	1.232756
2120.000000	1.232746
2118.000000	1.232531
2116.000000	1.232315
2114.000000	1.232348
2112.000000	1.232538
2110.000000	1.232523
2108.000000	1.232401
2106.000000	1.232299
2104.000000	1.232287
2102.000000	1.232335
2100.000000	1.232320
2098.000000	1.232311
2096.000000	1.232319
2094.000000	1.232197
2092.000000	1.232032
2090.000000	1.231913
2088.000000	1.231872
2086.000000	1.231924
2084.000000	1.231959
2082.000000	1.231916
2080.000000	1.231932
2078.000000	1.231862
2076.000000	1.231730
2074.000000	1.231638
2072.000000	1.231789
2070.000000	1.231905
2068.000000	1.231747
2066.000000	1.231615
2064.000000	1.231808
2062.000000	1.231861
2060.000000	1.231799
2058.000000	1.231741
2056.000000	1.231558
2054.000000	1.231554
2052.000000	1.231667
2050.000000	1.231614
2048.000000	1.231480
2046.000000	1.231431
2044.000000	1.231490
2042.000000	1.231486
2040.000000	1.231468
2038.000000	1.231380
2036.000000	1.231366
2034.000000	1.231205
2032.000000	1.231001
2030.000000	1.231029
2028.000000	1.231273
2026.000000	1.231320
2024.000000	1.231167
2022.000000	1.231070
2020.000000	1.231068
2018.000000	1.231103
2016.000000	1.231288
2014.000000	1.231201
2012.000000	1.231087
2010.000000	1.231188
2008.000000	1.231278
2006.000000	1.231220
2004.000000	1.231116
2002.000000	1.230861
2000.000000	1.230844
1998.000000	1.231042
1996.000000	1.231149
1994.000000	1.230901
1992.000000	1.230826
1990.000000	1.231058
1988.000000	1.230960
1986.000000	1.230853
1984.000000	1.230823
1982.000000	1.230783
1980.000000	1.230802
1978.000000	1.230780
1976.000000	1.230772
1974.000000	1.230815
1972.000000	1.230942
1970.000000	1.230853
1968.000000	1.230633
1966.000000	1.230759
1964.000000	1.230973
1962.000000	1.230861
1960.000000	1.230789
1958.000000	1.230961
1956.000000	1.230922
1954.000000	1.230882
1952.000000	1.230930
1950.000000	1.230927
1948.000000	1.230903
1946.000000	1.230691
1944.000000	1.230334
1942.000000	1.230469
1940.000000	1.231016
1938.000000	1.231099
1936.000000	1.231116
1934.000000	1.231111
1932.000000	1.231093
1930.000000	1.231075
1928.000000	1.231136
1926.000000	1.230958
1924.000000	1.230773
1922.000000	1.230925
1920.000000	1.230509
1918.000000	1.230391
1916.000000	1.231202
1914.000000	1.231223
1912.000000	1.231052
1910.000000	1.231022
1908.000000	1.231314
1906.000000	1.231471
1904.000000	1.231545
1902.000000	1.231507
1900.000000	1.231503
1898.000000	1.231373
1896.000000	1.231323
1894.000000	1.231397
1892.000000	1.231237
1890.000000	1.231038
1888.000000	1.231619
1886.000000	1.231703
1884.000000	1.231637
1882.000000	1.231677
1880.000000	1.231810
1878.000000	1.231734
1876.000000	1.231677
1874.000000	1.231607
1872.000000	1.231045
1870.000000	1.230080
1868.000000	1.230740
1866.000000	1.231596
1864.000000	1.231736
1862.000000	1.231620
1860.000000	1.231619
1858.000000	1.231652
1856.000000	1.231815
1854.000000	1.231821
1852.000000	1.231774
1850.000000	1.231496
1848.000000	1.230926
1846.000000	1.229172
1844.000000	1.229484
1842.000000	1.231613
1840.000000	1.231821
1838.000000	1.231599
1836.000000	1.231636
1834.000000	1.231394
1832.000000	1.230358
1830.000000	1.230150
1828.000000	1.231033
1826.000000	1.230780
1824.000000	1.231406
1822.000000	1.231977
1820.000000	1.231852
1818.000000	1.231741
1816.000000	1.231920
1814.000000	1.231732
1812.000000	1.231350
1810.000000	1.231516
1808.000000	1.231936
1806.000000	1.231830
1804.000000	1.231364
1802.000000	1.230780
1800.000000	1.231067
1798.000000	1.231556
1796.000000	1.231098
1794.000000	1.229198
1792.000000	1.229605
1790.000000	1.231590
1788.000000	1.231693
1786.000000	1.230988
1784.000000	1.231330
1782.000000	1.231325
1780.000000	1.231415
1778.000000	1.231655
1776.000000	1.230504
1774.000000	1.227826
1772.000000	1.228450
1770.000000	1.230526
1768.000000	1.231040
1766.000000	1.232143
1764.000000	1.231007
1762.000000	1.230371
1760.000000	1.231517
1758.000000	1.231230
1756.000000	1.231559
1754.000000	1.230861
1752.000000	1.228769
1750.000000	1.229839
1748.000000	1.231184
1746.000000	1.231512
1744.000000	1.231243
1742.000000	1.230559
1740.000000	1.230751
1738.000000	1.231365
1736.000000	1.226834
1734.000000	1.226126
1732.000000	1.231561
1730.000000	1.232798
1728.000000	1.232966
1726.000000	1.232872
1724.000000	1.232714
1722.000000	1.232182
1720.000000	1.228566
1718.000000	1.225850
1716.000000	1.229483
1714.000000	1.232284
1712.000000	1.233210
1710.000000	1.232797
1708.000000	1.231749
1706.000000	1.230801
1704.000000	1.230561
1702.000000	1.225603
1700.000000	1.225612
1698.000000	1.227477
1696.000000	1.227352
1694.000000	1.232940
1692.000000	1.233965
1690.000000	1.232942
1688.000000	1.230903
1686.000000	1.225250
1684.000000	1.227088
1682.000000	1.233150
1680.000000	1.233732
1678.000000	1.232245
1676.000000	1.230238
1674.000000	1.232010
1672.000000	1.231648
1670.000000	1.230687
1668.000000	1.233198
1666.000000	1.234017
1664.000000	1.232358
1662.000000	1.233149
1660.000000	1.234526
1658.000000	1.233788
1656.000000	1.227917
1654.000000	1.220903
1652.000000	1.227947
1650.000000	1.233616
1648.000000	1.230075
1646.000000	1.230938
1644.000000	1.234638
1642.000000	1.235097
1640.000000	1.234109
1638.000000	1.230804
1636.000000	1.228987
1634.000000	1.233444
1632.000000	1.235412
1630.000000	1.234361
1628.000000	1.233979
1626.000000	1.233506
1624.000000	1.232580
1622.000000	1.233911
1620.000000	1.233295
1618.000000	1.229683
1616.000000	1.231657
1614.000000	1.235228
1612.000000	1.234937
1610.000000	1.235038
1608.000000	1.235587
1606.000000	1.236243
1604.000000	1.236377
1602.000000	1.236527
1600.000000	1.236584
1598.000000	1.236645
1596.000000	1.236508
1594.000000	1.236550
1592.000000	1.236516
1590.000000	1.236460
1588.000000	1.236442
1586.000000	1.236557
1584.000000	1.236666
1582.000000	1.236735
1580.000000	1.235694
1578.000000	1.231606
1576.000000	1.231641
1574.000000	1.236278
1572.000000	1.234963
1570.000000	1.233601
1568.000000	1.235366
1566.000000	1.235867
1564.000000	1.234915
1562.000000	1.229559
1560.000000	1.223421
1558.000000	1.228800
1556.000000	1.233916
1554.000000	1.234961
1552.000000	1.236206
1550.000000	1.236234
1548.000000	1.235889
1546.000000	1.233999
1544.000000	1.231509
1542.000000	1.227607
1540.000000	1.227297
1538.000000	1.234018
1536.000000	1.235779
1534.000000	1.234066
1532.000000	1.235747
1530.000000	1.235919
1528.000000	1.234452
1526.000000	1.233657
1524.000000	1.231966
1522.000000	1.229723
1520.000000	1.232436
1518.000000	1.233746
1516.000000	1.234400
1514.000000	1.235195
1512.000000	1.234765
1510.000000	1.232236
1508.000000	1.226943
1506.000000	1.228780
1504.000000	1.234577
1502.000000	1.233900
1500.000000	1.230522
1498.000000	1.228031
1496.000000	1.230729
1494.000000	1.236280
1492.000000	1.237450
1490.000000	1.237385
1488.000000	1.238052
1486.000000	1.238342
1484.000000	1.238056
1482.000000	1.237258
1480.000000	1.237003
1478.000000	1.235805
1476.000000	1.233954
1474.000000	1.231826
1472.000000	1.233318
1470.000000	1.236290
1468.000000	1.235892
1466.000000	1.234166
1464.000000	1.234980
1462.000000	1.235603
1460.000000	1.231950
1458.000000	1.227396
1456.000000	1.230472
1454.000000	1.234799
1452.000000	1.235576
1450.000000	1.236585
1448.000000	1.237184
1446.000000	1.237614
1444.000000	1.237094
1442.000000	1.236658
1440.000000	1.235302
1438.000000	1.232646
1436.000000	1.233900
1434.000000	1.236413
1432.000000	1.235772
1430.000000	1.235554
1428.000000	1.236027
1426.000000	1.235910
1424.000000	1.235398
1422.000000	1.233994
1420.000000	1.231877
1418.000000	1.234140
1416.000000	1.236143
1414.000000	1.236280
1412.000000	1.235829
1410.000000	1.235528
1408.000000	1.235019
1406.000000	1.234838
1404.000000	1.235653
1402.000000	1.236198
1400.000000	1.235667
1398.000000	1.235883
1396.000000	1.235261
1394.000000	1.235696
1392.000000	1.236494
1390.000000	1.235513
1388.000000	1.234404
1386.000000	1.235257
1384.000000	1.236196
1382.000000	1.236388
1380.000000	1.236151
1378.000000	1.236019
1376.000000	1.235459
1374.000000	1.235337
1372.000000	1.235839
1370.000000	1.235771
1368.000000	1.235678
1366.000000	1.235452
1364.000000	1.234760
1362.000000	1.234944
1360.000000	1.235511
1358.000000	1.235572
1356.000000	1.235362
1354.000000	1.235381
1352.000000	1.235352
1350.000000	1.235203
1348.000000	1.235120
1346.000000	1.235068
1344.000000	1.235015
1342.000000	1.234669
1340.000000	1.234329
1338.000000	1.234608
1336.000000	1.234937
1334.000000	1.235037
1332.000000	1.234885
1330.000000	1.234833
1328.000000	1.234816
1326.000000	1.234748
1324.000000	1.234504
1322.000000	1.234316
1320.000000	1.234137
1318.000000	1.234152
1316.000000	1.234064
1314.000000	1.233904
1312.000000	1.233883
1310.000000	1.233898
1308.000000	1.233850
1306.000000	1.233862
1304.000000	1.233688
1302.000000	1.233570
1300.000000	1.233474
1298.000000	1.233383
1296.000000	1.233349
1294.000000	1.233411
1292.000000	1.233302
1290.000000	1.233088
1288.000000	1.232864
1286.000000	1.232834
1284.000000	1.232809
1282.000000	1.232801
1280.000000	1.232792
1278.000000	1.232967
1276.000000	1.233203
1274.000000	1.233244
1272.000000	1.233015
1270.000000	1.233161
1268.000000	1.233730
1266.000000	1.234980
1264.000000	1.236909
1262.000000	1.239416
1260.000000	1.241534
1258.000000	1.242197
1256.000000	1.241300
1254.000000	1.239535
1252.000000	1.237710
1250.000000	1.236560
1248.000000	1.236010
1246.000000	1.235892
1244.000000	1.235848
1242.000000	1.235965
1240.000000	1.236122
1238.000000	1.236554
1236.000000	1.237023
1234.000000	1.237327
1232.000000	1.237536
1230.000000	1.237779
1228.000000	1.238127
1226.000000	1.238571
1224.000000	1.238780
1222.000000	1.238926
1220.000000	1.239062
1218.000000	1.239333
1216.000000	1.239605
1214.000000	1.239963
1212.000000	1.240399
1210.000000	1.240871
1208.000000	1.241062
1206.000000	1.241193
1204.000000	1.241355
1202.000000	1.241873
1200.000000	1.242114
1198.000000	1.242194
1196.000000	1.242607
1194.000000	1.243102
1192.000000	1.243336
1190.000000	1.243769
1188.000000	1.244131
1186.000000	1.244502
1184.000000	1.244669
1182.000000	1.244772
1180.000000	1.245790
1178.000000	1.246865
1176.000000	1.247006
1174.000000	1.247081
1172.000000	1.247187
1170.000000	1.247667
1168.000000	1.248094
1166.000000	1.248508
1164.000000	1.248915
1162.000000	1.249192
1160.000000	1.249538
1158.000000	1.250138
1156.000000	1.250352
1154.000000	1.250683
1152.000000	1.251127
1150.000000	1.251541
1148.000000	1.252069
1146.000000	1.252431
1144.000000	1.252411
1142.000000	1.252999
1140.000000	1.253727
1138.000000	1.253955
1136.000000	1.253961
1134.000000	1.254104
1132.000000	1.254152
1130.000000	1.254433
1128.000000	1.255004
1126.000000	1.255308
1124.000000	1.255444
1122.000000	1.255993
1120.000000	1.255995
1118.000000	1.255935
1116.000000	1.256283
1114.000000	1.256806
1112.000000	1.257467
1110.000000	1.258119
1108.000000	1.258305
1106.000000	1.258862
1104.000000	1.259638
1102.000000	1.260092
1100.000000	1.260611
1098.000000	1.261060
1096.000000	1.261138
1094.000000	1.261443
1092.000000	1.261802
1090.000000	1.261855
1088.000000	1.261741
1086.000000	1.261493
1084.000000	1.261344
1082.000000	1.261212
1080.000000	1.260813
1078.000000	1.260547
1076.000000	1.260253
1074.000000	1.259928
1072.000000	1.259686
1070.000000	1.259423
1068.000000	1.258842
1066.000000	1.258171
1064.000000	1.257841
1062.000000	1.257862
1060.000000	1.257337
1058.000000	1.256706
1056.000000	1.255756
1054.000000	1.254826
1052.000000	1.254520
1050.000000	1.255306
1048.000000	1.255999
1046.000000	1.255749
1044.000000	1.254653
1042.000000	1.253409
1040.000000	1.252195
1038.000000	1.251365
1036.000000	1.251178
1034.000000	1.251238
1032.000000	1.250634
1030.000000	1.250436
1028.000000	1.250923
1026.000000	1.250594
1024.000000	1.249211
1022.000000	1.248761
1020.000000	1.248009
1018.000000	1.247454
1016.000000	1.247061
1014.000000	1.246072
1012.000000	1.244502
1010.000000	1.242153
1008.000000	1.239580
1006.000000	1.238528
1004.000000	1.237446
1002.000000	1.235656
1000.000000	1.233512
