PE IR       SUBTECH     SPECTRUM    ASCII       PEDS        4.00        
   -1
TE110A_077_140K.ASC
20/05/14
15:27:06.00
20/05/14
15:27:06.00
Administrator
TE110A.Thursday, May 14 2020, 008.
1000.000000
#HDR
-1
-1
#GR
cm-1
A
1.0
0.0
6000.000000
-2.000000
2501
8
1.245001
1.185796
#DATA
6000.000000	1.199267
5998.000000	1.198578
5996.000000	1.197922
5994.000000	1.197881
5992.000000	1.198463
5990.000000	1.198834
5988.000000	1.198833
5986.000000	1.198617
5984.000000	1.198582
5982.000000	1.198686
5980.000000	1.198914
5978.000000	1.199058
5976.000000	1.199052
5974.000000	1.198761
5972.000000	1.198308
5970.000000	1.198116
5968.000000	1.198323
5966.000000	1.198595
5964.000000	1.198780
5962.000000	1.198827
5960.000000	1.198565
5958.000000	1.198229
5956.000000	1.198024
5954.000000	1.198312
5952.000000	1.198576
5950.000000	1.198587
5948.000000	1.198142
5946.000000	1.197957
5944.000000	1.197989
5942.000000	1.198252
5940.000000	1.198705
5938.000000	1.198993
5936.000000	1.198889
5934.000000	1.198505
5932.000000	1.198306
5930.000000	1.198526
5928.000000	1.198628
5926.000000	1.198718
5924.000000	1.198509
5922.000000	1.198187
5920.000000	1.198002
5918.000000	1.197988
5916.000000	1.198383
5914.000000	1.198613
5912.000000	1.198393
5910.000000	1.198285
5908.000000	1.198162
5906.000000	1.198310
5904.000000	1.198113
5902.000000	1.198027
5900.000000	1.197989
5898.000000	1.198118
5896.000000	1.198291
5894.000000	1.198403
5892.000000	1.198526
5890.000000	1.198347
5888.000000	1.198232
5886.000000	1.198398
5884.000000	1.198952
5882.000000	1.198894
5880.000000	1.198432
5878.000000	1.198050
5876.000000	1.198064
5874.000000	1.198190
5872.000000	1.197987
5870.000000	1.197965
5868.000000	1.197944
5866.000000	1.197801
5864.000000	1.197613
5862.000000	1.197612
5860.000000	1.197606
5858.000000	1.197557
5856.000000	1.197729
5854.000000	1.198079
5852.000000	1.198056
5850.000000	1.197536
5848.000000	1.197181
5846.000000	1.197285
5844.000000	1.197733
5842.000000	1.197902
5840.000000	1.197705
5838.000000	1.197453
5836.000000	1.197388
5834.000000	1.197615
5832.000000	1.198117
5830.000000	1.198462
5828.000000	1.198487
5826.000000	1.198511
5824.000000	1.198410
5822.000000	1.198465
5820.000000	1.198302
5818.000000	1.198149
5816.000000	1.198396
5814.000000	1.198560
5812.000000	1.198774
5810.000000	1.198777
5808.000000	1.198612
5806.000000	1.198324
5804.000000	1.198095
5802.000000	1.198183
5800.000000	1.198210
5798.000000	1.197949
5796.000000	1.197829
5794.000000	1.198031
5792.000000	1.198456
5790.000000	1.198383
5788.000000	1.198071
5786.000000	1.198059
5784.000000	1.198224
5782.000000	1.198195
5780.000000	1.197991
5778.000000	1.197696
5776.000000	1.197837
5774.000000	1.197960
5772.000000	1.198225
5770.000000	1.198331
5768.000000	1.198061
5766.000000	1.197945
5764.000000	1.198226
5762.000000	1.198734
5760.000000	1.198720
5758.000000	1.198156
5756.000000	1.197840
5754.000000	1.197935
5752.000000	1.198223
5750.000000	1.198274
5748.000000	1.198316
5746.000000	1.198429
5744.000000	1.198432
5742.000000	1.198405
5740.000000	1.198395
5738.000000	1.198184
5736.000000	1.198079
5734.000000	1.197918
5732.000000	1.197863
5730.000000	1.197840
5728.000000	1.197907
5726.000000	1.198220
5724.000000	1.198512
5722.000000	1.198658
5720.000000	1.198769
5718.000000	1.198759
5716.000000	1.198538
5714.000000	1.198087
5712.000000	1.197835
5710.000000	1.197930
5708.000000	1.198320
5706.000000	1.198563
5704.000000	1.198613
5702.000000	1.198575
5700.000000	1.198489
5698.000000	1.198382
5696.000000	1.198153
5694.000000	1.198265
5692.000000	1.198175
5690.000000	1.197831
5688.000000	1.197648
5686.000000	1.197724
5684.000000	1.198072
5682.000000	1.198101
5680.000000	1.197923
5678.000000	1.197839
5676.000000	1.197774
5674.000000	1.197844
5672.000000	1.198273
5670.000000	1.198595
5668.000000	1.198575
5666.000000	1.198231
5664.000000	1.197868
5662.000000	1.197671
5660.000000	1.197469
5658.000000	1.197434
5656.000000	1.197908
5654.000000	1.198380
5652.000000	1.198230
5650.000000	1.197956
5648.000000	1.197883
5646.000000	1.198071
5644.000000	1.198032
5642.000000	1.197895
5640.000000	1.197982
5638.000000	1.198222
5636.000000	1.198340
5634.000000	1.198355
5632.000000	1.198445
5630.000000	1.198478
5628.000000	1.198724
5626.000000	1.198863
5624.000000	1.198857
5622.000000	1.198660
5620.000000	1.198318
5618.000000	1.198139
5616.000000	1.198149
5614.000000	1.198342
5612.000000	1.198578
5610.000000	1.198639
5608.000000	1.198638
5606.000000	1.198620
5604.000000	1.198570
5602.000000	1.198423
5600.000000	1.198410
5598.000000	1.198447
5596.000000	1.198369
5594.000000	1.198145
5592.000000	1.198023
5590.000000	1.198181
5588.000000	1.198457
5586.000000	1.198513
5584.000000	1.198335
5582.000000	1.198301
5580.000000	1.198524
5578.000000	1.198516
5576.000000	1.198261
5574.000000	1.198009
5572.000000	1.198213
5570.000000	1.198427
5568.000000	1.198635
5566.000000	1.198607
5564.000000	1.198388
5562.000000	1.198236
5560.000000	1.198213
5558.000000	1.198387
5556.000000	1.198294
5554.000000	1.198055
5552.000000	1.197954
5550.000000	1.198147
5548.000000	1.198407
5546.000000	1.198415
5544.000000	1.198239
5542.000000	1.198056
5540.000000	1.198103
5538.000000	1.197955
5536.000000	1.197918
5534.000000	1.198151
5532.000000	1.198465
5530.000000	1.198441
5528.000000	1.198097
5526.000000	1.198026
5524.000000	1.197975
5522.000000	1.197791
5520.000000	1.197821
5518.000000	1.198147
5516.000000	1.198328
5514.000000	1.198046
5512.000000	1.197926
5510.000000	1.198077
5508.000000	1.198115
5506.000000	1.198030
5504.000000	1.198107
5502.000000	1.198355
5500.000000	1.198378
5498.000000	1.198103
5496.000000	1.197826
5494.000000	1.197738
5492.000000	1.197667
5490.000000	1.197751
5488.000000	1.197990
5486.000000	1.198271
5484.000000	1.198256
5482.000000	1.197955
5480.000000	1.197549
5478.000000	1.197337
5476.000000	1.197574
5474.000000	1.198024
5472.000000	1.198153
5470.000000	1.198030
5468.000000	1.197998
5466.000000	1.198140
5464.000000	1.198155
5462.000000	1.198042
5460.000000	1.197980
5458.000000	1.197854
5456.000000	1.197798
5454.000000	1.197678
5452.000000	1.197620
5450.000000	1.197294
5448.000000	1.197149
5446.000000	1.197557
5444.000000	1.198321
5442.000000	1.198764
5440.000000	1.198349
5438.000000	1.197793
5436.000000	1.197566
5434.000000	1.197497
5432.000000	1.197436
5430.000000	1.197472
5428.000000	1.197761
5426.000000	1.198152
5424.000000	1.198304
5422.000000	1.198236
5420.000000	1.198023
5418.000000	1.197713
5416.000000	1.197463
5414.000000	1.197447
5412.000000	1.197710
5410.000000	1.197984
5408.000000	1.198036
5406.000000	1.197939
5404.000000	1.197933
5402.000000	1.197956
5400.000000	1.197873
5398.000000	1.197572
5396.000000	1.197439
5394.000000	1.197579
5392.000000	1.197934
5390.000000	1.197946
5388.000000	1.197815
5386.000000	1.197797
5384.000000	1.197900
5382.000000	1.197775
5380.000000	1.197350
5378.000000	1.197330
5376.000000	1.197775
5374.000000	1.198104
5372.000000	1.198182
5370.000000	1.198087
5368.000000	1.197931
5366.000000	1.197702
5364.000000	1.197568
5362.000000	1.197645
5360.000000	1.197720
5358.000000	1.197653
5356.000000	1.197313
5354.000000	1.197109
5352.000000	1.197246
5350.000000	1.197327
5348.000000	1.196961
5346.000000	1.196912
5344.000000	1.197325
5342.000000	1.197499
5340.000000	1.197321
5338.000000	1.197444
5336.000000	1.197991
5334.000000	1.198199
5332.000000	1.198019
5330.000000	1.197705
5328.000000	1.197807
5326.000000	1.197995
5324.000000	1.198162
5322.000000	1.198214
5320.000000	1.198205
5318.000000	1.198119
5316.000000	1.197890
5314.000000	1.197762
5312.000000	1.197709
5310.000000	1.197569
5308.000000	1.197567
5306.000000	1.197700
5304.000000	1.197911
5302.000000	1.198064
5300.000000	1.198109
5298.000000	1.198089
5296.000000	1.198056
5294.000000	1.197934
5292.000000	1.197748
5290.000000	1.197606
5288.000000	1.197764
5286.000000	1.198065
5284.000000	1.198285
5282.000000	1.198363
5280.000000	1.198213
5278.000000	1.197888
5276.000000	1.197715
5274.000000	1.197846
5272.000000	1.198016
5270.000000	1.197959
5268.000000	1.197642
5266.000000	1.197361
5264.000000	1.197399
5262.000000	1.197638
5260.000000	1.197620
5258.000000	1.197305
5256.000000	1.197424
5254.000000	1.197930
5252.000000	1.198152
5250.000000	1.197828
5248.000000	1.197471
5246.000000	1.197527
5244.000000	1.197941
5242.000000	1.198297
5240.000000	1.198422
5238.000000	1.198362
5236.000000	1.198201
5234.000000	1.197908
5232.000000	1.197746
5230.000000	1.197727
5228.000000	1.197571
5226.000000	1.197508
5224.000000	1.197788
5222.000000	1.198213
5220.000000	1.198403
5218.000000	1.198384
5216.000000	1.198289
5214.000000	1.198127
5212.000000	1.197842
5210.000000	1.197527
5208.000000	1.197410
5206.000000	1.197868
5204.000000	1.198269
5202.000000	1.198223
5200.000000	1.197835
5198.000000	1.197622
5196.000000	1.197684
5194.000000	1.197935
5192.000000	1.198211
5190.000000	1.198275
5188.000000	1.198037
5186.000000	1.197860
5184.000000	1.197959
5182.000000	1.198177
5180.000000	1.198150
5178.000000	1.197942
5176.000000	1.197810
5174.000000	1.197855
5172.000000	1.197856
5170.000000	1.197954
5168.000000	1.198161
5166.000000	1.198216
5164.000000	1.198235
5162.000000	1.198344
5160.000000	1.198491
5158.000000	1.198495
5156.000000	1.198458
5154.000000	1.198492
5152.000000	1.198528
5150.000000	1.198563
5148.000000	1.198594
5146.000000	1.198530
5144.000000	1.198469
5142.000000	1.198309
5140.000000	1.198088
5138.000000	1.198000
5136.000000	1.198048
5134.000000	1.198198
5132.000000	1.198313
5130.000000	1.198264
5128.000000	1.198199
5126.000000	1.198270
5124.000000	1.198403
5122.000000	1.198395
5120.000000	1.198260
5118.000000	1.198228
5116.000000	1.198249
5114.000000	1.198406
5112.000000	1.198601
5110.000000	1.198598
5108.000000	1.198447
5106.000000	1.198409
5104.000000	1.198652
5102.000000	1.198742
5100.000000	1.198519
5098.000000	1.198319
5096.000000	1.198406
5094.000000	1.198498
5092.000000	1.198552
5090.000000	1.198793
5088.000000	1.199011
5086.000000	1.198887
5084.000000	1.198587
5082.000000	1.198386
5080.000000	1.198340
5078.000000	1.198366
5076.000000	1.198500
5074.000000	1.198656
5072.000000	1.198764
5070.000000	1.198748
5068.000000	1.198660
5066.000000	1.198671
5064.000000	1.198733
5062.000000	1.198733
5060.000000	1.198840
5058.000000	1.199027
5056.000000	1.199140
5054.000000	1.199062
5052.000000	1.198953
5050.000000	1.198948
5048.000000	1.199006
5046.000000	1.199004
5044.000000	1.198996
5042.000000	1.199109
5040.000000	1.199205
5038.000000	1.199171
5036.000000	1.199165
5034.000000	1.199238
5032.000000	1.199160
5030.000000	1.198907
5028.000000	1.198770
5026.000000	1.198893
5024.000000	1.199076
5022.000000	1.199103
5020.000000	1.199007
5018.000000	1.198868
5016.000000	1.198817
5014.000000	1.198966
5012.000000	1.199120
5010.000000	1.199158
5008.000000	1.199078
5006.000000	1.199018
5004.000000	1.198976
5002.000000	1.199026
5000.000000	1.199160
4998.000000	1.199252
4996.000000	1.199197
4994.000000	1.199047
4992.000000	1.199070
4990.000000	1.199081
4988.000000	1.199011
4986.000000	1.199003
4984.000000	1.199079
4982.000000	1.199076
4980.000000	1.199095
4978.000000	1.199301
4976.000000	1.199393
4974.000000	1.199350
4972.000000	1.199367
4970.000000	1.199529
4968.000000	1.199599
4966.000000	1.199604
4964.000000	1.199652
4962.000000	1.199676
4960.000000	1.199540
4958.000000	1.199426
4956.000000	1.199567
4954.000000	1.199676
4952.000000	1.199488
4950.000000	1.199230
4948.000000	1.199244
4946.000000	1.199386
4944.000000	1.199456
4942.000000	1.199519
4940.000000	1.199625
4938.000000	1.199621
4936.000000	1.199428
4934.000000	1.199288
4932.000000	1.199467
4930.000000	1.199740
4928.000000	1.199803
4926.000000	1.199822
4924.000000	1.199796
4922.000000	1.199576
4920.000000	1.199335
4918.000000	1.199367
4916.000000	1.199508
4914.000000	1.199560
4912.000000	1.199571
4910.000000	1.199571
4908.000000	1.199596
4906.000000	1.199725
4904.000000	1.199874
4902.000000	1.199945
4900.000000	1.199880
4898.000000	1.199739
4896.000000	1.199685
4894.000000	1.199751
4892.000000	1.199780
4890.000000	1.199713
4888.000000	1.199676
4886.000000	1.199635
4884.000000	1.199554
4882.000000	1.199513
4880.000000	1.199634
4878.000000	1.199799
4876.000000	1.199822
4874.000000	1.199675
4872.000000	1.199636
4870.000000	1.199778
4868.000000	1.199859
4866.000000	1.199852
4864.000000	1.199895
4862.000000	1.199958
4860.000000	1.200059
4858.000000	1.200170
4856.000000	1.200121
4854.000000	1.199990
4852.000000	1.200052
4850.000000	1.200172
4848.000000	1.200064
4846.000000	1.199926
4844.000000	1.199952
4842.000000	1.200056
4840.000000	1.200075
4838.000000	1.199998
4836.000000	1.199865
4834.000000	1.199731
4832.000000	1.199733
4830.000000	1.199878
4828.000000	1.200023
4826.000000	1.200016
4824.000000	1.200021
4822.000000	1.200146
4820.000000	1.200261
4818.000000	1.200281
4816.000000	1.200183
4814.000000	1.200084
4812.000000	1.199981
4810.000000	1.200027
4808.000000	1.200183
4806.000000	1.200188
4804.000000	1.200057
4802.000000	1.200084
4800.000000	1.200208
4798.000000	1.200189
4796.000000	1.200195
4794.000000	1.200190
4792.000000	1.200031
4790.000000	1.199891
4788.000000	1.200033
4786.000000	1.200219
4784.000000	1.200187
4782.000000	1.200098
4780.000000	1.200101
4778.000000	1.200062
4776.000000	1.199998
4774.000000	1.200062
4772.000000	1.200114
4770.000000	1.200136
4768.000000	1.200196
4766.000000	1.200301
4764.000000	1.200399
4762.000000	1.200377
4760.000000	1.200291
4758.000000	1.200298
4756.000000	1.200365
4754.000000	1.200352
4752.000000	1.200307
4750.000000	1.200374
4748.000000	1.200528
4746.000000	1.200556
4744.000000	1.200488
4742.000000	1.200521
4740.000000	1.200633
4738.000000	1.200646
4736.000000	1.200445
4734.000000	1.200152
4732.000000	1.200072
4730.000000	1.200176
4728.000000	1.200212
4726.000000	1.200238
4724.000000	1.200357
4722.000000	1.200474
4720.000000	1.200531
4718.000000	1.200490
4716.000000	1.200335
4714.000000	1.200344
4712.000000	1.200549
4710.000000	1.200700
4708.000000	1.200655
4706.000000	1.200544
4704.000000	1.200416
4702.000000	1.200343
4700.000000	1.200318
4698.000000	1.200345
4696.000000	1.200462
4694.000000	1.200600
4692.000000	1.200597
4690.000000	1.200472
4688.000000	1.200486
4686.000000	1.200608
4684.000000	1.200592
4682.000000	1.200505
4680.000000	1.200596
4678.000000	1.200675
4676.000000	1.200566
4674.000000	1.200517
4672.000000	1.200594
4670.000000	1.200763
4668.000000	1.200841
4666.000000	1.200819
4664.000000	1.200752
4662.000000	1.200799
4660.000000	1.200842
4658.000000	1.200902
4656.000000	1.200936
4654.000000	1.200826
4652.000000	1.200606
4650.000000	1.200545
4648.000000	1.200712
4646.000000	1.200856
4644.000000	1.200825
4642.000000	1.200717
4640.000000	1.200730
4638.000000	1.200758
4636.000000	1.200660
4634.000000	1.200613
4632.000000	1.200685
4630.000000	1.200673
4628.000000	1.200634
4626.000000	1.200758
4624.000000	1.200854
4622.000000	1.200798
4620.000000	1.200798
4618.000000	1.200915
4616.000000	1.200895
4614.000000	1.200784
4612.000000	1.200870
4610.000000	1.201098
4608.000000	1.201153
4606.000000	1.201018
4604.000000	1.200836
4602.000000	1.200797
4600.000000	1.200895
4598.000000	1.201013
4596.000000	1.201116
4594.000000	1.201175
4592.000000	1.201202
4590.000000	1.201279
4588.000000	1.201265
4586.000000	1.201090
4584.000000	1.200984
4582.000000	1.201058
4580.000000	1.201158
4578.000000	1.201205
4576.000000	1.201217
4574.000000	1.201336
4572.000000	1.201377
4570.000000	1.201253
4568.000000	1.201206
4566.000000	1.201354
4564.000000	1.201505
4562.000000	1.201579
4560.000000	1.201530
4558.000000	1.201364
4556.000000	1.201161
4554.000000	1.200988
4552.000000	1.201026
4550.000000	1.201285
4548.000000	1.201506
4546.000000	1.201522
4544.000000	1.201446
4542.000000	1.201341
4540.000000	1.201230
4538.000000	1.201224
4536.000000	1.201331
4534.000000	1.201292
4532.000000	1.201022
4530.000000	1.200968
4528.000000	1.201211
4526.000000	1.201313
4524.000000	1.201184
4522.000000	1.201169
4520.000000	1.201235
4518.000000	1.201256
4516.000000	1.201264
4514.000000	1.201230
4512.000000	1.201181
4510.000000	1.201267
4508.000000	1.201395
4506.000000	1.201390
4504.000000	1.201340
4502.000000	1.201390
4500.000000	1.201436
4498.000000	1.201411
4496.000000	1.201363
4494.000000	1.201391
4492.000000	1.201399
4490.000000	1.201348
4488.000000	1.201321
4486.000000	1.201390
4484.000000	1.201390
4482.000000	1.201334
4480.000000	1.201409
4478.000000	1.201609
4476.000000	1.201719
4474.000000	1.201704
4472.000000	1.201613
4470.000000	1.201570
4468.000000	1.201601
4466.000000	1.201635
4464.000000	1.201618
4462.000000	1.201656
4460.000000	1.201718
4458.000000	1.201700
4456.000000	1.201631
4454.000000	1.201648
4452.000000	1.201677
4450.000000	1.201692
4448.000000	1.201757
4446.000000	1.201746
4444.000000	1.201594
4442.000000	1.201590
4440.000000	1.201767
4438.000000	1.201783
4436.000000	1.201640
4434.000000	1.201583
4432.000000	1.201536
4430.000000	1.201504
4428.000000	1.201562
4426.000000	1.201628
4424.000000	1.201700
4422.000000	1.201751
4420.000000	1.201697
4418.000000	1.201651
4416.000000	1.201713
4414.000000	1.201816
4412.000000	1.201792
4410.000000	1.201658
4408.000000	1.201585
4406.000000	1.201542
4404.000000	1.201461
4402.000000	1.201461
4400.000000	1.201515
4398.000000	1.201530
4396.000000	1.201565
4394.000000	1.201627
4392.000000	1.201691
4390.000000	1.201758
4388.000000	1.201748
4386.000000	1.201719
4384.000000	1.201759
4382.000000	1.201833
4380.000000	1.201926
4378.000000	1.202022
4376.000000	1.202061
4374.000000	1.202074
4372.000000	1.201950
4370.000000	1.201740
4368.000000	1.201731
4366.000000	1.201902
4364.000000	1.201985
4362.000000	1.202005
4360.000000	1.201952
4358.000000	1.201825
4356.000000	1.201829
4354.000000	1.201970
4352.000000	1.201979
4350.000000	1.201807
4348.000000	1.201684
4346.000000	1.201764
4344.000000	1.201891
4342.000000	1.201941
4340.000000	1.201975
4338.000000	1.202020
4336.000000	1.202006
4334.000000	1.201927
4332.000000	1.201847
4330.000000	1.201872
4328.000000	1.201936
4326.000000	1.201909
4324.000000	1.201823
4322.000000	1.201845
4320.000000	1.201920
4318.000000	1.201902
4316.000000	1.201849
4314.000000	1.201857
4312.000000	1.201852
4310.000000	1.201835
4308.000000	1.201856
4306.000000	1.201887
4304.000000	1.201885
4302.000000	1.201858
4300.000000	1.201798
4298.000000	1.201694
4296.000000	1.201592
4294.000000	1.201662
4292.000000	1.201863
4290.000000	1.201976
4288.000000	1.201939
4286.000000	1.201951
4284.000000	1.202036
4282.000000	1.201985
4280.000000	1.201841
4278.000000	1.201809
4276.000000	1.201802
4274.000000	1.201790
4272.000000	1.201829
4270.000000	1.201833
4268.000000	1.201847
4266.000000	1.201962
4264.000000	1.202042
4262.000000	1.201994
4260.000000	1.201873
4258.000000	1.201855
4256.000000	1.201933
4254.000000	1.201948
4252.000000	1.201918
4250.000000	1.201854
4248.000000	1.201699
4246.000000	1.201686
4244.000000	1.201812
4242.000000	1.201851
4240.000000	1.201822
4238.000000	1.201821
4236.000000	1.201840
4234.000000	1.201854
4232.000000	1.201816
4230.000000	1.201757
4228.000000	1.201727
4226.000000	1.201747
4224.000000	1.201703
4222.000000	1.201599
4220.000000	1.201638
4218.000000	1.201857
4216.000000	1.201969
4214.000000	1.201879
4212.000000	1.201767
4210.000000	1.201729
4208.000000	1.201679
4206.000000	1.201686
4204.000000	1.201806
4202.000000	1.201818
4200.000000	1.201589
4198.000000	1.201428
4196.000000	1.201519
4194.000000	1.201657
4192.000000	1.201758
4190.000000	1.201837
4188.000000	1.201801
4186.000000	1.201788
4184.000000	1.201842
4182.000000	1.201742
4180.000000	1.201575
4178.000000	1.201567
4176.000000	1.201637
4174.000000	1.201688
4172.000000	1.201700
4170.000000	1.201695
4168.000000	1.201654
4166.000000	1.201574
4164.000000	1.201542
4162.000000	1.201530
4160.000000	1.201525
4158.000000	1.201628
4156.000000	1.201675
4154.000000	1.201564
4152.000000	1.201429
4150.000000	1.201399
4148.000000	1.201460
4146.000000	1.201477
4144.000000	1.201458
4142.000000	1.201474
4140.000000	1.201419
4138.000000	1.201340
4136.000000	1.201295
4134.000000	1.201261
4132.000000	1.201286
4130.000000	1.201359
4128.000000	1.201361
4126.000000	1.201344
4124.000000	1.201374
4122.000000	1.201358
4120.000000	1.201279
4118.000000	1.201282
4116.000000	1.201344
4114.000000	1.201339
4112.000000	1.201288
4110.000000	1.201235
4108.000000	1.201117
4106.000000	1.201049
4104.000000	1.201130
4102.000000	1.201238
4100.000000	1.201223
4098.000000	1.201150
4096.000000	1.201203
4094.000000	1.201287
4092.000000	1.201263
4090.000000	1.201269
4088.000000	1.201205
4086.000000	1.201047
4084.000000	1.200975
4082.000000	1.200973
4080.000000	1.200941
4078.000000	1.200897
4076.000000	1.200900
4074.000000	1.200980
4072.000000	1.201010
4070.000000	1.200969
4068.000000	1.201020
4066.000000	1.201127
4064.000000	1.201072
4062.000000	1.200974
4060.000000	1.200997
4058.000000	1.201005
4056.000000	1.200899
4054.000000	1.200851
4052.000000	1.200857
4050.000000	1.200795
4048.000000	1.200715
4046.000000	1.200712
4044.000000	1.200804
4042.000000	1.200906
4040.000000	1.200879
4038.000000	1.200769
4036.000000	1.200659
4034.000000	1.200596
4032.000000	1.200620
4030.000000	1.200617
4028.000000	1.200494
4026.000000	1.200387
4024.000000	1.200391
4022.000000	1.200500
4020.000000	1.200527
4018.000000	1.200401
4016.000000	1.200335
4014.000000	1.200428
4012.000000	1.200527
4010.000000	1.200505
4008.000000	1.200518
4006.000000	1.200599
4004.000000	1.200532
4002.000000	1.200449
4000.000000	1.200453
3998.000000	1.200443
3996.000000	1.200413
3994.000000	1.200358
3992.000000	1.200292
3990.000000	1.200302
3988.000000	1.200416
3986.000000	1.200420
3984.000000	1.200219
3982.000000	1.200128
3980.000000	1.200231
3978.000000	1.200308
3976.000000	1.200249
3974.000000	1.200092
3972.000000	1.199990
3970.000000	1.200015
3968.000000	1.200010
3966.000000	1.199896
3964.000000	1.199840
3962.000000	1.199917
3960.000000	1.199903
3958.000000	1.199774
3956.000000	1.199677
3954.000000	1.199603
3952.000000	1.199414
3950.000000	1.199208
3948.000000	1.199288
3946.000000	1.199312
3944.000000	1.199094
3942.000000	1.199271
3940.000000	1.199622
3938.000000	1.199584
3936.000000	1.199110
3934.000000	1.198541
3932.000000	1.198665
3930.000000	1.199214
3928.000000	1.199092
3926.000000	1.198722
3924.000000	1.198894
3922.000000	1.198885
3920.000000	1.198269
3918.000000	1.198136
3916.000000	1.198971
3914.000000	1.199637
3912.000000	1.199483
3910.000000	1.199012
3908.000000	1.197852
3906.000000	1.196002
3904.000000	1.195266
3902.000000	1.196111
3900.000000	1.197595
3898.000000	1.199142
3896.000000	1.199255
3894.000000	1.197490
3892.000000	1.196795
3890.000000	1.197756
3888.000000	1.196795
3886.000000	1.195908
3884.000000	1.197286
3882.000000	1.197488
3880.000000	1.197566
3878.000000	1.198337
3876.000000	1.197633
3874.000000	1.196236
3872.000000	1.194587
3870.000000	1.194940
3868.000000	1.196973
3866.000000	1.196813
3864.000000	1.196744
3862.000000	1.198174
3860.000000	1.198299
3858.000000	1.194493
3856.000000	1.187496
3854.000000	1.187085
3852.000000	1.195646
3850.000000	1.200910
3848.000000	1.199592
3846.000000	1.197336
3844.000000	1.196184
3842.000000	1.194717
3840.000000	1.192186
3838.000000	1.192578
3836.000000	1.196186
3834.000000	1.197599
3832.000000	1.197296
3830.000000	1.197632
3828.000000	1.197494
3826.000000	1.196694
3824.000000	1.194524
3822.000000	1.193217
3820.000000	1.194529
3818.000000	1.193939
3816.000000	1.194480
3814.000000	1.198446
3812.000000	1.198990
3810.000000	1.195811
3808.000000	1.194036
3806.000000	1.195163
3804.000000	1.194079
3802.000000	1.192718
3800.000000	1.195983
3798.000000	1.197887
3796.000000	1.197546
3794.000000	1.198097
3792.000000	1.198105
3790.000000	1.197730
3788.000000	1.197473
3786.000000	1.197254
3784.000000	1.197220
3782.000000	1.196733
3780.000000	1.196409
3778.000000	1.197201
3776.000000	1.197675
3774.000000	1.196882
3772.000000	1.195492
3770.000000	1.195329
3768.000000	1.196281
3766.000000	1.196780
3764.000000	1.196916
3762.000000	1.196144
3760.000000	1.195378
3758.000000	1.195775
3756.000000	1.194373
3754.000000	1.189980
3752.000000	1.187817
3750.000000	1.190771
3748.000000	1.191838
3746.000000	1.188445
3744.000000	1.191087
3742.000000	1.197141
3740.000000	1.195618
3738.000000	1.191453
3736.000000	1.191092
3734.000000	1.192820
3732.000000	1.194793
3730.000000	1.196152
3728.000000	1.195340
3726.000000	1.194502
3724.000000	1.194775
3722.000000	1.195136
3720.000000	1.195571
3718.000000	1.195696
3716.000000	1.194345
3714.000000	1.191678
3712.000000	1.191497
3710.000000	1.194312
3708.000000	1.196215
3706.000000	1.195942
3704.000000	1.194631
3702.000000	1.194408
3700.000000	1.195383
3698.000000	1.195586
3696.000000	1.194954
3694.000000	1.193468
3692.000000	1.190737
3690.000000	1.189184
3688.000000	1.192233
3686.000000	1.196035
3684.000000	1.195777
3682.000000	1.194103
3680.000000	1.192070
3678.000000	1.188420
3676.000000	1.187730
3674.000000	1.190619
3672.000000	1.190137
3670.000000	1.190504
3668.000000	1.194141
3666.000000	1.195096
3664.000000	1.194201
3662.000000	1.193682
3660.000000	1.192565
3658.000000	1.190865
3656.000000	1.191196
3654.000000	1.191443
3652.000000	1.188050
3650.000000	1.186436
3648.000000	1.190041
3646.000000	1.193476
3644.000000	1.193674
3642.000000	1.192828
3640.000000	1.192478
3638.000000	1.192226
3636.000000	1.191621
3634.000000	1.190597
3632.000000	1.187865
3630.000000	1.185796
3628.000000	1.189216
3626.000000	1.192783
3624.000000	1.191769
3622.000000	1.189216
3620.000000	1.188280
3618.000000	1.189747
3616.000000	1.190366
3614.000000	1.189399
3612.000000	1.188843
3610.000000	1.188785
3608.000000	1.189831
3606.000000	1.191068
3604.000000	1.190865
3602.000000	1.190286
3600.000000	1.190125
3598.000000	1.189844
3596.000000	1.189568
3594.000000	1.189886
3592.000000	1.189674
3590.000000	1.188200
3588.000000	1.187949
3586.000000	1.189670
3584.000000	1.190579
3582.000000	1.190280
3580.000000	1.190082
3578.000000	1.190088
3576.000000	1.190059
3574.000000	1.190020
3572.000000	1.189548
3570.000000	1.188219
3568.000000	1.187683
3566.000000	1.189048
3564.000000	1.190173
3562.000000	1.190146
3560.000000	1.190113
3558.000000	1.190226
3556.000000	1.190042
3554.000000	1.189738
3552.000000	1.189802
3550.000000	1.189914
3548.000000	1.189609
3546.000000	1.189710
3544.000000	1.190400
3542.000000	1.190825
3540.000000	1.190720
3538.000000	1.190443
3536.000000	1.190544
3534.000000	1.190837
3532.000000	1.190776
3530.000000	1.190633
3528.000000	1.190761
3526.000000	1.190894
3524.000000	1.190990
3522.000000	1.191360
3520.000000	1.191728
3518.000000	1.191940
3516.000000	1.192093
3514.000000	1.192080
3512.000000	1.191993
3510.000000	1.192156
3508.000000	1.192439
3506.000000	1.192429
3504.000000	1.192465
3502.000000	1.192952
3500.000000	1.193386
3498.000000	1.193578
3496.000000	1.193831
3494.000000	1.194086
3492.000000	1.194246
3490.000000	1.194356
3488.000000	1.194606
3486.000000	1.194966
3484.000000	1.195143
3482.000000	1.195394
3480.000000	1.195840
3478.000000	1.196164
3476.000000	1.196457
3474.000000	1.196850
3472.000000	1.197114
3470.000000	1.197290
3468.000000	1.197605
3466.000000	1.198073
3464.000000	1.198550
3462.000000	1.199020
3460.000000	1.199435
3458.000000	1.199703
3456.000000	1.200021
3454.000000	1.200430
3452.000000	1.200770
3450.000000	1.200983
3448.000000	1.201277
3446.000000	1.201758
3444.000000	1.202179
3442.000000	1.202653
3440.000000	1.203131
3438.000000	1.203443
3436.000000	1.203810
3434.000000	1.204309
3432.000000	1.204817
3430.000000	1.205236
3428.000000	1.205631
3426.000000	1.205973
3424.000000	1.206118
3422.000000	1.206268
3420.000000	1.206656
3418.000000	1.207121
3416.000000	1.207470
3414.000000	1.207721
3412.000000	1.207939
3410.000000	1.208051
3408.000000	1.208134
3406.000000	1.208344
3404.000000	1.208551
3402.000000	1.208719
3400.000000	1.208957
3398.000000	1.209329
3396.000000	1.209643
3394.000000	1.209684
3392.000000	1.209718
3390.000000	1.209896
3388.000000	1.210060
3386.000000	1.210132
3384.000000	1.210262
3382.000000	1.210402
3380.000000	1.210500
3378.000000	1.210665
3376.000000	1.210808
3374.000000	1.210839
3372.000000	1.210856
3370.000000	1.210988
3368.000000	1.211167
3366.000000	1.211282
3364.000000	1.211413
3362.000000	1.211532
3360.000000	1.211545
3358.000000	1.211571
3356.000000	1.211666
3354.000000	1.211799
3352.000000	1.211895
3350.000000	1.211962
3348.000000	1.212079
3346.000000	1.212182
3344.000000	1.212177
3342.000000	1.212170
3340.000000	1.212155
3338.000000	1.212173
3336.000000	1.212343
3334.000000	1.212569
3332.000000	1.212661
3330.000000	1.212599
3328.000000	1.212488
3326.000000	1.212546
3324.000000	1.212744
3322.000000	1.212945
3320.000000	1.213039
3318.000000	1.213022
3316.000000	1.212992
3314.000000	1.212992
3312.000000	1.213041
3310.000000	1.213107
3308.000000	1.213202
3306.000000	1.213261
3304.000000	1.213338
3302.000000	1.213498
3300.000000	1.213534
3298.000000	1.213526
3296.000000	1.213583
3294.000000	1.213618
3292.000000	1.213624
3290.000000	1.213647
3288.000000	1.213713
3286.000000	1.213824
3284.000000	1.213938
3282.000000	1.214038
3280.000000	1.214018
3278.000000	1.213947
3276.000000	1.213954
3274.000000	1.213997
3272.000000	1.214070
3270.000000	1.214191
3268.000000	1.214305
3266.000000	1.214427
3264.000000	1.214529
3262.000000	1.214624
3260.000000	1.214649
3258.000000	1.214566
3256.000000	1.214556
3254.000000	1.214616
3252.000000	1.214725
3250.000000	1.214810
3248.000000	1.214773
3246.000000	1.214794
3244.000000	1.214990
3242.000000	1.215167
3240.000000	1.215274
3238.000000	1.215355
3236.000000	1.215296
3234.000000	1.215215
3232.000000	1.215320
3230.000000	1.215498
3228.000000	1.215625
3226.000000	1.215720
3224.000000	1.215788
3222.000000	1.215795
3220.000000	1.215807
3218.000000	1.215873
3216.000000	1.215933
3214.000000	1.215927
3212.000000	1.215898
3210.000000	1.215946
3208.000000	1.216044
3206.000000	1.216087
3204.000000	1.216083
3202.000000	1.216172
3200.000000	1.216306
3198.000000	1.216355
3196.000000	1.216356
3194.000000	1.216361
3192.000000	1.216401
3190.000000	1.216505
3188.000000	1.216650
3186.000000	1.216667
3184.000000	1.216616
3182.000000	1.216596
3180.000000	1.216606
3178.000000	1.216619
3176.000000	1.216704
3174.000000	1.216832
3172.000000	1.216833
3170.000000	1.216823
3168.000000	1.216938
3166.000000	1.217099
3164.000000	1.217124
3162.000000	1.217179
3160.000000	1.217292
3158.000000	1.217301
3156.000000	1.217300
3154.000000	1.217315
3152.000000	1.217341
3150.000000	1.217571
3148.000000	1.217755
3146.000000	1.217802
3144.000000	1.217831
3142.000000	1.217799
3140.000000	1.217843
3138.000000	1.217889
3136.000000	1.217939
3134.000000	1.218021
3132.000000	1.218097
3130.000000	1.218170
3128.000000	1.218156
3126.000000	1.218084
3124.000000	1.218056
3122.000000	1.218033
3120.000000	1.218072
3118.000000	1.218144
3116.000000	1.218244
3114.000000	1.218344
3112.000000	1.218415
3110.000000	1.218364
3108.000000	1.218211
3106.000000	1.218218
3104.000000	1.218289
3102.000000	1.218271
3100.000000	1.218358
3098.000000	1.218401
3096.000000	1.218297
3094.000000	1.218242
3092.000000	1.218209
3090.000000	1.218128
3088.000000	1.218021
3086.000000	1.218038
3084.000000	1.218058
3082.000000	1.217939
3080.000000	1.217821
3078.000000	1.217797
3076.000000	1.217813
3074.000000	1.217808
3072.000000	1.217750
3070.000000	1.217742
3068.000000	1.217692
3066.000000	1.217633
3064.000000	1.217718
3062.000000	1.217812
3060.000000	1.217785
3058.000000	1.217663
3056.000000	1.217568
3054.000000	1.217560
3052.000000	1.217531
3050.000000	1.217457
3048.000000	1.217406
3046.000000	1.217364
3044.000000	1.217336
3042.000000	1.217307
3040.000000	1.217295
3038.000000	1.217332
3036.000000	1.217358
3034.000000	1.217255
3032.000000	1.217109
3030.000000	1.217037
3028.000000	1.216951
3026.000000	1.216807
3024.000000	1.216739
3022.000000	1.216864
3020.000000	1.217144
3018.000000	1.217480
3016.000000	1.217636
3014.000000	1.217642
3012.000000	1.217691
3010.000000	1.217653
3008.000000	1.217498
3006.000000	1.217403
3004.000000	1.217292
3002.000000	1.217196
3000.000000	1.217096
2998.000000	1.216992
2996.000000	1.216926
2994.000000	1.216836
2992.000000	1.216859
2990.000000	1.216839
2988.000000	1.216712
2986.000000	1.216667
2984.000000	1.216645
2982.000000	1.216606
2980.000000	1.216561
2978.000000	1.216556
2976.000000	1.216526
2974.000000	1.216435
2972.000000	1.216383
2970.000000	1.216451
2968.000000	1.216735
2966.000000	1.217269
2964.000000	1.217951
2962.000000	1.218577
2960.000000	1.218934
2958.000000	1.218925
2956.000000	1.218612
2954.000000	1.218075
2952.000000	1.217588
2950.000000	1.217139
2948.000000	1.216639
2946.000000	1.216191
2944.000000	1.215772
2942.000000	1.215372
2940.000000	1.215102
2938.000000	1.215117
2936.000000	1.215336
2934.000000	1.215428
2932.000000	1.215423
2930.000000	1.215436
2928.000000	1.215651
2926.000000	1.216256
2924.000000	1.217140
2922.000000	1.218041
2920.000000	1.218670
2918.000000	1.218854
2916.000000	1.218715
2914.000000	1.218452
2912.000000	1.218086
2910.000000	1.217670
2908.000000	1.217381
2906.000000	1.217241
2904.000000	1.217129
2902.000000	1.216972
2900.000000	1.216806
2898.000000	1.216727
2896.000000	1.216662
2894.000000	1.216555
2892.000000	1.216441
2890.000000	1.216355
2888.000000	1.216212
2886.000000	1.216063
2884.000000	1.215967
2882.000000	1.215853
2880.000000	1.215639
2878.000000	1.215424
2876.000000	1.215208
2874.000000	1.214979
2872.000000	1.214752
2870.000000	1.214366
2868.000000	1.213969
2866.000000	1.213755
2864.000000	1.213921
2862.000000	1.214532
2860.000000	1.215292
2858.000000	1.215880
2856.000000	1.216124
2854.000000	1.216174
2852.000000	1.216262
2850.000000	1.216519
2848.000000	1.216825
2846.000000	1.216847
2844.000000	1.216589
2842.000000	1.216239
2840.000000	1.215955
2838.000000	1.215741
2836.000000	1.215668
2834.000000	1.215642
2832.000000	1.215570
2830.000000	1.215541
2828.000000	1.215524
2826.000000	1.215442
2824.000000	1.215327
2822.000000	1.215200
2820.000000	1.215153
2818.000000	1.215208
2816.000000	1.215189
2814.000000	1.215093
2812.000000	1.215058
2810.000000	1.215049
2808.000000	1.215051
2806.000000	1.215033
2804.000000	1.215017
2802.000000	1.215007
2800.000000	1.214950
2798.000000	1.214886
2796.000000	1.214903
2794.000000	1.214915
2792.000000	1.214959
2790.000000	1.214983
2788.000000	1.214951
2786.000000	1.214942
2784.000000	1.214923
2782.000000	1.214911
2780.000000	1.214911
2778.000000	1.214877
2776.000000	1.214837
2774.000000	1.214819
2772.000000	1.214802
2770.000000	1.214768
2768.000000	1.214772
2766.000000	1.214812
2764.000000	1.214842
2762.000000	1.214829
2760.000000	1.214859
2758.000000	1.214873
2756.000000	1.214861
2754.000000	1.214854
2752.000000	1.214841
2750.000000	1.214838
2748.000000	1.214876
2746.000000	1.214921
2744.000000	1.214951
2742.000000	1.215007
2740.000000	1.215043
2738.000000	1.214979
2736.000000	1.214952
2734.000000	1.214962
2732.000000	1.214997
2730.000000	1.215037
2728.000000	1.215098
2726.000000	1.215175
2724.000000	1.215274
2722.000000	1.215311
2720.000000	1.215326
2718.000000	1.215365
2716.000000	1.215470
2714.000000	1.215555
2712.000000	1.215630
2710.000000	1.215714
2708.000000	1.215795
2706.000000	1.215778
2704.000000	1.215773
2702.000000	1.215913
2700.000000	1.216072
2698.000000	1.216170
2696.000000	1.216237
2694.000000	1.216323
2692.000000	1.216381
2690.000000	1.216392
2688.000000	1.216530
2686.000000	1.216627
2684.000000	1.216623
2682.000000	1.216702
2680.000000	1.216831
2678.000000	1.216949
2676.000000	1.217042
2674.000000	1.217102
2672.000000	1.217132
2670.000000	1.217131
2668.000000	1.217173
2666.000000	1.217336
2664.000000	1.217479
2662.000000	1.217509
2660.000000	1.217625
2658.000000	1.217804
2656.000000	1.217875
2654.000000	1.217903
2652.000000	1.217916
2650.000000	1.217916
2648.000000	1.217968
2646.000000	1.218061
2644.000000	1.218126
2642.000000	1.218137
2640.000000	1.218207
2638.000000	1.218305
2636.000000	1.218393
2634.000000	1.218450
2632.000000	1.218431
2630.000000	1.218431
2628.000000	1.218466
2626.000000	1.218513
2624.000000	1.218561
2622.000000	1.218517
2620.000000	1.218454
2618.000000	1.218491
2616.000000	1.218599
2614.000000	1.218651
2612.000000	1.218605
2610.000000	1.218577
2608.000000	1.218578
2606.000000	1.218537
2604.000000	1.218540
2602.000000	1.218606
2600.000000	1.218729
2598.000000	1.218797
2596.000000	1.218791
2594.000000	1.218778
2592.000000	1.218830
2590.000000	1.218832
2588.000000	1.218807
2586.000000	1.218917
2584.000000	1.219008
2582.000000	1.218993
2580.000000	1.218937
2578.000000	1.218891
2576.000000	1.218941
2574.000000	1.219041
2572.000000	1.219075
2570.000000	1.219124
2568.000000	1.219183
2566.000000	1.219104
2564.000000	1.219016
2562.000000	1.218989
2560.000000	1.219044
2558.000000	1.219153
2556.000000	1.219201
2554.000000	1.219090
2552.000000	1.219012
2550.000000	1.219135
2548.000000	1.219255
2546.000000	1.219267
2544.000000	1.219238
2542.000000	1.219194
2540.000000	1.219159
2538.000000	1.219189
2536.000000	1.219191
2534.000000	1.219159
2532.000000	1.219224
2530.000000	1.219249
2528.000000	1.219165
2526.000000	1.219097
2524.000000	1.219122
2522.000000	1.219203
2520.000000	1.219263
2518.000000	1.219277
2516.000000	1.219252
2514.000000	1.219211
2512.000000	1.219194
2510.000000	1.219148
2508.000000	1.219091
2506.000000	1.219103
2504.000000	1.219182
2502.000000	1.219256
2500.000000	1.219262
2498.000000	1.219251
2496.000000	1.219230
2494.000000	1.219213
2492.000000	1.219195
2490.000000	1.219193
2488.000000	1.219259
2486.000000	1.219259
2484.000000	1.219248
2482.000000	1.219215
2480.000000	1.219204
2478.000000	1.219210
2476.000000	1.219239
2474.000000	1.219217
2472.000000	1.219236
2470.000000	1.219295
2468.000000	1.219330
2466.000000	1.219360
2464.000000	1.219378
2462.000000	1.219347
2460.000000	1.219349
2458.000000	1.219396
2456.000000	1.219446
2454.000000	1.219543
2452.000000	1.219566
2450.000000	1.219475
2448.000000	1.219434
2446.000000	1.219462
2444.000000	1.219562
2442.000000	1.219587
2440.000000	1.219529
2438.000000	1.219459
2436.000000	1.219436
2434.000000	1.219493
2432.000000	1.219582
2430.000000	1.219621
2428.000000	1.219587
2426.000000	1.219587
2424.000000	1.219620
2422.000000	1.219552
2420.000000	1.219536
2418.000000	1.219588
2416.000000	1.219624
2414.000000	1.219562
2412.000000	1.219459
2410.000000	1.219438
2408.000000	1.219561
2406.000000	1.219603
2404.000000	1.219494
2402.000000	1.219384
2400.000000	1.219363
2398.000000	1.219330
2396.000000	1.219316
2394.000000	1.219433
2392.000000	1.219522
2390.000000	1.219452
2388.000000	1.219405
2386.000000	1.219339
2384.000000	1.219232
2382.000000	1.219033
2380.000000	1.218823
2378.000000	1.218659
2376.000000	1.218420
2374.000000	1.218024
2372.000000	1.217638
2370.000000	1.217230
2368.000000	1.216899
2366.000000	1.216732
2364.000000	1.216643
2362.000000	1.216726
2360.000000	1.217090
2358.000000	1.217566
2356.000000	1.218087
2354.000000	1.218618
2352.000000	1.219036
2350.000000	1.219006
2348.000000	1.218391
2346.000000	1.217814
2344.000000	1.217813
2342.000000	1.218300
2340.000000	1.218893
2338.000000	1.219050
2336.000000	1.218708
2334.000000	1.218369
2332.000000	1.218192
2330.000000	1.218207
2328.000000	1.218351
2326.000000	1.218461
2324.000000	1.218600
2322.000000	1.218769
2320.000000	1.218947
2318.000000	1.219046
2316.000000	1.219220
2314.000000	1.219383
2312.000000	1.219441
2310.000000	1.219462
2308.000000	1.219456
2306.000000	1.219410
2304.000000	1.219436
2302.000000	1.219521
2300.000000	1.219587
2298.000000	1.219593
2296.000000	1.219580
2294.000000	1.219609
2292.000000	1.219617
2290.000000	1.219550
2288.000000	1.219556
2286.000000	1.219655
2284.000000	1.219750
2282.000000	1.219728
2280.000000	1.219775
2278.000000	1.219880
2276.000000	1.219907
2274.000000	1.219795
2272.000000	1.219731
2270.000000	1.219797
2268.000000	1.219816
2266.000000	1.219812
2264.000000	1.219896
2262.000000	1.219886
2260.000000	1.219805
2258.000000	1.219801
2256.000000	1.219761
2254.000000	1.219694
2252.000000	1.219678
2250.000000	1.219611
2248.000000	1.219666
2246.000000	1.219846
2244.000000	1.219861
2242.000000	1.219693
2240.000000	1.219678
2238.000000	1.219768
2236.000000	1.219739
2234.000000	1.219740
2232.000000	1.219805
2230.000000	1.219837
2228.000000	1.219713
2226.000000	1.219542
2224.000000	1.219487
2222.000000	1.219502
2220.000000	1.219521
2218.000000	1.219494
2216.000000	1.219524
2214.000000	1.219485
2212.000000	1.219444
2210.000000	1.219505
2208.000000	1.219555
2206.000000	1.219480
2204.000000	1.219371
2202.000000	1.219348
2200.000000	1.219317
2198.000000	1.219222
2196.000000	1.219217
2194.000000	1.219278
2192.000000	1.219301
2190.000000	1.219143
2188.000000	1.219130
2186.000000	1.219182
2184.000000	1.219157
2182.000000	1.219010
2180.000000	1.218957
2178.000000	1.219002
2176.000000	1.218986
2174.000000	1.218777
2172.000000	1.218614
2170.000000	1.218642
2168.000000	1.218755
2166.000000	1.218708
2164.000000	1.218624
2162.000000	1.218576
2160.000000	1.218505
2158.000000	1.218470
2156.000000	1.218534
2154.000000	1.218486
2152.000000	1.218422
2150.000000	1.218454
2148.000000	1.218467
2146.000000	1.218391
2144.000000	1.218328
2142.000000	1.218163
2140.000000	1.218031
2138.000000	1.217960
2136.000000	1.217899
2134.000000	1.217775
2132.000000	1.217786
2130.000000	1.217860
2128.000000	1.217831
2126.000000	1.217686
2124.000000	1.217648
2122.000000	1.217679
2120.000000	1.217666
2118.000000	1.217667
2116.000000	1.217616
2114.000000	1.217474
2112.000000	1.217401
2110.000000	1.217390
2108.000000	1.217358
2106.000000	1.217289
2104.000000	1.217249
2102.000000	1.217247
2100.000000	1.217289
2098.000000	1.217275
2096.000000	1.217238
2094.000000	1.217171
2092.000000	1.217136
2090.000000	1.217124
2088.000000	1.217089
2086.000000	1.217136
2084.000000	1.217148
2082.000000	1.217016
2080.000000	1.216929
2078.000000	1.216898
2076.000000	1.216929
2074.000000	1.216928
2072.000000	1.216764
2070.000000	1.216606
2068.000000	1.216589
2066.000000	1.216466
2064.000000	1.216455
2062.000000	1.216538
2060.000000	1.216552
2058.000000	1.216485
2056.000000	1.216478
2054.000000	1.216407
2052.000000	1.216334
2050.000000	1.216348
2048.000000	1.216387
2046.000000	1.216347
2044.000000	1.216280
2042.000000	1.216145
2040.000000	1.216149
2038.000000	1.216194
2036.000000	1.216148
2034.000000	1.216089
2032.000000	1.216067
2030.000000	1.216000
2028.000000	1.216064
2026.000000	1.216021
2024.000000	1.215937
2022.000000	1.215979
2020.000000	1.215942
2018.000000	1.215791
2016.000000	1.215849
2014.000000	1.215852
2012.000000	1.215822
2010.000000	1.215814
2008.000000	1.215763
2006.000000	1.215779
2004.000000	1.215834
2002.000000	1.215750
2000.000000	1.215694
1998.000000	1.215700
1996.000000	1.215675
1994.000000	1.215365
1992.000000	1.215248
1990.000000	1.215461
1988.000000	1.215501
1986.000000	1.215471
1984.000000	1.215428
1982.000000	1.215413
1980.000000	1.215430
1978.000000	1.215448
1976.000000	1.215417
1974.000000	1.215334
1972.000000	1.215323
1970.000000	1.215159
1968.000000	1.214990
1966.000000	1.215199
1964.000000	1.215342
1962.000000	1.215186
1960.000000	1.215144
1958.000000	1.215389
1956.000000	1.215409
1954.000000	1.215241
1952.000000	1.215275
1950.000000	1.215340
1948.000000	1.215364
1946.000000	1.215127
1944.000000	1.214710
1942.000000	1.214938
1940.000000	1.215517
1938.000000	1.215546
1936.000000	1.215412
1934.000000	1.215312
1932.000000	1.215379
1930.000000	1.215404
1928.000000	1.215437
1926.000000	1.215286
1924.000000	1.215070
1922.000000	1.215113
1920.000000	1.214730
1918.000000	1.214638
1916.000000	1.215553
1914.000000	1.215731
1912.000000	1.215506
1910.000000	1.215353
1908.000000	1.215589
1906.000000	1.215694
1904.000000	1.215752
1902.000000	1.215745
1900.000000	1.215760
1898.000000	1.215625
1896.000000	1.215548
1894.000000	1.215577
1892.000000	1.215287
1890.000000	1.215079
1888.000000	1.215645
1886.000000	1.215692
1884.000000	1.215716
1882.000000	1.215831
1880.000000	1.215842
1878.000000	1.215744
1876.000000	1.215727
1874.000000	1.215589
1872.000000	1.214966
1870.000000	1.214092
1868.000000	1.214835
1866.000000	1.215788
1864.000000	1.215959
1862.000000	1.215762
1860.000000	1.215719
1858.000000	1.215663
1856.000000	1.215714
1854.000000	1.215725
1852.000000	1.215832
1850.000000	1.215572
1848.000000	1.214991
1846.000000	1.213258
1844.000000	1.213435
1842.000000	1.215554
1840.000000	1.215785
1838.000000	1.215536
1836.000000	1.215678
1834.000000	1.215592
1832.000000	1.214551
1830.000000	1.214205
1828.000000	1.215012
1826.000000	1.214761
1824.000000	1.215400
1822.000000	1.215999
1820.000000	1.215902
1818.000000	1.215818
1816.000000	1.215996
1814.000000	1.215810
1812.000000	1.215422
1810.000000	1.215561
1808.000000	1.215946
1806.000000	1.215915
1804.000000	1.215562
1802.000000	1.214953
1800.000000	1.215163
1798.000000	1.215625
1796.000000	1.215085
1794.000000	1.213116
1792.000000	1.213557
1790.000000	1.215669
1788.000000	1.215817
1786.000000	1.215125
1784.000000	1.215440
1782.000000	1.215392
1780.000000	1.215502
1778.000000	1.215723
1776.000000	1.214633
1774.000000	1.212020
1772.000000	1.212562
1770.000000	1.214663
1768.000000	1.215214
1766.000000	1.216239
1764.000000	1.215044
1762.000000	1.214445
1760.000000	1.215668
1758.000000	1.215357
1756.000000	1.215616
1754.000000	1.214900
1752.000000	1.212837
1750.000000	1.213972
1748.000000	1.215437
1746.000000	1.215863
1744.000000	1.215671
1742.000000	1.214813
1740.000000	1.214622
1738.000000	1.215192
1736.000000	1.210968
1734.000000	1.210305
1732.000000	1.215646
1730.000000	1.216929
1728.000000	1.217161
1726.000000	1.217194
1724.000000	1.217082
1722.000000	1.216437
1720.000000	1.212779
1718.000000	1.210208
1716.000000	1.213946
1714.000000	1.216753
1712.000000	1.217621
1710.000000	1.217118
1708.000000	1.216165
1706.000000	1.215386
1704.000000	1.215228
1702.000000	1.210298
1700.000000	1.210237
1698.000000	1.212135
1696.000000	1.211974
1694.000000	1.217433
1692.000000	1.218467
1690.000000	1.217461
1688.000000	1.215429
1686.000000	1.209876
1684.000000	1.211714
1682.000000	1.217697
1680.000000	1.218194
1678.000000	1.216701
1676.000000	1.214802
1674.000000	1.216666
1672.000000	1.216347
1670.000000	1.215249
1668.000000	1.217611
1666.000000	1.218539
1664.000000	1.217011
1662.000000	1.217804
1660.000000	1.219160
1658.000000	1.218456
1656.000000	1.212592
1654.000000	1.205572
1652.000000	1.212407
1650.000000	1.217975
1648.000000	1.214623
1646.000000	1.215581
1644.000000	1.219231
1642.000000	1.219714
1640.000000	1.218735
1638.000000	1.215494
1636.000000	1.213792
1634.000000	1.218298
1632.000000	1.220269
1630.000000	1.219105
1628.000000	1.218594
1626.000000	1.218083
1624.000000	1.217247
1622.000000	1.218668
1620.000000	1.218120
1618.000000	1.214530
1616.000000	1.216464
1614.000000	1.219998
1612.000000	1.219594
1610.000000	1.219688
1608.000000	1.220331
1606.000000	1.220984
1604.000000	1.221098
1602.000000	1.221376
1600.000000	1.221511
1598.000000	1.221462
1596.000000	1.221285
1594.000000	1.221357
1592.000000	1.221322
1590.000000	1.221307
1588.000000	1.221327
1586.000000	1.221357
1584.000000	1.221296
1582.000000	1.221301
1580.000000	1.220288
1578.000000	1.216228
1576.000000	1.216208
1574.000000	1.220832
1572.000000	1.219648
1570.000000	1.218309
1568.000000	1.220070
1566.000000	1.220577
1564.000000	1.219688
1562.000000	1.214386
1560.000000	1.208115
1558.000000	1.213233
1556.000000	1.218249
1554.000000	1.219417
1552.000000	1.220723
1550.000000	1.220774
1548.000000	1.220606
1546.000000	1.218873
1544.000000	1.216484
1542.000000	1.212550
1540.000000	1.212106
1538.000000	1.218570
1536.000000	1.220192
1534.000000	1.218569
1532.000000	1.220402
1530.000000	1.220639
1528.000000	1.219098
1526.000000	1.218243
1524.000000	1.216581
1522.000000	1.214340
1520.000000	1.216988
1518.000000	1.218324
1516.000000	1.219009
1514.000000	1.219822
1512.000000	1.219360
1510.000000	1.216881
1508.000000	1.211683
1506.000000	1.213532
1504.000000	1.219289
1502.000000	1.218744
1500.000000	1.215434
1498.000000	1.212924
1496.000000	1.215499
1494.000000	1.220981
1492.000000	1.222148
1490.000000	1.221883
1488.000000	1.222496
1486.000000	1.222877
1484.000000	1.222716
1482.000000	1.221939
1480.000000	1.221526
1478.000000	1.220321
1476.000000	1.218652
1474.000000	1.216623
1472.000000	1.218013
1470.000000	1.220832
1468.000000	1.220416
1466.000000	1.218805
1464.000000	1.219602
1462.000000	1.220172
1460.000000	1.216616
1458.000000	1.212191
1456.000000	1.215136
1454.000000	1.219453
1452.000000	1.220270
1450.000000	1.221194
1448.000000	1.221781
1446.000000	1.222150
1444.000000	1.221490
1442.000000	1.221071
1440.000000	1.219845
1438.000000	1.217286
1436.000000	1.218458
1434.000000	1.220865
1432.000000	1.220176
1430.000000	1.220008
1428.000000	1.220507
1426.000000	1.220395
1424.000000	1.219985
1422.000000	1.218650
1420.000000	1.216421
1418.000000	1.218463
1416.000000	1.220383
1414.000000	1.220621
1412.000000	1.220398
1410.000000	1.220100
1408.000000	1.219460
1406.000000	1.219208
1404.000000	1.220069
1402.000000	1.220704
1400.000000	1.220182
1398.000000	1.220236
1396.000000	1.219499
1394.000000	1.220014
1392.000000	1.220935
1390.000000	1.219901
1388.000000	1.218719
1386.000000	1.219517
1384.000000	1.220417
1382.000000	1.220724
1380.000000	1.220567
1378.000000	1.220165
1376.000000	1.219433
1374.000000	1.219314
1372.000000	1.219825
1370.000000	1.219837
1368.000000	1.219938
1366.000000	1.219831
1364.000000	1.218971
1362.000000	1.219035
1360.000000	1.219609
1358.000000	1.219716
1356.000000	1.219567
1354.000000	1.219543
1352.000000	1.219544
1350.000000	1.219537
1348.000000	1.219450
1346.000000	1.219406
1344.000000	1.219196
1342.000000	1.218775
1340.000000	1.218603
1338.000000	1.218940
1336.000000	1.219213
1334.000000	1.219271
1332.000000	1.219125
1330.000000	1.219042
1328.000000	1.218937
1326.000000	1.218973
1324.000000	1.218827
1322.000000	1.218579
1320.000000	1.218336
1318.000000	1.218284
1316.000000	1.218203
1314.000000	1.218189
1312.000000	1.218229
1310.000000	1.218198
1308.000000	1.217967
1306.000000	1.217923
1304.000000	1.217946
1302.000000	1.217986
1300.000000	1.217920
1298.000000	1.217910
1296.000000	1.217926
1294.000000	1.217751
1292.000000	1.217475
1290.000000	1.217371
1288.000000	1.217449
1286.000000	1.217687
1284.000000	1.217555
1282.000000	1.217315
1280.000000	1.217318
1278.000000	1.217480
1276.000000	1.217418
1274.000000	1.217412
1272.000000	1.217610
1270.000000	1.217972
1268.000000	1.218427
1266.000000	1.219454
1264.000000	1.221306
1262.000000	1.223901
1260.000000	1.226155
1258.000000	1.226815
1256.000000	1.225845
1254.000000	1.224133
1252.000000	1.222448
1250.000000	1.221378
1248.000000	1.220912
1246.000000	1.220925
1244.000000	1.220921
1242.000000	1.221056
1240.000000	1.221269
1238.000000	1.221461
1236.000000	1.221720
1234.000000	1.222023
1232.000000	1.222326
1230.000000	1.222671
1228.000000	1.222817
1226.000000	1.223029
1224.000000	1.223151
1222.000000	1.223520
1220.000000	1.223928
1218.000000	1.224049
1216.000000	1.224064
1214.000000	1.224318
1212.000000	1.224713
1210.000000	1.225121
1208.000000	1.225325
1206.000000	1.225651
1204.000000	1.225915
1202.000000	1.226155
1200.000000	1.226271
1198.000000	1.226564
1196.000000	1.226860
1194.000000	1.227420
1192.000000	1.227881
1190.000000	1.228149
1188.000000	1.228355
1186.000000	1.228635
1184.000000	1.228558
1182.000000	1.228672
1180.000000	1.229793
1178.000000	1.230830
1176.000000	1.230783
1174.000000	1.230713
1172.000000	1.231080
1170.000000	1.231576
1168.000000	1.231920
1166.000000	1.232293
1164.000000	1.232585
1162.000000	1.232944
1160.000000	1.233490
1158.000000	1.234115
1156.000000	1.234462
1154.000000	1.234546
1152.000000	1.234847
1150.000000	1.235475
1148.000000	1.235613
1146.000000	1.235755
1144.000000	1.236041
1142.000000	1.236719
1140.000000	1.237240
1138.000000	1.237286
1136.000000	1.237186
1134.000000	1.237608
1132.000000	1.237940
1130.000000	1.238113
1128.000000	1.238309
1126.000000	1.238609
1124.000000	1.238790
1122.000000	1.239210
1120.000000	1.239325
1118.000000	1.239396
1116.000000	1.239525
1114.000000	1.239960
1112.000000	1.240313
1110.000000	1.240757
1108.000000	1.241464
1106.000000	1.242628
1104.000000	1.243242
1102.000000	1.243520
1100.000000	1.243694
1098.000000	1.243897
1096.000000	1.244051
1094.000000	1.244028
1092.000000	1.244279
1090.000000	1.245001
1088.000000	1.244858
1086.000000	1.244905
1084.000000	1.244613
1082.000000	1.243886
1080.000000	1.243788
1078.000000	1.243793
1076.000000	1.243761
1074.000000	1.244021
1072.000000	1.243289
1070.000000	1.242483
1068.000000	1.242487
1066.000000	1.242472
1064.000000	1.241337
1062.000000	1.240789
1060.000000	1.240511
1058.000000	1.239673
1056.000000	1.237916
1054.000000	1.236617
1052.000000	1.236475
1050.000000	1.237346
1048.000000	1.238458
1046.000000	1.239204
1044.000000	1.238563
1042.000000	1.237140
1040.000000	1.235836
1038.000000	1.235198
1036.000000	1.234605
1034.000000	1.234284
1032.000000	1.233424
1030.000000	1.232745
1028.000000	1.232211
1026.000000	1.232154
1024.000000	1.232225
1022.000000	1.231681
1020.000000	1.231307
1018.000000	1.231437
1016.000000	1.230858
1014.000000	1.229751
1012.000000	1.227403
1010.000000	1.225149
1008.000000	1.223492
1006.000000	1.222726
1004.000000	1.221563
1002.000000	1.219822
1000.000000	1.218083
