PE IR       SUBTECH     SPECTRUM    ASCII       PEDS        4.00        
   -1
TE110A_078_140K_2MIN.ASC
20/05/14
15:29:28.00
20/05/14
15:29:28.00
Administrator
TE110A.Thursday, May 14 2020, 009.
1000.000000
#HDR
-1
-1
#GR
cm-1
A
1.0
0.0
6000.000000
-2.000000
2501
8
1.245578
1.186465
#DATA
6000.000000	1.199067
5998.000000	1.199142
5996.000000	1.198980
5994.000000	1.198832
5992.000000	1.198835
5990.000000	1.198929
5988.000000	1.199001
5986.000000	1.198763
5984.000000	1.198493
5982.000000	1.198455
5980.000000	1.198476
5978.000000	1.198888
5976.000000	1.198954
5974.000000	1.198681
5972.000000	1.198434
5970.000000	1.198052
5968.000000	1.198011
5966.000000	1.198259
5964.000000	1.198376
5962.000000	1.198487
5960.000000	1.198640
5958.000000	1.198652
5956.000000	1.199102
5954.000000	1.199451
5952.000000	1.199466
5950.000000	1.199207
5948.000000	1.198722
5946.000000	1.198666
5944.000000	1.198839
5942.000000	1.198741
5940.000000	1.198575
5938.000000	1.198408
5936.000000	1.198489
5934.000000	1.198572
5932.000000	1.198560
5930.000000	1.198634
5928.000000	1.198693
5926.000000	1.198572
5924.000000	1.198601
5922.000000	1.198658
5920.000000	1.198712
5918.000000	1.198636
5916.000000	1.198504
5914.000000	1.198749
5912.000000	1.199225
5910.000000	1.199283
5908.000000	1.198965
5906.000000	1.198679
5904.000000	1.198715
5902.000000	1.198983
5900.000000	1.199007
5898.000000	1.198894
5896.000000	1.198695
5894.000000	1.198331
5892.000000	1.198247
5890.000000	1.198463
5888.000000	1.198627
5886.000000	1.198700
5884.000000	1.198656
5882.000000	1.198582
5880.000000	1.198562
5878.000000	1.198487
5876.000000	1.198665
5874.000000	1.198848
5872.000000	1.198632
5870.000000	1.198265
5868.000000	1.198098
5866.000000	1.198186
5864.000000	1.198391
5862.000000	1.198333
5860.000000	1.198171
5858.000000	1.198366
5856.000000	1.198581
5854.000000	1.198676
5852.000000	1.198607
5850.000000	1.198493
5848.000000	1.198483
5846.000000	1.198479
5844.000000	1.198570
5842.000000	1.198403
5840.000000	1.198222
5838.000000	1.198175
5836.000000	1.198455
5834.000000	1.198887
5832.000000	1.198892
5830.000000	1.198753
5828.000000	1.198571
5826.000000	1.198620
5824.000000	1.198821
5822.000000	1.198911
5820.000000	1.198796
5818.000000	1.198678
5816.000000	1.198579
5814.000000	1.198516
5812.000000	1.198481
5810.000000	1.198695
5808.000000	1.199036
5806.000000	1.199330
5804.000000	1.199350
5802.000000	1.199189
5800.000000	1.198875
5798.000000	1.198810
5796.000000	1.198914
5794.000000	1.198947
5792.000000	1.198995
5790.000000	1.198903
5788.000000	1.198836
5786.000000	1.198832
5784.000000	1.198895
5782.000000	1.199321
5780.000000	1.199522
5778.000000	1.199256
5776.000000	1.198749
5774.000000	1.198413
5772.000000	1.198437
5770.000000	1.198691
5768.000000	1.198912
5766.000000	1.199062
5764.000000	1.198953
5762.000000	1.198742
5760.000000	1.198530
5758.000000	1.198362
5756.000000	1.198353
5754.000000	1.198379
5752.000000	1.198378
5750.000000	1.198436
5748.000000	1.198529
5746.000000	1.198587
5744.000000	1.198709
5742.000000	1.198748
5740.000000	1.198711
5738.000000	1.198619
5736.000000	1.198495
5734.000000	1.198433
5732.000000	1.198245
5730.000000	1.198081
5728.000000	1.198392
5726.000000	1.198682
5724.000000	1.198712
5722.000000	1.198640
5720.000000	1.198642
5718.000000	1.198700
5716.000000	1.198707
5714.000000	1.198705
5712.000000	1.198702
5710.000000	1.198635
5708.000000	1.198480
5706.000000	1.198462
5704.000000	1.198445
5702.000000	1.198463
5700.000000	1.198520
5698.000000	1.198510
5696.000000	1.198635
5694.000000	1.198641
5692.000000	1.198542
5690.000000	1.198409
5688.000000	1.198386
5686.000000	1.198540
5684.000000	1.198641
5682.000000	1.198557
5680.000000	1.198533
5678.000000	1.198635
5676.000000	1.198889
5674.000000	1.199011
5672.000000	1.198912
5670.000000	1.198644
5668.000000	1.198242
5666.000000	1.198049
5664.000000	1.198107
5662.000000	1.198514
5660.000000	1.198781
5658.000000	1.198678
5656.000000	1.198425
5654.000000	1.198355
5652.000000	1.198571
5650.000000	1.198806
5648.000000	1.198917
5646.000000	1.198872
5644.000000	1.198885
5642.000000	1.198693
5640.000000	1.198521
5638.000000	1.198563
5636.000000	1.198726
5634.000000	1.198854
5632.000000	1.198722
5630.000000	1.198675
5628.000000	1.198870
5626.000000	1.198965
5624.000000	1.198801
5622.000000	1.198625
5620.000000	1.198560
5618.000000	1.198608
5616.000000	1.198817
5614.000000	1.199089
5612.000000	1.199020
5610.000000	1.198619
5608.000000	1.198399
5606.000000	1.198436
5604.000000	1.198460
5602.000000	1.198293
5600.000000	1.198373
5598.000000	1.198535
5596.000000	1.198604
5594.000000	1.198457
5592.000000	1.198265
5590.000000	1.198296
5588.000000	1.198402
5586.000000	1.198404
5584.000000	1.198339
5582.000000	1.198332
5580.000000	1.198638
5578.000000	1.198871
5576.000000	1.198859
5574.000000	1.198690
5572.000000	1.198511
5570.000000	1.198475
5568.000000	1.198549
5566.000000	1.198518
5564.000000	1.198379
5562.000000	1.198179
5560.000000	1.198255
5558.000000	1.198548
5556.000000	1.198774
5554.000000	1.198658
5552.000000	1.198337
5550.000000	1.198262
5548.000000	1.198440
5546.000000	1.198614
5544.000000	1.198617
5542.000000	1.198606
5540.000000	1.198632
5538.000000	1.198575
5536.000000	1.198561
5534.000000	1.198537
5532.000000	1.198438
5530.000000	1.198394
5528.000000	1.198659
5526.000000	1.198903
5524.000000	1.198829
5522.000000	1.198751
5520.000000	1.198752
5518.000000	1.198738
5516.000000	1.198639
5514.000000	1.198592
5512.000000	1.198619
5510.000000	1.198666
5508.000000	1.198752
5506.000000	1.198708
5504.000000	1.198598
5502.000000	1.198464
5500.000000	1.198403
5498.000000	1.198475
5496.000000	1.198524
5494.000000	1.198507
5492.000000	1.198373
5490.000000	1.198321
5488.000000	1.198418
5486.000000	1.198374
5484.000000	1.198349
5482.000000	1.198365
5480.000000	1.198320
5478.000000	1.198050
5476.000000	1.197943
5474.000000	1.198173
5472.000000	1.198457
5470.000000	1.198373
5468.000000	1.198165
5466.000000	1.198077
5464.000000	1.198022
5462.000000	1.197936
5460.000000	1.198074
5458.000000	1.198399
5456.000000	1.198561
5454.000000	1.198444
5452.000000	1.198164
5450.000000	1.197883
5448.000000	1.197688
5446.000000	1.197751
5444.000000	1.197988
5442.000000	1.198315
5440.000000	1.198484
5438.000000	1.198424
5436.000000	1.198157
5434.000000	1.197921
5432.000000	1.197817
5430.000000	1.197888
5428.000000	1.198194
5426.000000	1.198578
5424.000000	1.198762
5422.000000	1.198739
5420.000000	1.198612
5418.000000	1.198269
5416.000000	1.197757
5414.000000	1.197510
5412.000000	1.197817
5410.000000	1.198366
5408.000000	1.198654
5406.000000	1.198596
5404.000000	1.198414
5402.000000	1.198218
5400.000000	1.198092
5398.000000	1.197830
5396.000000	1.197613
5394.000000	1.197714
5392.000000	1.198229
5390.000000	1.198461
5388.000000	1.198295
5386.000000	1.198335
5384.000000	1.198634
5382.000000	1.198599
5380.000000	1.198064
5378.000000	1.197793
5376.000000	1.198035
5374.000000	1.198574
5372.000000	1.198974
5370.000000	1.198973
5368.000000	1.198646
5366.000000	1.198396
5364.000000	1.198431
5362.000000	1.198473
5360.000000	1.198325
5358.000000	1.198045
5356.000000	1.197796
5354.000000	1.197961
5352.000000	1.198366
5350.000000	1.198470
5348.000000	1.198020
5346.000000	1.197769
5344.000000	1.197926
5342.000000	1.197919
5340.000000	1.197709
5338.000000	1.197896
5336.000000	1.198397
5334.000000	1.198589
5332.000000	1.198336
5330.000000	1.198060
5328.000000	1.198182
5326.000000	1.198494
5324.000000	1.198727
5322.000000	1.198631
5320.000000	1.198475
5318.000000	1.198399
5316.000000	1.198538
5314.000000	1.198665
5312.000000	1.198544
5310.000000	1.198288
5308.000000	1.198338
5306.000000	1.198608
5304.000000	1.198591
5302.000000	1.198433
5300.000000	1.198395
5298.000000	1.198452
5296.000000	1.198408
5294.000000	1.198064
5292.000000	1.197805
5290.000000	1.197824
5288.000000	1.198114
5286.000000	1.198325
5284.000000	1.198409
5282.000000	1.198539
5280.000000	1.198520
5278.000000	1.198358
5276.000000	1.198279
5274.000000	1.198407
5272.000000	1.198486
5270.000000	1.198269
5268.000000	1.197889
5266.000000	1.197628
5264.000000	1.197740
5262.000000	1.198106
5260.000000	1.198336
5258.000000	1.198154
5256.000000	1.198145
5254.000000	1.198433
5252.000000	1.198566
5250.000000	1.198287
5248.000000	1.198123
5246.000000	1.198250
5244.000000	1.198466
5242.000000	1.198571
5240.000000	1.198560
5238.000000	1.198495
5236.000000	1.198507
5234.000000	1.198483
5232.000000	1.198396
5230.000000	1.198254
5228.000000	1.198048
5226.000000	1.198060
5224.000000	1.198494
5222.000000	1.198934
5220.000000	1.198851
5218.000000	1.198572
5216.000000	1.198452
5214.000000	1.198472
5212.000000	1.198403
5210.000000	1.198080
5208.000000	1.197833
5206.000000	1.198031
5204.000000	1.198574
5202.000000	1.198783
5200.000000	1.198525
5198.000000	1.198375
5196.000000	1.198525
5194.000000	1.198706
5192.000000	1.198665
5190.000000	1.198448
5188.000000	1.198181
5186.000000	1.198114
5184.000000	1.198315
5182.000000	1.198498
5180.000000	1.198465
5178.000000	1.198369
5176.000000	1.198376
5174.000000	1.198360
5172.000000	1.198412
5170.000000	1.198534
5168.000000	1.198552
5166.000000	1.198468
5164.000000	1.198458
5162.000000	1.198570
5160.000000	1.198673
5158.000000	1.198669
5156.000000	1.198751
5154.000000	1.198847
5152.000000	1.198900
5150.000000	1.198943
5148.000000	1.198943
5146.000000	1.198872
5144.000000	1.198803
5142.000000	1.198867
5140.000000	1.198968
5138.000000	1.198951
5136.000000	1.198891
5134.000000	1.198880
5132.000000	1.198919
5130.000000	1.198914
5128.000000	1.198889
5126.000000	1.198859
5124.000000	1.198834
5122.000000	1.198869
5120.000000	1.199006
5118.000000	1.199067
5116.000000	1.198919
5114.000000	1.198732
5112.000000	1.198711
5110.000000	1.198798
5108.000000	1.198893
5106.000000	1.198946
5104.000000	1.199009
5102.000000	1.199045
5100.000000	1.199040
5098.000000	1.199005
5096.000000	1.198980
5094.000000	1.198930
5092.000000	1.198911
5090.000000	1.198927
5088.000000	1.198994
5086.000000	1.199129
5084.000000	1.199221
5082.000000	1.199193
5080.000000	1.199036
5078.000000	1.198962
5076.000000	1.198951
5074.000000	1.198945
5072.000000	1.198987
5070.000000	1.199104
5068.000000	1.199146
5066.000000	1.199102
5064.000000	1.199086
5062.000000	1.199232
5060.000000	1.199328
5058.000000	1.199259
5056.000000	1.199183
5054.000000	1.199311
5052.000000	1.199486
5050.000000	1.199516
5048.000000	1.199503
5046.000000	1.199523
5044.000000	1.199549
5042.000000	1.199522
5040.000000	1.199443
5038.000000	1.199383
5036.000000	1.199372
5034.000000	1.199418
5032.000000	1.199586
5030.000000	1.199785
5028.000000	1.199777
5026.000000	1.199654
5024.000000	1.199658
5022.000000	1.199714
5020.000000	1.199719
5018.000000	1.199618
5016.000000	1.199440
5014.000000	1.199352
5012.000000	1.199434
5010.000000	1.199524
5008.000000	1.199510
5006.000000	1.199556
5004.000000	1.199566
5002.000000	1.199606
5000.000000	1.199701
4998.000000	1.199765
4996.000000	1.199605
4994.000000	1.199439
4992.000000	1.199471
4990.000000	1.199564
4988.000000	1.199583
4986.000000	1.199622
4984.000000	1.199750
4982.000000	1.199800
4980.000000	1.199772
4978.000000	1.199747
4976.000000	1.199738
4974.000000	1.199666
4972.000000	1.199598
4970.000000	1.199511
4968.000000	1.199449
4966.000000	1.199640
4964.000000	1.199980
4962.000000	1.200116
4960.000000	1.199993
4958.000000	1.199907
4956.000000	1.199923
4954.000000	1.199866
4952.000000	1.199665
4950.000000	1.199494
4948.000000	1.199539
4946.000000	1.199785
4944.000000	1.199970
4942.000000	1.200047
4940.000000	1.200072
4938.000000	1.200101
4936.000000	1.200115
4934.000000	1.200074
4932.000000	1.200015
4930.000000	1.200026
4928.000000	1.200088
4926.000000	1.200129
4924.000000	1.200125
4922.000000	1.200153
4920.000000	1.200125
4918.000000	1.200068
4916.000000	1.199960
4914.000000	1.199896
4912.000000	1.199915
4910.000000	1.200038
4908.000000	1.200103
4906.000000	1.200059
4904.000000	1.200023
4902.000000	1.200100
4900.000000	1.200219
4898.000000	1.200283
4896.000000	1.200246
4894.000000	1.200140
4892.000000	1.200086
4890.000000	1.200137
4888.000000	1.200177
4886.000000	1.200156
4884.000000	1.200194
4882.000000	1.200314
4880.000000	1.200301
4878.000000	1.200183
4876.000000	1.200145
4874.000000	1.200309
4872.000000	1.200460
4870.000000	1.200484
4868.000000	1.200489
4866.000000	1.200469
4864.000000	1.200384
4862.000000	1.200310
4860.000000	1.200363
4858.000000	1.200468
4856.000000	1.200465
4854.000000	1.200467
4852.000000	1.200497
4850.000000	1.200569
4848.000000	1.200612
4846.000000	1.200650
4844.000000	1.200568
4842.000000	1.200401
4840.000000	1.200343
4838.000000	1.200428
4836.000000	1.200470
4834.000000	1.200465
4832.000000	1.200494
4830.000000	1.200518
4828.000000	1.200483
4826.000000	1.200492
4824.000000	1.200565
4822.000000	1.200576
4820.000000	1.200592
4818.000000	1.200635
4816.000000	1.200649
4814.000000	1.200618
4812.000000	1.200607
4810.000000	1.200614
4808.000000	1.200620
4806.000000	1.200571
4804.000000	1.200441
4802.000000	1.200419
4800.000000	1.200577
4798.000000	1.200728
4796.000000	1.200775
4794.000000	1.200723
4792.000000	1.200596
4790.000000	1.200499
4788.000000	1.200580
4786.000000	1.200739
4784.000000	1.200846
4782.000000	1.200856
4780.000000	1.200793
4778.000000	1.200710
4776.000000	1.200691
4774.000000	1.200720
4772.000000	1.200759
4770.000000	1.200772
4768.000000	1.200809
4766.000000	1.200866
4764.000000	1.200876
4762.000000	1.200901
4760.000000	1.200991
4758.000000	1.201092
4756.000000	1.201126
4754.000000	1.201109
4752.000000	1.201057
4750.000000	1.201065
4748.000000	1.201139
4746.000000	1.201129
4744.000000	1.201009
4742.000000	1.200854
4740.000000	1.200764
4738.000000	1.200750
4736.000000	1.200735
4734.000000	1.200751
4732.000000	1.200824
4730.000000	1.200864
4728.000000	1.200798
4726.000000	1.200694
4724.000000	1.200634
4722.000000	1.200692
4720.000000	1.200792
4718.000000	1.200871
4716.000000	1.200907
4714.000000	1.200866
4712.000000	1.200758
4710.000000	1.200739
4708.000000	1.200862
4706.000000	1.201032
4704.000000	1.201168
4702.000000	1.201178
4700.000000	1.201091
4698.000000	1.200979
4696.000000	1.200914
4694.000000	1.200940
4692.000000	1.200993
4690.000000	1.200928
4688.000000	1.200830
4686.000000	1.200905
4684.000000	1.201022
4682.000000	1.201032
4680.000000	1.201082
4678.000000	1.201196
4676.000000	1.201224
4674.000000	1.201185
4672.000000	1.201154
4670.000000	1.201138
4668.000000	1.201145
4666.000000	1.201132
4664.000000	1.201121
4662.000000	1.201100
4660.000000	1.201076
4658.000000	1.201161
4656.000000	1.201250
4654.000000	1.201199
4652.000000	1.201164
4650.000000	1.201231
4648.000000	1.201238
4646.000000	1.201208
4644.000000	1.201170
4642.000000	1.201129
4640.000000	1.201163
4638.000000	1.201251
4636.000000	1.201282
4634.000000	1.201328
4632.000000	1.201368
4630.000000	1.201300
4628.000000	1.201231
4626.000000	1.201258
4624.000000	1.201246
4622.000000	1.201180
4620.000000	1.201185
4618.000000	1.201240
4616.000000	1.201326
4614.000000	1.201434
4612.000000	1.201511
4610.000000	1.201519
4608.000000	1.201462
4606.000000	1.201347
4604.000000	1.201291
4602.000000	1.201328
4600.000000	1.201373
4598.000000	1.201374
4596.000000	1.201342
4594.000000	1.201328
4592.000000	1.201328
4590.000000	1.201344
4588.000000	1.201426
4586.000000	1.201536
4584.000000	1.201570
4582.000000	1.201548
4580.000000	1.201517
4578.000000	1.201461
4576.000000	1.201514
4574.000000	1.201637
4572.000000	1.201695
4570.000000	1.201662
4568.000000	1.201627
4566.000000	1.201642
4564.000000	1.201722
4562.000000	1.201700
4560.000000	1.201603
4558.000000	1.201636
4556.000000	1.201732
4554.000000	1.201786
4552.000000	1.201853
4550.000000	1.201870
4548.000000	1.201769
4546.000000	1.201722
4544.000000	1.201736
4542.000000	1.201692
4540.000000	1.201680
4538.000000	1.201782
4536.000000	1.201858
4534.000000	1.201845
4532.000000	1.201795
4530.000000	1.201749
4528.000000	1.201705
4526.000000	1.201702
4524.000000	1.201774
4522.000000	1.201935
4520.000000	1.201974
4518.000000	1.201853
4516.000000	1.201769
4514.000000	1.201775
4512.000000	1.201711
4510.000000	1.201655
4508.000000	1.201703
4506.000000	1.201765
4504.000000	1.201780
4502.000000	1.201805
4500.000000	1.201789
4498.000000	1.201728
4496.000000	1.201728
4494.000000	1.201772
4492.000000	1.201758
4490.000000	1.201780
4488.000000	1.201833
4486.000000	1.201816
4484.000000	1.201818
4482.000000	1.201846
4480.000000	1.201867
4478.000000	1.201961
4476.000000	1.202066
4474.000000	1.202072
4472.000000	1.202082
4470.000000	1.202120
4468.000000	1.202148
4466.000000	1.202127
4464.000000	1.202030
4462.000000	1.202010
4460.000000	1.202059
4458.000000	1.202068
4456.000000	1.202089
4454.000000	1.202161
4452.000000	1.202147
4450.000000	1.202027
4448.000000	1.201919
4446.000000	1.201965
4444.000000	1.202089
4442.000000	1.202144
4440.000000	1.202150
4438.000000	1.202179
4436.000000	1.202146
4434.000000	1.202031
4432.000000	1.201989
4430.000000	1.202072
4428.000000	1.202086
4426.000000	1.202047
4424.000000	1.202045
4422.000000	1.202060
4420.000000	1.202090
4418.000000	1.202185
4416.000000	1.202239
4414.000000	1.202199
4412.000000	1.202079
4410.000000	1.202009
4408.000000	1.202087
4406.000000	1.202202
4404.000000	1.202191
4402.000000	1.202123
4400.000000	1.202132
4398.000000	1.202137
4396.000000	1.202089
4394.000000	1.202088
4392.000000	1.202148
4390.000000	1.202165
4388.000000	1.202157
4386.000000	1.202114
4384.000000	1.202082
4382.000000	1.202164
4380.000000	1.202324
4378.000000	1.202434
4376.000000	1.202463
4374.000000	1.202443
4372.000000	1.202383
4370.000000	1.202326
4368.000000	1.202312
4366.000000	1.202324
4364.000000	1.202311
4362.000000	1.202357
4360.000000	1.202459
4358.000000	1.202493
4356.000000	1.202445
4354.000000	1.202408
4352.000000	1.202385
4350.000000	1.202353
4348.000000	1.202314
4346.000000	1.202309
4344.000000	1.202350
4342.000000	1.202348
4340.000000	1.202261
4338.000000	1.202204
4336.000000	1.202229
4334.000000	1.202266
4332.000000	1.202275
4330.000000	1.202258
4328.000000	1.202261
4326.000000	1.202307
4324.000000	1.202328
4322.000000	1.202294
4320.000000	1.202262
4318.000000	1.202287
4316.000000	1.202362
4314.000000	1.202405
4312.000000	1.202377
4310.000000	1.202326
4308.000000	1.202291
4306.000000	1.202260
4304.000000	1.202229
4302.000000	1.202197
4300.000000	1.202191
4298.000000	1.202237
4296.000000	1.202248
4294.000000	1.202225
4292.000000	1.202295
4290.000000	1.202437
4288.000000	1.202516
4286.000000	1.202502
4284.000000	1.202438
4282.000000	1.202419
4280.000000	1.202412
4278.000000	1.202379
4276.000000	1.202351
4274.000000	1.202302
4272.000000	1.202287
4270.000000	1.202354
4268.000000	1.202404
4266.000000	1.202405
4264.000000	1.202358
4262.000000	1.202295
4260.000000	1.202287
4258.000000	1.202341
4256.000000	1.202432
4254.000000	1.202492
4252.000000	1.202486
4250.000000	1.202410
4248.000000	1.202318
4246.000000	1.202285
4244.000000	1.202276
4242.000000	1.202313
4240.000000	1.202382
4238.000000	1.202330
4236.000000	1.202190
4234.000000	1.202094
4232.000000	1.202130
4230.000000	1.202261
4228.000000	1.202311
4226.000000	1.202243
4224.000000	1.202223
4222.000000	1.202231
4220.000000	1.202223
4218.000000	1.202224
4216.000000	1.202157
4214.000000	1.202041
4212.000000	1.202062
4210.000000	1.202193
4208.000000	1.202214
4206.000000	1.202135
4204.000000	1.202142
4202.000000	1.202255
4200.000000	1.202288
4198.000000	1.202243
4196.000000	1.202212
4194.000000	1.202190
4192.000000	1.202148
4190.000000	1.202185
4188.000000	1.202263
4186.000000	1.202246
4184.000000	1.202127
4182.000000	1.202077
4180.000000	1.202162
4178.000000	1.202232
4176.000000	1.202186
4174.000000	1.202126
4172.000000	1.202101
4170.000000	1.202087
4168.000000	1.202148
4166.000000	1.202260
4164.000000	1.202235
4162.000000	1.202159
4160.000000	1.202193
4158.000000	1.202194
4156.000000	1.202082
4154.000000	1.202001
4152.000000	1.202028
4150.000000	1.202087
4148.000000	1.202026
4146.000000	1.201916
4144.000000	1.201897
4142.000000	1.201911
4140.000000	1.201847
4138.000000	1.201769
4136.000000	1.201731
4134.000000	1.201766
4132.000000	1.201847
4130.000000	1.201906
4128.000000	1.201898
4126.000000	1.201875
4124.000000	1.201846
4122.000000	1.201826
4120.000000	1.201839
4118.000000	1.201821
4116.000000	1.201701
4114.000000	1.201654
4112.000000	1.201647
4110.000000	1.201594
4108.000000	1.201619
4106.000000	1.201712
4104.000000	1.201752
4102.000000	1.201754
4100.000000	1.201751
4098.000000	1.201800
4096.000000	1.201840
4094.000000	1.201792
4092.000000	1.201689
4090.000000	1.201640
4088.000000	1.201682
4086.000000	1.201729
4084.000000	1.201641
4082.000000	1.201497
4080.000000	1.201484
4078.000000	1.201586
4076.000000	1.201603
4074.000000	1.201548
4072.000000	1.201543
4070.000000	1.201549
4068.000000	1.201511
4066.000000	1.201474
4064.000000	1.201465
4062.000000	1.201450
4060.000000	1.201373
4058.000000	1.201304
4056.000000	1.201269
4054.000000	1.201239
4052.000000	1.201252
4050.000000	1.201287
4048.000000	1.201231
4046.000000	1.201123
4044.000000	1.201107
4042.000000	1.201178
4040.000000	1.201226
4038.000000	1.201197
4036.000000	1.201125
4034.000000	1.201056
4032.000000	1.201050
4030.000000	1.201097
4028.000000	1.201075
4026.000000	1.201059
4024.000000	1.201059
4022.000000	1.200963
4020.000000	1.200915
4018.000000	1.201018
4016.000000	1.201043
4014.000000	1.200896
4012.000000	1.200768
4010.000000	1.200756
4008.000000	1.200785
4006.000000	1.200795
4004.000000	1.200764
4002.000000	1.200769
4000.000000	1.200803
3998.000000	1.200809
3996.000000	1.200823
3994.000000	1.200814
3992.000000	1.200742
3990.000000	1.200748
3988.000000	1.200805
3986.000000	1.200771
3984.000000	1.200653
3982.000000	1.200564
3980.000000	1.200548
3978.000000	1.200564
3976.000000	1.200591
3974.000000	1.200647
3972.000000	1.200669
3970.000000	1.200611
3968.000000	1.200530
3966.000000	1.200478
3964.000000	1.200354
3962.000000	1.200272
3960.000000	1.200312
3958.000000	1.200314
3956.000000	1.200268
3954.000000	1.200127
3952.000000	1.199822
3950.000000	1.199690
3948.000000	1.199910
3946.000000	1.199958
3944.000000	1.199730
3942.000000	1.199903
3940.000000	1.200171
3938.000000	1.200059
3936.000000	1.199614
3934.000000	1.199030
3932.000000	1.199103
3930.000000	1.199765
3928.000000	1.199807
3926.000000	1.199407
3924.000000	1.199405
3922.000000	1.199261
3920.000000	1.198642
3918.000000	1.198640
3916.000000	1.199588
3914.000000	1.200215
3912.000000	1.199989
3910.000000	1.199462
3908.000000	1.198211
3906.000000	1.196366
3904.000000	1.195779
3902.000000	1.196742
3900.000000	1.198193
3898.000000	1.199673
3896.000000	1.199691
3894.000000	1.197852
3892.000000	1.197197
3890.000000	1.198233
3888.000000	1.197442
3886.000000	1.196743
3884.000000	1.198200
3882.000000	1.198390
3880.000000	1.198388
3878.000000	1.199052
3876.000000	1.198157
3874.000000	1.196708
3872.000000	1.195196
3870.000000	1.195587
3868.000000	1.197598
3866.000000	1.197419
3864.000000	1.197262
3862.000000	1.198581
3860.000000	1.198698
3858.000000	1.195015
3856.000000	1.188129
3854.000000	1.187628
3852.000000	1.196077
3850.000000	1.201409
3848.000000	1.200168
3846.000000	1.197863
3844.000000	1.196625
3842.000000	1.195192
3840.000000	1.192656
3838.000000	1.193027
3836.000000	1.196743
3834.000000	1.198175
3832.000000	1.197821
3830.000000	1.198154
3828.000000	1.198054
3826.000000	1.197283
3824.000000	1.195077
3822.000000	1.193733
3820.000000	1.195073
3818.000000	1.194567
3816.000000	1.195061
3814.000000	1.198910
3812.000000	1.199457
3810.000000	1.196271
3808.000000	1.194366
3806.000000	1.195395
3804.000000	1.194405
3802.000000	1.193162
3800.000000	1.196451
3798.000000	1.198372
3796.000000	1.198026
3794.000000	1.198572
3792.000000	1.198597
3790.000000	1.198176
3788.000000	1.197840
3786.000000	1.197601
3784.000000	1.197597
3782.000000	1.197116
3780.000000	1.196848
3778.000000	1.197839
3776.000000	1.198447
3774.000000	1.197577
3772.000000	1.196061
3770.000000	1.195838
3768.000000	1.196722
3766.000000	1.197158
3764.000000	1.197257
3762.000000	1.196448
3760.000000	1.195766
3758.000000	1.196313
3756.000000	1.194928
3754.000000	1.190428
3752.000000	1.188199
3750.000000	1.191172
3748.000000	1.192300
3746.000000	1.188995
3744.000000	1.191647
3742.000000	1.197613
3740.000000	1.196061
3738.000000	1.191926
3736.000000	1.191555
3734.000000	1.193267
3732.000000	1.195226
3730.000000	1.196552
3728.000000	1.195715
3726.000000	1.195019
3724.000000	1.195417
3722.000000	1.195671
3720.000000	1.196035
3718.000000	1.196162
3716.000000	1.194810
3714.000000	1.192132
3712.000000	1.191914
3710.000000	1.194740
3708.000000	1.196639
3706.000000	1.196354
3704.000000	1.195050
3702.000000	1.194788
3700.000000	1.195833
3698.000000	1.196142
3696.000000	1.195534
3694.000000	1.194105
3692.000000	1.191344
3690.000000	1.189599
3688.000000	1.192549
3686.000000	1.196449
3684.000000	1.196284
3682.000000	1.194573
3680.000000	1.192489
3678.000000	1.188915
3676.000000	1.188300
3674.000000	1.191173
3672.000000	1.190704
3670.000000	1.191075
3668.000000	1.194677
3666.000000	1.195602
3664.000000	1.194678
3662.000000	1.194170
3660.000000	1.193043
3658.000000	1.191304
3656.000000	1.191670
3654.000000	1.191934
3652.000000	1.188549
3650.000000	1.186971
3648.000000	1.190539
3646.000000	1.193880
3644.000000	1.194043
3642.000000	1.193254
3640.000000	1.192910
3638.000000	1.192594
3636.000000	1.192092
3634.000000	1.191266
3632.000000	1.188588
3630.000000	1.186465
3628.000000	1.189787
3626.000000	1.193343
3624.000000	1.192360
3622.000000	1.189832
3620.000000	1.188920
3618.000000	1.190318
3616.000000	1.190900
3614.000000	1.189930
3612.000000	1.189301
3610.000000	1.189215
3608.000000	1.190348
3606.000000	1.191661
3604.000000	1.191428
3602.000000	1.190729
3600.000000	1.190570
3598.000000	1.190407
3596.000000	1.190103
3594.000000	1.190334
3592.000000	1.190118
3590.000000	1.188748
3588.000000	1.188570
3586.000000	1.190219
3584.000000	1.191099
3582.000000	1.190766
3580.000000	1.190475
3578.000000	1.190425
3576.000000	1.190400
3574.000000	1.190442
3572.000000	1.190059
3570.000000	1.188791
3568.000000	1.188245
3566.000000	1.189590
3564.000000	1.190684
3562.000000	1.190574
3560.000000	1.190496
3558.000000	1.190642
3556.000000	1.190518
3554.000000	1.190289
3552.000000	1.190400
3550.000000	1.190469
3548.000000	1.190117
3546.000000	1.190175
3544.000000	1.190717
3542.000000	1.191019
3540.000000	1.190997
3538.000000	1.190894
3536.000000	1.191005
3534.000000	1.191217
3532.000000	1.191194
3530.000000	1.191077
3528.000000	1.191141
3526.000000	1.191328
3524.000000	1.191523
3522.000000	1.191874
3520.000000	1.192160
3518.000000	1.192292
3516.000000	1.192421
3514.000000	1.192517
3512.000000	1.192523
3510.000000	1.192659
3508.000000	1.192969
3506.000000	1.193010
3504.000000	1.192976
3502.000000	1.193357
3500.000000	1.193767
3498.000000	1.193900
3496.000000	1.194083
3494.000000	1.194374
3492.000000	1.194570
3490.000000	1.194730
3488.000000	1.194986
3486.000000	1.195242
3484.000000	1.195374
3482.000000	1.195613
3480.000000	1.196048
3478.000000	1.196451
3476.000000	1.196752
3474.000000	1.197059
3472.000000	1.197354
3470.000000	1.197605
3468.000000	1.197930
3466.000000	1.198340
3464.000000	1.198727
3462.000000	1.199128
3460.000000	1.199548
3458.000000	1.199882
3456.000000	1.200223
3454.000000	1.200642
3452.000000	1.200976
3450.000000	1.201183
3448.000000	1.201477
3446.000000	1.202033
3444.000000	1.202541
3442.000000	1.202978
3440.000000	1.203484
3438.000000	1.203891
3436.000000	1.204238
3434.000000	1.204685
3432.000000	1.205164
3430.000000	1.205550
3428.000000	1.205918
3426.000000	1.206287
3424.000000	1.206511
3422.000000	1.206748
3420.000000	1.207192
3418.000000	1.207628
3416.000000	1.207841
3414.000000	1.207957
3412.000000	1.208083
3410.000000	1.208290
3408.000000	1.208562
3406.000000	1.208807
3404.000000	1.209016
3402.000000	1.209180
3400.000000	1.209342
3398.000000	1.209589
3396.000000	1.209807
3394.000000	1.209894
3392.000000	1.210002
3390.000000	1.210257
3388.000000	1.210478
3386.000000	1.210576
3384.000000	1.210670
3382.000000	1.210795
3380.000000	1.210894
3378.000000	1.211039
3376.000000	1.211212
3374.000000	1.211321
3372.000000	1.211324
3370.000000	1.211251
3368.000000	1.211322
3366.000000	1.211545
3364.000000	1.211743
3362.000000	1.211890
3360.000000	1.211979
3358.000000	1.212077
3356.000000	1.212153
3354.000000	1.212202
3352.000000	1.212279
3350.000000	1.212318
3348.000000	1.212357
3346.000000	1.212421
3344.000000	1.212459
3342.000000	1.212526
3340.000000	1.212539
3338.000000	1.212486
3336.000000	1.212557
3334.000000	1.212755
3332.000000	1.212885
3330.000000	1.212948
3328.000000	1.212999
3326.000000	1.213033
3324.000000	1.213102
3322.000000	1.213230
3320.000000	1.213361
3318.000000	1.213513
3316.000000	1.213571
3314.000000	1.213554
3312.000000	1.213549
3310.000000	1.213510
3308.000000	1.213489
3306.000000	1.213540
3304.000000	1.213633
3302.000000	1.213730
3300.000000	1.213817
3298.000000	1.213907
3296.000000	1.213941
3294.000000	1.213956
3292.000000	1.214020
3290.000000	1.214102
3288.000000	1.214175
3286.000000	1.214230
3284.000000	1.214294
3282.000000	1.214360
3280.000000	1.214390
3278.000000	1.214412
3276.000000	1.214426
3274.000000	1.214503
3272.000000	1.214571
3270.000000	1.214652
3268.000000	1.214735
3266.000000	1.214736
3264.000000	1.214739
3262.000000	1.214833
3260.000000	1.214996
3258.000000	1.215103
3256.000000	1.215116
3254.000000	1.215154
3252.000000	1.215220
3250.000000	1.215278
3248.000000	1.215311
3246.000000	1.215386
3244.000000	1.215540
3242.000000	1.215611
3240.000000	1.215661
3238.000000	1.215752
3236.000000	1.215815
3234.000000	1.215804
3232.000000	1.215788
3230.000000	1.215881
3228.000000	1.216012
3226.000000	1.216094
3224.000000	1.216135
3222.000000	1.216215
3220.000000	1.216299
3218.000000	1.216350
3216.000000	1.216376
3214.000000	1.216345
3212.000000	1.216318
3210.000000	1.216382
3208.000000	1.216484
3206.000000	1.216590
3204.000000	1.216678
3202.000000	1.216621
3200.000000	1.216555
3198.000000	1.216687
3196.000000	1.216858
3194.000000	1.216860
3192.000000	1.216839
3190.000000	1.216899
3188.000000	1.216936
3186.000000	1.216961
3184.000000	1.217017
3182.000000	1.217036
3180.000000	1.217042
3178.000000	1.217139
3176.000000	1.217254
3174.000000	1.217286
3172.000000	1.217310
3170.000000	1.217393
3168.000000	1.217455
3166.000000	1.217531
3164.000000	1.217575
3162.000000	1.217544
3160.000000	1.217615
3158.000000	1.217710
3156.000000	1.217711
3154.000000	1.217711
3152.000000	1.217759
3150.000000	1.217923
3148.000000	1.218112
3146.000000	1.218172
3144.000000	1.218182
3142.000000	1.218240
3140.000000	1.218309
3138.000000	1.218353
3136.000000	1.218359
3134.000000	1.218413
3132.000000	1.218530
3130.000000	1.218609
3128.000000	1.218649
3126.000000	1.218703
3124.000000	1.218701
3122.000000	1.218574
3120.000000	1.218460
3118.000000	1.218464
3116.000000	1.218568
3114.000000	1.218754
3112.000000	1.218863
3110.000000	1.218852
3108.000000	1.218847
3106.000000	1.218872
3104.000000	1.218836
3102.000000	1.218728
3100.000000	1.218694
3098.000000	1.218766
3096.000000	1.218853
3094.000000	1.218844
3092.000000	1.218760
3090.000000	1.218693
3088.000000	1.218653
3086.000000	1.218630
3084.000000	1.218596
3082.000000	1.218501
3080.000000	1.218331
3078.000000	1.218268
3076.000000	1.218368
3074.000000	1.218396
3072.000000	1.218321
3070.000000	1.218224
3068.000000	1.218119
3066.000000	1.218069
3064.000000	1.218116
3062.000000	1.218152
3060.000000	1.218103
3058.000000	1.218020
3056.000000	1.218011
3054.000000	1.218076
3052.000000	1.218091
3050.000000	1.218059
3048.000000	1.217979
3046.000000	1.217876
3044.000000	1.217825
3042.000000	1.217842
3040.000000	1.217860
3038.000000	1.217867
3036.000000	1.217866
3034.000000	1.217768
3032.000000	1.217592
3030.000000	1.217501
3028.000000	1.217452
3026.000000	1.217348
3024.000000	1.217282
3022.000000	1.217322
3020.000000	1.217490
3018.000000	1.217748
3016.000000	1.218028
3014.000000	1.218185
3012.000000	1.218188
3010.000000	1.218138
3008.000000	1.218019
3006.000000	1.217874
3004.000000	1.217750
3002.000000	1.217624
3000.000000	1.217503
2998.000000	1.217392
2996.000000	1.217365
2994.000000	1.217384
2992.000000	1.217391
2990.000000	1.217320
2988.000000	1.217236
2986.000000	1.217229
2984.000000	1.217204
2982.000000	1.217111
2980.000000	1.217063
2978.000000	1.217071
2976.000000	1.217057
2974.000000	1.217040
2972.000000	1.217010
2970.000000	1.216965
2968.000000	1.217175
2966.000000	1.217752
2964.000000	1.218450
2962.000000	1.219069
2960.000000	1.219482
2958.000000	1.219563
2956.000000	1.219197
2954.000000	1.218600
2952.000000	1.218135
2950.000000	1.217806
2948.000000	1.217326
2946.000000	1.216723
2944.000000	1.216206
2942.000000	1.215853
2940.000000	1.215668
2938.000000	1.215614
2936.000000	1.215709
2934.000000	1.215857
2932.000000	1.215935
2930.000000	1.215950
2928.000000	1.216077
2926.000000	1.216617
2924.000000	1.217561
2922.000000	1.218489
2920.000000	1.219082
2918.000000	1.219324
2916.000000	1.219285
2914.000000	1.218998
2912.000000	1.218555
2910.000000	1.218116
2908.000000	1.217793
2906.000000	1.217616
2904.000000	1.217494
2902.000000	1.217399
2900.000000	1.217284
2898.000000	1.217155
2896.000000	1.217079
2894.000000	1.217038
2892.000000	1.216964
2890.000000	1.216868
2888.000000	1.216735
2886.000000	1.216581
2884.000000	1.216465
2882.000000	1.216345
2880.000000	1.216171
2878.000000	1.215934
2876.000000	1.215709
2874.000000	1.215506
2872.000000	1.215270
2870.000000	1.214904
2868.000000	1.214508
2866.000000	1.214323
2864.000000	1.214517
2862.000000	1.215086
2860.000000	1.215803
2858.000000	1.216378
2856.000000	1.216647
2854.000000	1.216690
2852.000000	1.216819
2850.000000	1.217136
2848.000000	1.217391
2846.000000	1.217313
2844.000000	1.217021
2842.000000	1.216763
2840.000000	1.216542
2838.000000	1.216312
2836.000000	1.216165
2834.000000	1.216085
2832.000000	1.216044
2830.000000	1.216042
2828.000000	1.216003
2826.000000	1.215884
2824.000000	1.215815
2822.000000	1.215822
2820.000000	1.215838
2818.000000	1.215787
2816.000000	1.215739
2814.000000	1.215700
2812.000000	1.215649
2810.000000	1.215615
2808.000000	1.215586
2806.000000	1.215594
2804.000000	1.215583
2802.000000	1.215480
2800.000000	1.215387
2798.000000	1.215392
2796.000000	1.215422
2794.000000	1.215445
2792.000000	1.215446
2790.000000	1.215361
2788.000000	1.215369
2786.000000	1.215466
2784.000000	1.215479
2782.000000	1.215421
2780.000000	1.215370
2778.000000	1.215345
2776.000000	1.215306
2774.000000	1.215265
2772.000000	1.215230
2770.000000	1.215212
2768.000000	1.215256
2766.000000	1.215264
2764.000000	1.215217
2762.000000	1.215212
2760.000000	1.215270
2758.000000	1.215304
2756.000000	1.215329
2754.000000	1.215350
2752.000000	1.215332
2750.000000	1.215289
2748.000000	1.215278
2746.000000	1.215285
2744.000000	1.215298
2742.000000	1.215316
2740.000000	1.215324
2738.000000	1.215384
2736.000000	1.215489
2734.000000	1.215580
2732.000000	1.215635
2730.000000	1.215612
2728.000000	1.215595
2726.000000	1.215604
2724.000000	1.215618
2722.000000	1.215669
2720.000000	1.215704
2718.000000	1.215746
2716.000000	1.215895
2714.000000	1.216017
2712.000000	1.216090
2710.000000	1.216128
2708.000000	1.216156
2706.000000	1.216222
2704.000000	1.216320
2702.000000	1.216452
2700.000000	1.216556
2698.000000	1.216609
2696.000000	1.216689
2694.000000	1.216802
2692.000000	1.216904
2690.000000	1.216947
2688.000000	1.217032
2686.000000	1.217146
2684.000000	1.217206
2682.000000	1.217235
2680.000000	1.217297
2678.000000	1.217377
2676.000000	1.217437
2674.000000	1.217482
2672.000000	1.217596
2670.000000	1.217705
2668.000000	1.217736
2666.000000	1.217783
2664.000000	1.217907
2662.000000	1.217992
2660.000000	1.218038
2658.000000	1.218165
2656.000000	1.218309
2654.000000	1.218391
2652.000000	1.218428
2650.000000	1.218476
2648.000000	1.218510
2646.000000	1.218539
2644.000000	1.218627
2642.000000	1.218713
2640.000000	1.218782
2638.000000	1.218832
2636.000000	1.218852
2634.000000	1.218838
2632.000000	1.218836
2630.000000	1.218808
2628.000000	1.218833
2626.000000	1.218903
2624.000000	1.218902
2622.000000	1.218897
2620.000000	1.218934
2618.000000	1.218968
2616.000000	1.218988
2614.000000	1.219007
2612.000000	1.219025
2610.000000	1.218996
2608.000000	1.218989
2606.000000	1.219019
2604.000000	1.219036
2602.000000	1.219041
2600.000000	1.219072
2598.000000	1.219070
2596.000000	1.219111
2594.000000	1.219229
2592.000000	1.219310
2590.000000	1.219327
2588.000000	1.219359
2586.000000	1.219384
2584.000000	1.219449
2582.000000	1.219518
2580.000000	1.219522
2578.000000	1.219473
2576.000000	1.219509
2574.000000	1.219555
2572.000000	1.219542
2570.000000	1.219552
2568.000000	1.219601
2566.000000	1.219597
2564.000000	1.219598
2562.000000	1.219641
2560.000000	1.219731
2558.000000	1.219760
2556.000000	1.219726
2554.000000	1.219669
2552.000000	1.219705
2550.000000	1.219745
2548.000000	1.219701
2546.000000	1.219692
2544.000000	1.219728
2542.000000	1.219744
2540.000000	1.219736
2538.000000	1.219693
2536.000000	1.219705
2534.000000	1.219721
2532.000000	1.219722
2530.000000	1.219762
2528.000000	1.219781
2526.000000	1.219767
2524.000000	1.219755
2522.000000	1.219765
2520.000000	1.219764
2518.000000	1.219719
2516.000000	1.219734
2514.000000	1.219771
2512.000000	1.219777
2510.000000	1.219735
2508.000000	1.219665
2506.000000	1.219605
2504.000000	1.219646
2502.000000	1.219727
2500.000000	1.219788
2498.000000	1.219806
2496.000000	1.219799
2494.000000	1.219807
2492.000000	1.219796
2490.000000	1.219714
2488.000000	1.219703
2486.000000	1.219760
2484.000000	1.219791
2482.000000	1.219808
2480.000000	1.219854
2478.000000	1.219834
2476.000000	1.219810
2474.000000	1.219826
2472.000000	1.219863
2470.000000	1.219879
2468.000000	1.219889
2466.000000	1.219887
2464.000000	1.219872
2462.000000	1.219888
2460.000000	1.219956
2458.000000	1.219966
2456.000000	1.220012
2454.000000	1.220058
2452.000000	1.220040
2450.000000	1.219984
2448.000000	1.219956
2446.000000	1.219905
2444.000000	1.219880
2442.000000	1.219925
2440.000000	1.219966
2438.000000	1.219943
2436.000000	1.219972
2434.000000	1.219978
2432.000000	1.219977
2430.000000	1.220014
2428.000000	1.220104
2426.000000	1.220172
2424.000000	1.220170
2422.000000	1.220141
2420.000000	1.220162
2418.000000	1.220195
2416.000000	1.220160
2414.000000	1.220109
2412.000000	1.220105
2410.000000	1.220112
2408.000000	1.220084
2406.000000	1.220075
2404.000000	1.220109
2402.000000	1.220074
2400.000000	1.219981
2398.000000	1.219956
2396.000000	1.220004
2394.000000	1.220020
2392.000000	1.220002
2390.000000	1.219944
2388.000000	1.219881
2386.000000	1.219866
2384.000000	1.219869
2382.000000	1.219698
2380.000000	1.219422
2378.000000	1.219210
2376.000000	1.218966
2374.000000	1.218580
2372.000000	1.218162
2370.000000	1.217770
2368.000000	1.217538
2366.000000	1.217403
2364.000000	1.217352
2362.000000	1.217446
2360.000000	1.217674
2358.000000	1.218067
2356.000000	1.218553
2354.000000	1.219078
2352.000000	1.219554
2350.000000	1.219515
2348.000000	1.218869
2346.000000	1.218243
2344.000000	1.218186
2342.000000	1.218666
2340.000000	1.219283
2338.000000	1.219435
2336.000000	1.219104
2334.000000	1.218791
2332.000000	1.218729
2330.000000	1.218805
2328.000000	1.218972
2326.000000	1.219119
2324.000000	1.219265
2322.000000	1.219386
2320.000000	1.219501
2318.000000	1.219540
2316.000000	1.219607
2314.000000	1.219747
2312.000000	1.219833
2310.000000	1.219895
2308.000000	1.219949
2306.000000	1.220001
2304.000000	1.220059
2302.000000	1.220085
2300.000000	1.220135
2298.000000	1.220094
2296.000000	1.220067
2294.000000	1.220128
2292.000000	1.220178
2290.000000	1.220146
2288.000000	1.220173
2286.000000	1.220282
2284.000000	1.220370
2282.000000	1.220340
2280.000000	1.220313
2278.000000	1.220277
2276.000000	1.220228
2274.000000	1.220238
2272.000000	1.220298
2270.000000	1.220330
2268.000000	1.220388
2266.000000	1.220382
2264.000000	1.220327
2262.000000	1.220195
2260.000000	1.220044
2258.000000	1.220089
2256.000000	1.220194
2254.000000	1.220238
2252.000000	1.220323
2250.000000	1.220280
2248.000000	1.220282
2246.000000	1.220335
2244.000000	1.220336
2242.000000	1.220248
2240.000000	1.220155
2238.000000	1.220121
2236.000000	1.220194
2234.000000	1.220216
2232.000000	1.220166
2230.000000	1.220131
2228.000000	1.220172
2226.000000	1.220201
2224.000000	1.220152
2222.000000	1.220072
2220.000000	1.220089
2218.000000	1.220133
2216.000000	1.220080
2214.000000	1.220034
2212.000000	1.220079
2210.000000	1.219973
2208.000000	1.219867
2206.000000	1.219842
2204.000000	1.219846
2202.000000	1.219840
2200.000000	1.219839
2198.000000	1.219808
2196.000000	1.219798
2194.000000	1.219780
2192.000000	1.219738
2190.000000	1.219666
2188.000000	1.219632
2186.000000	1.219569
2184.000000	1.219528
2182.000000	1.219526
2180.000000	1.219523
2178.000000	1.219508
2176.000000	1.219496
2174.000000	1.219418
2172.000000	1.219334
2170.000000	1.219320
2168.000000	1.219346
2166.000000	1.219299
2164.000000	1.219227
2162.000000	1.219163
2160.000000	1.219102
2158.000000	1.218978
2156.000000	1.218983
2154.000000	1.219036
2152.000000	1.218986
2150.000000	1.218915
2148.000000	1.218860
2146.000000	1.218828
2144.000000	1.218799
2142.000000	1.218663
2140.000000	1.218528
2138.000000	1.218517
2136.000000	1.218588
2134.000000	1.218577
2132.000000	1.218557
2130.000000	1.218433
2128.000000	1.218391
2126.000000	1.218352
2124.000000	1.218250
2122.000000	1.218188
2120.000000	1.218192
2118.000000	1.218164
2116.000000	1.218111
2114.000000	1.218056
2112.000000	1.217984
2110.000000	1.217952
2108.000000	1.217937
2106.000000	1.217867
2104.000000	1.217785
2102.000000	1.217748
2100.000000	1.217769
2098.000000	1.217789
2096.000000	1.217812
2094.000000	1.217782
2092.000000	1.217709
2090.000000	1.217603
2088.000000	1.217598
2086.000000	1.217591
2084.000000	1.217551
2082.000000	1.217486
2080.000000	1.217414
2078.000000	1.217363
2076.000000	1.217361
2074.000000	1.217315
2072.000000	1.217279
2070.000000	1.217262
2068.000000	1.217223
2066.000000	1.217146
2064.000000	1.217143
2062.000000	1.217110
2060.000000	1.217077
2058.000000	1.217035
2056.000000	1.217032
2054.000000	1.217033
2052.000000	1.217037
2050.000000	1.216976
2048.000000	1.216903
2046.000000	1.216838
2044.000000	1.216778
2042.000000	1.216693
2040.000000	1.216761
2038.000000	1.216752
2036.000000	1.216689
2034.000000	1.216633
2032.000000	1.216566
2030.000000	1.216500
2028.000000	1.216567
2026.000000	1.216527
2024.000000	1.216418
2022.000000	1.216364
2020.000000	1.216324
2018.000000	1.216267
2016.000000	1.216383
2014.000000	1.216430
2012.000000	1.216385
2010.000000	1.216325
2008.000000	1.216275
2006.000000	1.216232
2004.000000	1.216215
2002.000000	1.216198
2000.000000	1.216191
1998.000000	1.216185
1996.000000	1.216117
1994.000000	1.215822
1992.000000	1.215713
1990.000000	1.215881
1988.000000	1.215979
1986.000000	1.216024
1984.000000	1.216004
1982.000000	1.215989
1980.000000	1.216020
1978.000000	1.215977
1976.000000	1.215895
1974.000000	1.215846
1972.000000	1.215874
1970.000000	1.215779
1968.000000	1.215632
1966.000000	1.215794
1964.000000	1.215940
1962.000000	1.215834
1960.000000	1.215803
1958.000000	1.216033
1956.000000	1.216055
1954.000000	1.215932
1952.000000	1.215970
1950.000000	1.215967
1948.000000	1.215886
1946.000000	1.215666
1944.000000	1.215292
1942.000000	1.215450
1940.000000	1.215967
1938.000000	1.215974
1936.000000	1.215989
1934.000000	1.215989
1932.000000	1.215992
1930.000000	1.216012
1928.000000	1.215984
1926.000000	1.215784
1924.000000	1.215614
1922.000000	1.215712
1920.000000	1.215303
1918.000000	1.215188
1916.000000	1.216072
1914.000000	1.216176
1912.000000	1.215980
1910.000000	1.215892
1908.000000	1.216090
1906.000000	1.216200
1904.000000	1.216248
1902.000000	1.216228
1900.000000	1.216246
1898.000000	1.216110
1896.000000	1.216044
1894.000000	1.216190
1892.000000	1.216004
1890.000000	1.215695
1888.000000	1.216206
1886.000000	1.216366
1884.000000	1.216353
1882.000000	1.216314
1880.000000	1.216341
1878.000000	1.216329
1876.000000	1.216357
1874.000000	1.216218
1872.000000	1.215552
1870.000000	1.214592
1868.000000	1.215285
1866.000000	1.216193
1864.000000	1.216404
1862.000000	1.216305
1860.000000	1.216282
1858.000000	1.216264
1856.000000	1.216323
1854.000000	1.216240
1852.000000	1.216221
1850.000000	1.215938
1848.000000	1.215398
1846.000000	1.213785
1844.000000	1.214101
1842.000000	1.216210
1840.000000	1.216380
1838.000000	1.216120
1836.000000	1.216228
1834.000000	1.216084
1832.000000	1.215079
1830.000000	1.214857
1828.000000	1.215718
1826.000000	1.215383
1824.000000	1.215945
1822.000000	1.216520
1820.000000	1.216452
1818.000000	1.216377
1816.000000	1.216515
1814.000000	1.216290
1812.000000	1.215962
1810.000000	1.216176
1808.000000	1.216621
1806.000000	1.216556
1804.000000	1.216048
1802.000000	1.215381
1800.000000	1.215654
1798.000000	1.216110
1796.000000	1.215574
1794.000000	1.213668
1792.000000	1.214132
1790.000000	1.216220
1788.000000	1.216371
1786.000000	1.215710
1784.000000	1.215984
1782.000000	1.215948
1780.000000	1.216153
1778.000000	1.216419
1776.000000	1.215247
1774.000000	1.212550
1772.000000	1.213135
1770.000000	1.215210
1768.000000	1.215696
1766.000000	1.216704
1764.000000	1.215617
1762.000000	1.215066
1760.000000	1.216148
1758.000000	1.215826
1756.000000	1.216175
1754.000000	1.215474
1752.000000	1.213423
1750.000000	1.214539
1748.000000	1.215982
1746.000000	1.216423
1744.000000	1.216212
1742.000000	1.215346
1740.000000	1.215138
1738.000000	1.215743
1736.000000	1.211511
1734.000000	1.210777
1732.000000	1.216117
1730.000000	1.217488
1728.000000	1.217744
1726.000000	1.217741
1724.000000	1.217698
1722.000000	1.217100
1720.000000	1.213341
1718.000000	1.210686
1716.000000	1.214428
1714.000000	1.217242
1712.000000	1.218024
1710.000000	1.217492
1708.000000	1.216599
1706.000000	1.215855
1704.000000	1.215671
1702.000000	1.210734
1700.000000	1.210699
1698.000000	1.212607
1696.000000	1.212386
1694.000000	1.217825
1692.000000	1.218960
1690.000000	1.218021
1688.000000	1.215978
1686.000000	1.210394
1684.000000	1.212162
1682.000000	1.218115
1680.000000	1.218680
1678.000000	1.217244
1676.000000	1.215320
1674.000000	1.217133
1672.000000	1.216817
1670.000000	1.215784
1668.000000	1.218153
1666.000000	1.219003
1664.000000	1.217391
1662.000000	1.218216
1660.000000	1.219647
1658.000000	1.218891
1656.000000	1.213054
1654.000000	1.206115
1652.000000	1.212939
1650.000000	1.218519
1648.000000	1.215109
1646.000000	1.216039
1644.000000	1.219788
1642.000000	1.220327
1640.000000	1.219300
1638.000000	1.215946
1636.000000	1.214205
1634.000000	1.218757
1632.000000	1.220762
1630.000000	1.219619
1628.000000	1.219176
1626.000000	1.218788
1624.000000	1.217910
1622.000000	1.219194
1620.000000	1.218576
1618.000000	1.215013
1616.000000	1.216977
1614.000000	1.220608
1612.000000	1.220257
1610.000000	1.220200
1608.000000	1.220778
1606.000000	1.221518
1604.000000	1.221684
1602.000000	1.221829
1600.000000	1.221874
1598.000000	1.221904
1596.000000	1.221736
1594.000000	1.221781
1592.000000	1.221747
1590.000000	1.221726
1588.000000	1.221716
1586.000000	1.221765
1584.000000	1.221819
1582.000000	1.221890
1580.000000	1.220907
1578.000000	1.216851
1576.000000	1.216793
1574.000000	1.221415
1572.000000	1.220265
1570.000000	1.218922
1568.000000	1.220670
1566.000000	1.221142
1564.000000	1.220155
1562.000000	1.214849
1560.000000	1.208695
1558.000000	1.213834
1556.000000	1.218836
1554.000000	1.220065
1552.000000	1.221432
1550.000000	1.221414
1548.000000	1.221111
1546.000000	1.219238
1544.000000	1.216726
1542.000000	1.212831
1540.000000	1.212461
1538.000000	1.219037
1536.000000	1.220752
1534.000000	1.219047
1532.000000	1.220765
1530.000000	1.221003
1528.000000	1.219507
1526.000000	1.218656
1524.000000	1.216967
1522.000000	1.214801
1520.000000	1.217608
1518.000000	1.218967
1516.000000	1.219592
1514.000000	1.220381
1512.000000	1.219944
1510.000000	1.217408
1508.000000	1.212094
1506.000000	1.213879
1504.000000	1.219730
1502.000000	1.219269
1500.000000	1.215958
1498.000000	1.213455
1496.000000	1.216103
1494.000000	1.221650
1492.000000	1.222729
1490.000000	1.222406
1488.000000	1.223043
1486.000000	1.223455
1484.000000	1.223230
1482.000000	1.222425
1480.000000	1.222039
1478.000000	1.220763
1476.000000	1.218986
1474.000000	1.216987
1472.000000	1.218429
1470.000000	1.221321
1468.000000	1.220974
1466.000000	1.219350
1464.000000	1.220125
1462.000000	1.220711
1460.000000	1.217165
1458.000000	1.212687
1456.000000	1.215675
1454.000000	1.219948
1452.000000	1.220725
1450.000000	1.221722
1448.000000	1.222257
1446.000000	1.222606
1444.000000	1.222091
1442.000000	1.221746
1440.000000	1.220525
1438.000000	1.217826
1436.000000	1.218863
1434.000000	1.221313
1432.000000	1.220690
1430.000000	1.220597
1428.000000	1.221154
1426.000000	1.221010
1424.000000	1.220530
1422.000000	1.219171
1420.000000	1.217046
1418.000000	1.219183
1416.000000	1.221053
1414.000000	1.221090
1412.000000	1.220701
1410.000000	1.220513
1408.000000	1.220022
1406.000000	1.219738
1404.000000	1.220556
1402.000000	1.221164
1400.000000	1.220603
1398.000000	1.220762
1396.000000	1.220116
1394.000000	1.220484
1392.000000	1.221301
1390.000000	1.220352
1388.000000	1.219229
1386.000000	1.220086
1384.000000	1.221079
1382.000000	1.221324
1380.000000	1.220991
1378.000000	1.220685
1376.000000	1.220123
1374.000000	1.220004
1372.000000	1.220450
1370.000000	1.220436
1368.000000	1.220404
1366.000000	1.220188
1364.000000	1.219429
1362.000000	1.219545
1360.000000	1.220132
1358.000000	1.220279
1356.000000	1.220069
1354.000000	1.220004
1352.000000	1.220026
1350.000000	1.219984
1348.000000	1.219923
1346.000000	1.219963
1344.000000	1.219881
1342.000000	1.219460
1340.000000	1.219043
1338.000000	1.219337
1336.000000	1.219720
1334.000000	1.219870
1332.000000	1.219819
1330.000000	1.219627
1328.000000	1.219400
1326.000000	1.219346
1324.000000	1.219263
1322.000000	1.219093
1320.000000	1.218844
1318.000000	1.218810
1316.000000	1.218817
1314.000000	1.218750
1312.000000	1.218700
1310.000000	1.218709
1308.000000	1.218624
1306.000000	1.218571
1304.000000	1.218431
1302.000000	1.218315
1300.000000	1.218284
1298.000000	1.218285
1296.000000	1.218180
1294.000000	1.218058
1292.000000	1.217986
1290.000000	1.218041
1288.000000	1.217957
1286.000000	1.217961
1284.000000	1.218012
1282.000000	1.218112
1280.000000	1.218068
1278.000000	1.218028
1276.000000	1.218096
1274.000000	1.218111
1272.000000	1.217960
1270.000000	1.218226
1268.000000	1.218828
1266.000000	1.219990
1264.000000	1.222062
1262.000000	1.224699
1260.000000	1.226731
1258.000000	1.227459
1256.000000	1.226534
1254.000000	1.224708
1252.000000	1.222940
1250.000000	1.221907
1248.000000	1.221451
1246.000000	1.221289
1244.000000	1.221218
1242.000000	1.221423
1240.000000	1.221652
1238.000000	1.221899
1236.000000	1.222192
1234.000000	1.222553
1232.000000	1.222886
1230.000000	1.223223
1228.000000	1.223399
1226.000000	1.223602
1224.000000	1.223760
1222.000000	1.224015
1220.000000	1.224261
1218.000000	1.224484
1216.000000	1.224752
1214.000000	1.224949
1212.000000	1.225205
1210.000000	1.225607
1208.000000	1.225723
1206.000000	1.225987
1204.000000	1.226428
1202.000000	1.226727
1200.000000	1.226937
1198.000000	1.227186
1196.000000	1.227472
1194.000000	1.227823
1192.000000	1.228193
1190.000000	1.228601
1188.000000	1.228807
1186.000000	1.229038
1184.000000	1.229026
1182.000000	1.229167
1180.000000	1.230262
1178.000000	1.231259
1176.000000	1.231419
1174.000000	1.231492
1172.000000	1.231780
1170.000000	1.232169
1168.000000	1.232471
1166.000000	1.232891
1164.000000	1.233368
1162.000000	1.233819
1160.000000	1.234064
1158.000000	1.234414
1156.000000	1.234808
1154.000000	1.235163
1152.000000	1.235521
1150.000000	1.235858
1148.000000	1.235958
1146.000000	1.236199
1144.000000	1.236562
1142.000000	1.237192
1140.000000	1.237649
1138.000000	1.237794
1136.000000	1.237909
1134.000000	1.238269
1132.000000	1.238324
1130.000000	1.238354
1128.000000	1.238498
1126.000000	1.238883
1124.000000	1.239164
1122.000000	1.239314
1120.000000	1.239586
1118.000000	1.240091
1116.000000	1.240553
1114.000000	1.240945
1112.000000	1.241297
1110.000000	1.241712
1108.000000	1.242187
1106.000000	1.242746
1104.000000	1.243064
1102.000000	1.243506
1100.000000	1.244257
1098.000000	1.244826
1096.000000	1.245014
1094.000000	1.245291
1092.000000	1.245221
1090.000000	1.245263
1088.000000	1.245578
1086.000000	1.245521
1084.000000	1.245098
1082.000000	1.244814
1080.000000	1.244725
1078.000000	1.244958
1076.000000	1.244777
1074.000000	1.244191
1072.000000	1.243580
1070.000000	1.243512
1068.000000	1.243228
1066.000000	1.242722
1064.000000	1.242016
1062.000000	1.241644
1060.000000	1.241122
1058.000000	1.240222
1056.000000	1.239434
1054.000000	1.238611
1052.000000	1.238002
1050.000000	1.239001
1048.000000	1.239624
1046.000000	1.238737
1044.000000	1.237721
1042.000000	1.237263
1040.000000	1.236812
1038.000000	1.235799
1036.000000	1.234822
1034.000000	1.234710
1032.000000	1.234490
1030.000000	1.233992
1028.000000	1.233173
1026.000000	1.233088
1024.000000	1.232959
1022.000000	1.232377
1020.000000	1.232034
1018.000000	1.232140
1016.000000	1.231365
1014.000000	1.229631
1012.000000	1.227156
1010.000000	1.225623
1008.000000	1.225159
1006.000000	1.223854
1004.000000	1.221345
1002.000000	1.219284
1000.000000	1.218434
