PE IR       SUBTECH     SPECTRUM    ASCII       PEDS        4.00        
   -1
TE108B2_017_105K.ASC
20/02/27
14:18:21.00
20/02/27
14:18:21.00
Administrator
Sample 017 By Administrator Date Thursday, February 27 2020
1500.000000
#HDR
-1
-1
#GR
cm-1
A
1.0
0.0
4000.000000
-1.000000
2501
8
0.845535
0.805877
#DATA
4000.000000	0.812452
3999.000000	0.812452
3998.000000	0.812460
3997.000000	0.812468
3996.000000	0.812473
3995.000000	0.812480
3994.000000	0.812489
3993.000000	0.812495
3992.000000	0.812492
3991.000000	0.812476
3990.000000	0.812452
3989.000000	0.812430
3988.000000	0.812417
3987.000000	0.812413
3986.000000	0.812412
3985.000000	0.812406
3984.000000	0.812395
3983.000000	0.812382
3982.000000	0.812377
3981.000000	0.812382
3980.000000	0.812395
3979.000000	0.812406
3978.000000	0.812400
3977.000000	0.812371
3976.000000	0.812329
3975.000000	0.812289
3974.000000	0.812261
3973.000000	0.812246
3972.000000	0.812235
3971.000000	0.812222
3970.000000	0.812204
3969.000000	0.812188
3968.000000	0.812176
3967.000000	0.812166
3966.000000	0.812148
3965.000000	0.812114
3964.000000	0.812067
3963.000000	0.812023
3962.000000	0.811999
3961.000000	0.812000
3960.000000	0.812010
3959.000000	0.812004
3958.000000	0.811968
3957.000000	0.811911
3956.000000	0.811852
3955.000000	0.811809
3954.000000	0.811787
3953.000000	0.811776
3952.000000	0.811764
3951.000000	0.811738
3950.000000	0.811697
3949.000000	0.811649
3948.000000	0.811609
3947.000000	0.811585
3946.000000	0.811571
3945.000000	0.811555
3944.000000	0.811528
3943.000000	0.811489
3942.000000	0.811446
3941.000000	0.811408
3940.000000	0.811376
3939.000000	0.811348
3938.000000	0.811315
3937.000000	0.811272
3936.000000	0.811222
3935.000000	0.811172
3934.000000	0.811126
3933.000000	0.811081
3932.000000	0.811031
3931.000000	0.810981
3930.000000	0.810937
3929.000000	0.810906
3928.000000	0.810877
3927.000000	0.810838
3926.000000	0.810784
3925.000000	0.810725
3924.000000	0.810677
3923.000000	0.810649
3922.000000	0.810632
3921.000000	0.810615
3920.000000	0.810587
3919.000000	0.810542
3918.000000	0.810480
3917.000000	0.810410
3916.000000	0.810347
3915.000000	0.810308
3914.000000	0.810294
3913.000000	0.810293
3912.000000	0.810287
3911.000000	0.810264
3910.000000	0.810226
3909.000000	0.810175
3908.000000	0.810117
3907.000000	0.810058
3906.000000	0.809998
3905.000000	0.809931
3904.000000	0.809851
3903.000000	0.809758
3902.000000	0.809667
3901.000000	0.809601
3900.000000	0.809575
3899.000000	0.809583
3898.000000	0.809609
3897.000000	0.809635
3896.000000	0.809650
3895.000000	0.809645
3894.000000	0.809611
3893.000000	0.809551
3892.000000	0.809480
3891.000000	0.809426
3890.000000	0.809405
3889.000000	0.809405
3888.000000	0.809400
3887.000000	0.809364
3886.000000	0.809295
3885.000000	0.809213
3884.000000	0.809148
3883.000000	0.809116
3882.000000	0.809110
3881.000000	0.809105
3880.000000	0.809083
3879.000000	0.809041
3878.000000	0.808996
3877.000000	0.808963
3876.000000	0.808947
3875.000000	0.808934
3874.000000	0.808907
3873.000000	0.808857
3872.000000	0.808784
3871.000000	0.808698
3870.000000	0.808620
3869.000000	0.808566
3868.000000	0.808546
3867.000000	0.808548
3866.000000	0.808550
3865.000000	0.808531
3864.000000	0.808488
3863.000000	0.808437
3862.000000	0.808395
3861.000000	0.808372
3860.000000	0.808360
3859.000000	0.808344
3858.000000	0.808303
3857.000000	0.808219
3856.000000	0.808084
3855.000000	0.807910
3854.000000	0.807733
3853.000000	0.807603
3852.000000	0.807556
3851.000000	0.807598
3850.000000	0.807700
3849.000000	0.807816
3848.000000	0.807897
3847.000000	0.807920
3846.000000	0.807892
3845.000000	0.807844
3844.000000	0.807804
3843.000000	0.807780
3842.000000	0.807758
3841.000000	0.807715
3840.000000	0.807641
3839.000000	0.807545
3838.000000	0.807453
3837.000000	0.807393
3836.000000	0.807382
3835.000000	0.807409
3834.000000	0.807442
3833.000000	0.807452
3832.000000	0.807434
3831.000000	0.807407
3830.000000	0.807391
3829.000000	0.807391
3828.000000	0.807397
3827.000000	0.807397
3826.000000	0.807385
3825.000000	0.807359
3824.000000	0.807312
3823.000000	0.807239
3822.000000	0.807143
3821.000000	0.807045
3820.000000	0.806966
3819.000000	0.806922
3818.000000	0.806905
3817.000000	0.806896
3816.000000	0.806885
3815.000000	0.806876
3814.000000	0.806884
3813.000000	0.806918
3812.000000	0.806967
3811.000000	0.807010
3810.000000	0.807025
3809.000000	0.807001
3808.000000	0.806940
3807.000000	0.806857
3806.000000	0.806779
3805.000000	0.806722
3804.000000	0.806688
3803.000000	0.806660
3802.000000	0.806628
3801.000000	0.806599
3800.000000	0.806597
3799.000000	0.806638
3798.000000	0.806708
3797.000000	0.806776
3796.000000	0.806815
3795.000000	0.806820
3794.000000	0.806806
3793.000000	0.806795
3792.000000	0.806799
3791.000000	0.806813
3790.000000	0.806826
3789.000000	0.806828
3788.000000	0.806813
3787.000000	0.806789
3786.000000	0.806764
3785.000000	0.806747
3784.000000	0.806736
3783.000000	0.806721
3782.000000	0.806694
3781.000000	0.806660
3780.000000	0.806632
3779.000000	0.806621
3778.000000	0.806624
3777.000000	0.806630
3776.000000	0.806630
3775.000000	0.806624
3774.000000	0.806621
3773.000000	0.806622
3772.000000	0.806624
3771.000000	0.806609
3770.000000	0.806566
3769.000000	0.806502
3768.000000	0.806437
3767.000000	0.806395
3766.000000	0.806388
3765.000000	0.806406
3764.000000	0.806432
3763.000000	0.806447
3762.000000	0.806442
3761.000000	0.806416
3760.000000	0.806384
3759.000000	0.806358
3758.000000	0.806346
3757.000000	0.806340
3756.000000	0.806326
3755.000000	0.806295
3754.000000	0.806243
3753.000000	0.806175
3752.000000	0.806094
3751.000000	0.806014
3750.000000	0.805949
3749.000000	0.805918
3748.000000	0.805920
3747.000000	0.805938
3746.000000	0.805942
3745.000000	0.805916
3744.000000	0.805880
3743.000000	0.805877
3742.000000	0.805938
3741.000000	0.806054
3740.000000	0.806173
3739.000000	0.806236
3738.000000	0.806217
3737.000000	0.806136
3736.000000	0.806041
3735.000000	0.805978
3734.000000	0.805967
3733.000000	0.806002
3732.000000	0.806061
3731.000000	0.806126
3730.000000	0.806189
3729.000000	0.806245
3728.000000	0.806290
3727.000000	0.806316
3726.000000	0.806323
3725.000000	0.806319
3724.000000	0.806315
3723.000000	0.806323
3722.000000	0.806354
3721.000000	0.806410
3720.000000	0.806483
3719.000000	0.806548
3718.000000	0.806582
3717.000000	0.806584
3716.000000	0.806577
3715.000000	0.806581
3714.000000	0.806600
3713.000000	0.806621
3712.000000	0.806633
3711.000000	0.806646
3710.000000	0.806681
3709.000000	0.806756
3708.000000	0.806866
3707.000000	0.806994
3706.000000	0.807122
3705.000000	0.807240
3704.000000	0.807346
3703.000000	0.807445
3702.000000	0.807545
3701.000000	0.807654
3700.000000	0.807777
3699.000000	0.807909
3698.000000	0.808036
3697.000000	0.808154
3696.000000	0.808267
3695.000000	0.808376
3694.000000	0.808472
3693.000000	0.808533
3692.000000	0.808549
3691.000000	0.808532
3690.000000	0.808503
3689.000000	0.808488
3688.000000	0.808500
3687.000000	0.808549
3686.000000	0.808638
3685.000000	0.808763
3684.000000	0.808914
3683.000000	0.809077
3682.000000	0.809239
3681.000000	0.809383
3680.000000	0.809494
3679.000000	0.809568
3678.000000	0.809611
3677.000000	0.809635
3676.000000	0.809660
3675.000000	0.809711
3674.000000	0.809809
3673.000000	0.809954
3672.000000	0.810124
3671.000000	0.810290
3670.000000	0.810440
3669.000000	0.810588
3668.000000	0.810754
3667.000000	0.810942
3666.000000	0.811136
3665.000000	0.811316
3664.000000	0.811475
3663.000000	0.811623
3662.000000	0.811771
3661.000000	0.811914
3660.000000	0.812039
3659.000000	0.812138
3658.000000	0.812222
3657.000000	0.812312
3656.000000	0.812421
3655.000000	0.812542
3654.000000	0.812662
3653.000000	0.812771
3652.000000	0.812867
3651.000000	0.812951
3650.000000	0.813028
3649.000000	0.813107
3648.000000	0.813201
3647.000000	0.813326
3646.000000	0.813488
3645.000000	0.813683
3644.000000	0.813892
3643.000000	0.814084
3642.000000	0.814230
3641.000000	0.814327
3640.000000	0.814393
3639.000000	0.814458
3638.000000	0.814539
3637.000000	0.814635
3636.000000	0.814733
3635.000000	0.814820
3634.000000	0.814889
3633.000000	0.814937
3632.000000	0.814973
3631.000000	0.815011
3630.000000	0.815062
3629.000000	0.815127
3628.000000	0.815210
3627.000000	0.815318
3626.000000	0.815455
3625.000000	0.815614
3624.000000	0.815772
3623.000000	0.815907
3622.000000	0.816007
3621.000000	0.816073
3620.000000	0.816115
3619.000000	0.816156
3618.000000	0.816219
3617.000000	0.816311
3616.000000	0.816421
3615.000000	0.816528
3614.000000	0.816621
3613.000000	0.816704
3612.000000	0.816785
3611.000000	0.816868
3610.000000	0.816948
3609.000000	0.817022
3608.000000	0.817090
3607.000000	0.817161
3606.000000	0.817246
3605.000000	0.817351
3604.000000	0.817469
3603.000000	0.817585
3602.000000	0.817688
3601.000000	0.817773
3600.000000	0.817844
3599.000000	0.817908
3598.000000	0.817971
3597.000000	0.818039
3596.000000	0.818107
3595.000000	0.818167
3594.000000	0.818218
3593.000000	0.818271
3592.000000	0.818341
3591.000000	0.818427
3590.000000	0.818512
3589.000000	0.818572
3588.000000	0.818601
3587.000000	0.818617
3586.000000	0.818656
3585.000000	0.818738
3584.000000	0.818857
3583.000000	0.818978
3582.000000	0.819070
3581.000000	0.819123
3580.000000	0.819156
3579.000000	0.819195
3578.000000	0.819256
3577.000000	0.819334
3576.000000	0.819414
3575.000000	0.819479
3574.000000	0.819528
3573.000000	0.819569
3572.000000	0.819610
3571.000000	0.819649
3570.000000	0.819679
3569.000000	0.819702
3568.000000	0.819733
3567.000000	0.819793
3566.000000	0.819888
3565.000000	0.820001
3564.000000	0.820106
3563.000000	0.820180
3562.000000	0.820224
3561.000000	0.820254
3560.000000	0.820291
3559.000000	0.820346
3558.000000	0.820412
3557.000000	0.820480
3556.000000	0.820542
3555.000000	0.820600
3554.000000	0.820659
3553.000000	0.820722
3552.000000	0.820789
3551.000000	0.820852
3550.000000	0.820907
3549.000000	0.820955
3548.000000	0.821002
3547.000000	0.821057
3546.000000	0.821122
3545.000000	0.821196
3544.000000	0.821273
3543.000000	0.821350
3542.000000	0.821427
3541.000000	0.821509
3540.000000	0.821604
3539.000000	0.821707
3538.000000	0.821804
3537.000000	0.821878
3536.000000	0.821924
3535.000000	0.821960
3534.000000	0.822010
3533.000000	0.822088
3532.000000	0.822186
3531.000000	0.822287
3530.000000	0.822376
3529.000000	0.822446
3528.000000	0.822503
3527.000000	0.822563
3526.000000	0.822640
3525.000000	0.822740
3524.000000	0.822857
3523.000000	0.822980
3522.000000	0.823103
3521.000000	0.823229
3520.000000	0.823358
3519.000000	0.823485
3518.000000	0.823597
3517.000000	0.823694
3516.000000	0.823788
3515.000000	0.823895
3514.000000	0.824023
3513.000000	0.824162
3512.000000	0.824292
3511.000000	0.824405
3510.000000	0.824511
3509.000000	0.824631
3508.000000	0.824777
3507.000000	0.824939
3506.000000	0.825091
3505.000000	0.825211
3504.000000	0.825301
3503.000000	0.825385
3502.000000	0.825489
3501.000000	0.825621
3500.000000	0.825768
3499.000000	0.825910
3498.000000	0.826045
3497.000000	0.826183
3496.000000	0.826338
3495.000000	0.826504
3494.000000	0.826666
3493.000000	0.826811
3492.000000	0.826941
3491.000000	0.827063
3490.000000	0.827186
3489.000000	0.827312
3488.000000	0.827451
3487.000000	0.827611
3486.000000	0.827789
3485.000000	0.827964
3484.000000	0.828112
3483.000000	0.828226
3482.000000	0.828326
3481.000000	0.828438
3480.000000	0.828576
3479.000000	0.828738
3478.000000	0.828910
3477.000000	0.829078
3476.000000	0.829236
3475.000000	0.829389
3474.000000	0.829546
3473.000000	0.829706
3472.000000	0.829861
3471.000000	0.830004
3470.000000	0.830138
3469.000000	0.830273
3468.000000	0.830412
3467.000000	0.830555
3466.000000	0.830701
3465.000000	0.830851
3464.000000	0.831010
3463.000000	0.831175
3462.000000	0.831341
3461.000000	0.831500
3460.000000	0.831648
3459.000000	0.831783
3458.000000	0.831906
3457.000000	0.832026
3456.000000	0.832153
3455.000000	0.832295
3454.000000	0.832450
3453.000000	0.832604
3452.000000	0.832746
3451.000000	0.832878
3450.000000	0.833008
3449.000000	0.833145
3448.000000	0.833283
3447.000000	0.833413
3446.000000	0.833530
3445.000000	0.833636
3444.000000	0.833738
3443.000000	0.833848
3442.000000	0.833971
3441.000000	0.834100
3440.000000	0.834222
3439.000000	0.834323
3438.000000	0.834408
3437.000000	0.834493
3436.000000	0.834596
3435.000000	0.834722
3434.000000	0.834862
3433.000000	0.834995
3432.000000	0.835106
3431.000000	0.835195
3430.000000	0.835276
3429.000000	0.835371
3428.000000	0.835485
3427.000000	0.835609
3426.000000	0.835729
3425.000000	0.835842
3424.000000	0.835949
3423.000000	0.836057
3422.000000	0.836162
3421.000000	0.836261
3420.000000	0.836353
3419.000000	0.836442
3418.000000	0.836534
3417.000000	0.836631
3416.000000	0.836726
3415.000000	0.836810
3414.000000	0.836875
3413.000000	0.836923
3412.000000	0.836964
3411.000000	0.837009
3410.000000	0.837069
3409.000000	0.837144
3408.000000	0.837228
3407.000000	0.837308
3406.000000	0.837374
3405.000000	0.837430
3404.000000	0.837489
3403.000000	0.837557
3402.000000	0.837625
3401.000000	0.837673
3400.000000	0.837697
3399.000000	0.837715
3398.000000	0.837754
3397.000000	0.837826
3396.000000	0.837914
3395.000000	0.837994
3394.000000	0.838049
3393.000000	0.838083
3392.000000	0.838114
3391.000000	0.838157
3390.000000	0.838216
3389.000000	0.838279
3388.000000	0.838332
3387.000000	0.838365
3386.000000	0.838387
3385.000000	0.838412
3384.000000	0.838450
3383.000000	0.838497
3382.000000	0.838539
3381.000000	0.838565
3380.000000	0.838580
3379.000000	0.838600
3378.000000	0.838637
3377.000000	0.838688
3376.000000	0.838740
3375.000000	0.838779
3374.000000	0.838802
3373.000000	0.838820
3372.000000	0.838839
3371.000000	0.838866
3370.000000	0.838898
3369.000000	0.838930
3368.000000	0.838955
3367.000000	0.838968
3366.000000	0.838979
3365.000000	0.839003
3364.000000	0.839045
3363.000000	0.839092
3362.000000	0.839119
3361.000000	0.839123
3360.000000	0.839123
3359.000000	0.839140
3358.000000	0.839179
3357.000000	0.839226
3356.000000	0.839264
3355.000000	0.839288
3354.000000	0.839304
3353.000000	0.839317
3352.000000	0.839333
3351.000000	0.839358
3350.000000	0.839395
3349.000000	0.839439
3348.000000	0.839480
3347.000000	0.839515
3346.000000	0.839543
3345.000000	0.839568
3344.000000	0.839590
3343.000000	0.839604
3342.000000	0.839611
3341.000000	0.839616
3340.000000	0.839631
3339.000000	0.839661
3338.000000	0.839705
3337.000000	0.839749
3336.000000	0.839779
3335.000000	0.839793
3334.000000	0.839803
3333.000000	0.839822
3332.000000	0.839852
3331.000000	0.839882
3330.000000	0.839896
3329.000000	0.839894
3328.000000	0.839890
3327.000000	0.839909
3326.000000	0.839962
3325.000000	0.840039
3324.000000	0.840108
3323.000000	0.840144
3322.000000	0.840153
3321.000000	0.840161
3320.000000	0.840198
3319.000000	0.840262
3318.000000	0.840331
3317.000000	0.840378
3316.000000	0.840397
3315.000000	0.840401
3314.000000	0.840411
3313.000000	0.840439
3312.000000	0.840480
3311.000000	0.840515
3310.000000	0.840530
3309.000000	0.840529
3308.000000	0.840535
3307.000000	0.840570
3306.000000	0.840636
3305.000000	0.840713
3304.000000	0.840775
3303.000000	0.840807
3302.000000	0.840819
3301.000000	0.840829
3300.000000	0.840853
3299.000000	0.840890
3298.000000	0.840926
3297.000000	0.840952
3296.000000	0.840969
3295.000000	0.840989
3294.000000	0.841023
3293.000000	0.841064
3292.000000	0.841098
3291.000000	0.841116
3290.000000	0.841119
3289.000000	0.841123
3288.000000	0.841143
3287.000000	0.841185
3286.000000	0.841237
3285.000000	0.841278
3284.000000	0.841294
3283.000000	0.841292
3282.000000	0.841296
3281.000000	0.841326
3280.000000	0.841379
3279.000000	0.841431
3278.000000	0.841461
3277.000000	0.841470
3276.000000	0.841479
3275.000000	0.841505
3274.000000	0.841548
3273.000000	0.841598
3272.000000	0.841641
3271.000000	0.841675
3270.000000	0.841698
3269.000000	0.841714
3268.000000	0.841732
3267.000000	0.841759
3266.000000	0.841796
3265.000000	0.841831
3264.000000	0.841850
3263.000000	0.841854
3262.000000	0.841858
3261.000000	0.841876
3260.000000	0.841908
3259.000000	0.841941
3258.000000	0.841962
3257.000000	0.841973
3256.000000	0.841991
3255.000000	0.842030
3254.000000	0.842089
3253.000000	0.842143
3252.000000	0.842164
3251.000000	0.842151
3250.000000	0.842134
3249.000000	0.842140
3248.000000	0.842174
3247.000000	0.842214
3246.000000	0.842242
3245.000000	0.842257
3244.000000	0.842273
3243.000000	0.842300
3242.000000	0.842337
3241.000000	0.842374
3240.000000	0.842396
3239.000000	0.842402
3238.000000	0.842403
3237.000000	0.842416
3236.000000	0.842446
3235.000000	0.842488
3234.000000	0.842525
3233.000000	0.842545
3232.000000	0.842544
3231.000000	0.842527
3230.000000	0.842510
3229.000000	0.842515
3228.000000	0.842549
3227.000000	0.842598
3226.000000	0.842634
3225.000000	0.842648
3224.000000	0.842656
3223.000000	0.842677
3222.000000	0.842713
3221.000000	0.842751
3220.000000	0.842782
3219.000000	0.842809
3218.000000	0.842840
3217.000000	0.842878
3216.000000	0.842922
3215.000000	0.842964
3214.000000	0.842995
3213.000000	0.843006
3212.000000	0.843001
3211.000000	0.842998
3210.000000	0.843014
3209.000000	0.843047
3208.000000	0.843076
3207.000000	0.843083
3206.000000	0.843072
3205.000000	0.843070
3204.000000	0.843103
3203.000000	0.843169
3202.000000	0.843239
3201.000000	0.843277
3200.000000	0.843274
3199.000000	0.843249
3198.000000	0.843231
3197.000000	0.843240
3196.000000	0.843270
3195.000000	0.843303
3194.000000	0.843320
3193.000000	0.843319
3192.000000	0.843314
3191.000000	0.843324
3190.000000	0.843352
3189.000000	0.843387
3188.000000	0.843413
3187.000000	0.843431
3186.000000	0.843446
3185.000000	0.843468
3184.000000	0.843497
3183.000000	0.843528
3182.000000	0.843548
3181.000000	0.843550
3180.000000	0.843539
3179.000000	0.843538
3178.000000	0.843570
3177.000000	0.843631
3176.000000	0.843696
3175.000000	0.843734
3174.000000	0.843739
3173.000000	0.843723
3172.000000	0.843711
3171.000000	0.843719
3170.000000	0.843745
3169.000000	0.843773
3168.000000	0.843790
3167.000000	0.843797
3166.000000	0.843808
3165.000000	0.843835
3164.000000	0.843875
3163.000000	0.843912
3162.000000	0.843932
3161.000000	0.843934
3160.000000	0.843923
3159.000000	0.843915
3158.000000	0.843919
3157.000000	0.843934
3156.000000	0.843949
3155.000000	0.843954
3154.000000	0.843955
3153.000000	0.843968
3152.000000	0.844001
3151.000000	0.844048
3150.000000	0.844093
3149.000000	0.844118
3148.000000	0.844120
3147.000000	0.844108
3146.000000	0.844104
3145.000000	0.844128
3144.000000	0.844178
3143.000000	0.844230
3142.000000	0.844255
3141.000000	0.844245
3140.000000	0.844225
3139.000000	0.844231
3138.000000	0.844276
3137.000000	0.844343
3136.000000	0.844397
3135.000000	0.844421
3134.000000	0.844420
3133.000000	0.844416
3132.000000	0.844424
3131.000000	0.844441
3130.000000	0.844459
3129.000000	0.844474
3128.000000	0.844496
3127.000000	0.844536
3126.000000	0.844598
3125.000000	0.844668
3124.000000	0.844722
3123.000000	0.844746
3122.000000	0.844744
3121.000000	0.844737
3120.000000	0.844745
3119.000000	0.844777
3118.000000	0.844825
3117.000000	0.844870
3116.000000	0.844897
3115.000000	0.844905
3114.000000	0.844907
3113.000000	0.844918
3112.000000	0.844939
3111.000000	0.844961
3110.000000	0.844974
3109.000000	0.844976
3108.000000	0.844972
3107.000000	0.844975
3106.000000	0.844995
3105.000000	0.845031
3104.000000	0.845069
3103.000000	0.845094
3102.000000	0.845101
3101.000000	0.845096
3100.000000	0.845094
3099.000000	0.845097
3098.000000	0.845102
3097.000000	0.845096
3096.000000	0.845081
3095.000000	0.845076
3094.000000	0.845099
3093.000000	0.845151
3092.000000	0.845205
3091.000000	0.845231
3090.000000	0.845218
3089.000000	0.845185
3088.000000	0.845159
3087.000000	0.845159
3086.000000	0.845183
3085.000000	0.845213
3084.000000	0.845231
3083.000000	0.845228
3082.000000	0.845212
3081.000000	0.845200
3080.000000	0.845199
3079.000000	0.845207
3078.000000	0.845212
3077.000000	0.845214
3076.000000	0.845222
3075.000000	0.845244
3074.000000	0.845281
3073.000000	0.845316
3072.000000	0.845328
3071.000000	0.845312
3070.000000	0.845283
3069.000000	0.845265
3068.000000	0.845271
3067.000000	0.845290
3066.000000	0.845302
3065.000000	0.845291
3064.000000	0.845260
3063.000000	0.845221
3062.000000	0.845188
3061.000000	0.845168
3060.000000	0.845163
3059.000000	0.845169
3058.000000	0.845172
3057.000000	0.845161
3056.000000	0.845139
3055.000000	0.845126
3054.000000	0.845137
3053.000000	0.845160
3052.000000	0.845168
3051.000000	0.845146
3050.000000	0.845109
3049.000000	0.845081
3048.000000	0.845070
3047.000000	0.845068
3046.000000	0.845055
3045.000000	0.845017
3044.000000	0.844959
3043.000000	0.844906
3042.000000	0.844892
3041.000000	0.844926
3040.000000	0.844979
3039.000000	0.845013
3038.000000	0.845014
3037.000000	0.845001
3036.000000	0.844994
3035.000000	0.844995
3034.000000	0.844990
3033.000000	0.844970
3032.000000	0.844938
3031.000000	0.844907
3030.000000	0.844890
3029.000000	0.844893
3028.000000	0.844910
3027.000000	0.844926
3026.000000	0.844924
3025.000000	0.844902
3024.000000	0.844871
3023.000000	0.844847
3022.000000	0.844838
3021.000000	0.844837
3020.000000	0.844830
3019.000000	0.844812
3018.000000	0.844784
3017.000000	0.844752
3016.000000	0.844719
3015.000000	0.844681
3014.000000	0.844638
3013.000000	0.844596
3012.000000	0.844560
3011.000000	0.844533
3010.000000	0.844512
3009.000000	0.844488
3008.000000	0.844457
3007.000000	0.844418
3006.000000	0.844374
3005.000000	0.844338
3004.000000	0.844320
3003.000000	0.844328
3002.000000	0.844350
3001.000000	0.844363
3000.000000	0.844342
2999.000000	0.844277
2998.000000	0.844187
2997.000000	0.844107
2996.000000	0.844063
2995.000000	0.844056
2994.000000	0.844065
2993.000000	0.844060
2992.000000	0.844033
2991.000000	0.843998
2990.000000	0.843973
2989.000000	0.843957
2988.000000	0.843933
2987.000000	0.843887
2986.000000	0.843827
2985.000000	0.843773
2984.000000	0.843743
2983.000000	0.843737
2982.000000	0.843738
2981.000000	0.843727
2980.000000	0.843693
2979.000000	0.843646
2978.000000	0.843613
2977.000000	0.843611
2976.000000	0.843636
2975.000000	0.843655
2974.000000	0.843637
2973.000000	0.843578
2972.000000	0.843507
2971.000000	0.843465
2970.000000	0.843476
2969.000000	0.843529
2968.000000	0.843587
2967.000000	0.843615
2966.000000	0.843606
2965.000000	0.843575
2964.000000	0.843543
2963.000000	0.843520
2962.000000	0.843501
2961.000000	0.843473
2960.000000	0.843428
2959.000000	0.843370
2958.000000	0.843317
2957.000000	0.843286
2956.000000	0.843272
2955.000000	0.843250
2954.000000	0.843199
2953.000000	0.843126
2952.000000	0.843062
2951.000000	0.843027
2950.000000	0.843018
2949.000000	0.843006
2948.000000	0.842970
2947.000000	0.842915
2946.000000	0.842865
2945.000000	0.842843
2944.000000	0.842851
2943.000000	0.842869
2942.000000	0.842869
2941.000000	0.842838
2940.000000	0.842780
2939.000000	0.842718
2938.000000	0.842675
2937.000000	0.842663
2936.000000	0.842669
2935.000000	0.842667
2934.000000	0.842639
2933.000000	0.842590
2932.000000	0.842540
2931.000000	0.842506
2930.000000	0.842484
2929.000000	0.842459
2928.000000	0.842423
2927.000000	0.842377
2926.000000	0.842334
2925.000000	0.842297
2924.000000	0.842259
2923.000000	0.842208
2922.000000	0.842137
2921.000000	0.842049
2920.000000	0.841963
2919.000000	0.841900
2918.000000	0.841870
2917.000000	0.841860
2916.000000	0.841844
2915.000000	0.841802
2914.000000	0.841741
2913.000000	0.841686
2912.000000	0.841660
2911.000000	0.841651
2910.000000	0.841633
2909.000000	0.841582
2908.000000	0.841504
2907.000000	0.841428
2906.000000	0.841380
2905.000000	0.841366
2904.000000	0.841367
2903.000000	0.841355
2902.000000	0.841311
2901.000000	0.841239
2900.000000	0.841162
2899.000000	0.841108
2898.000000	0.841080
2897.000000	0.841059
2896.000000	0.841022
2895.000000	0.840963
2894.000000	0.840899
2893.000000	0.840851
2892.000000	0.840826
2891.000000	0.840807
2890.000000	0.840775
2889.000000	0.840722
2888.000000	0.840661
2887.000000	0.840617
2886.000000	0.840602
2885.000000	0.840601
2884.000000	0.840587
2883.000000	0.840542
2882.000000	0.840482
2881.000000	0.840429
2880.000000	0.840396
2879.000000	0.840373
2878.000000	0.840341
2877.000000	0.840288
2876.000000	0.840215
2875.000000	0.840135
2874.000000	0.840067
2873.000000	0.840025
2872.000000	0.840004
2871.000000	0.839985
2870.000000	0.839950
2869.000000	0.839901
2868.000000	0.839855
2867.000000	0.839826
2866.000000	0.839807
2865.000000	0.839777
2864.000000	0.839721
2863.000000	0.839643
2862.000000	0.839561
2861.000000	0.839494
2860.000000	0.839453
2859.000000	0.839429
2858.000000	0.839407
2857.000000	0.839378
2856.000000	0.839343
2855.000000	0.839312
2854.000000	0.839298
2853.000000	0.839298
2852.000000	0.839296
2851.000000	0.839274
2850.000000	0.839227
2849.000000	0.839170
2848.000000	0.839123
2847.000000	0.839093
2846.000000	0.839069
2845.000000	0.839030
2844.000000	0.838970
2843.000000	0.838904
2842.000000	0.838860
2841.000000	0.838854
2840.000000	0.838879
2839.000000	0.838905
2838.000000	0.838904
2837.000000	0.838870
2836.000000	0.838821
2835.000000	0.838779
2834.000000	0.838757
2833.000000	0.838746
2832.000000	0.838727
2831.000000	0.838690
2830.000000	0.838646
2829.000000	0.838618
2828.000000	0.838616
2827.000000	0.838626
2826.000000	0.838612
2825.000000	0.838551
2824.000000	0.838454
2823.000000	0.838363
2822.000000	0.838312
2821.000000	0.838304
2820.000000	0.838312
2819.000000	0.838307
2818.000000	0.838280
2817.000000	0.838240
2816.000000	0.838210
2815.000000	0.838198
2814.000000	0.838193
2813.000000	0.838170
2812.000000	0.838117
2811.000000	0.838050
2810.000000	0.837999
2809.000000	0.837982
2808.000000	0.837988
2807.000000	0.837993
2806.000000	0.837982
2805.000000	0.837954
2804.000000	0.837919
2803.000000	0.837890
2802.000000	0.837875
2801.000000	0.837865
2800.000000	0.837846
2799.000000	0.837807
2798.000000	0.837754
2797.000000	0.837710
2796.000000	0.837689
2795.000000	0.837687
2794.000000	0.837690
2793.000000	0.837680
2792.000000	0.837654
2791.000000	0.837619
2790.000000	0.837589
2789.000000	0.837578
2788.000000	0.837581
2787.000000	0.837579
2786.000000	0.837551
2785.000000	0.837501
2784.000000	0.837454
2783.000000	0.837438
2782.000000	0.837455
2781.000000	0.837480
2780.000000	0.837484
2779.000000	0.837454
2778.000000	0.837406
2777.000000	0.837368
2776.000000	0.837358
2775.000000	0.837365
2774.000000	0.837365
2773.000000	0.837339
2772.000000	0.837290
2771.000000	0.837244
2770.000000	0.837220
2769.000000	0.837216
2768.000000	0.837215
2767.000000	0.837204
2766.000000	0.837179
2765.000000	0.837151
2764.000000	0.837132
2763.000000	0.837127
2762.000000	0.837128
2761.000000	0.837116
2760.000000	0.837082
2759.000000	0.837037
2758.000000	0.837008
2757.000000	0.837007
2756.000000	0.837021
2755.000000	0.837023
2754.000000	0.836999
2753.000000	0.836960
2752.000000	0.836930
2751.000000	0.836927
2750.000000	0.836948
2749.000000	0.836970
2748.000000	0.836974
2747.000000	0.836955
2746.000000	0.836930
2745.000000	0.836919
2744.000000	0.836933
2743.000000	0.836966
2742.000000	0.836997
2741.000000	0.837003
2740.000000	0.836974
2739.000000	0.836927
2738.000000	0.836891
2737.000000	0.836888
2736.000000	0.836906
2735.000000	0.836917
2734.000000	0.836899
2733.000000	0.836862
2732.000000	0.836831
2731.000000	0.836830
2730.000000	0.836854
2729.000000	0.836881
2728.000000	0.836886
2727.000000	0.836866
2726.000000	0.836839
2725.000000	0.836822
2724.000000	0.836822
2723.000000	0.836826
2722.000000	0.836822
2721.000000	0.836806
2720.000000	0.836789
2719.000000	0.836789
2718.000000	0.836812
2717.000000	0.836848
2716.000000	0.836874
2715.000000	0.836874
2714.000000	0.836850
2713.000000	0.836819
2712.000000	0.836803
2711.000000	0.836806
2710.000000	0.836819
2709.000000	0.836822
2708.000000	0.836806
2707.000000	0.836776
2706.000000	0.836749
2705.000000	0.836741
2704.000000	0.836752
2703.000000	0.836767
2702.000000	0.836767
2701.000000	0.836751
2700.000000	0.836737
2699.000000	0.836748
2698.000000	0.836786
2697.000000	0.836826
2696.000000	0.836845
2695.000000	0.836838
2694.000000	0.836819
2693.000000	0.836805
2692.000000	0.836804
2691.000000	0.836816
2690.000000	0.836830
2689.000000	0.836833
2688.000000	0.836825
2687.000000	0.836816
2686.000000	0.836823
2685.000000	0.836841
2684.000000	0.836858
2683.000000	0.836862
2682.000000	0.836859
2681.000000	0.836860
2680.000000	0.836872
2679.000000	0.836894
2678.000000	0.836918
2677.000000	0.836930
2676.000000	0.836919
2675.000000	0.836892
2674.000000	0.836875
2673.000000	0.836891
2672.000000	0.836939
2671.000000	0.836991
2670.000000	0.837023
2669.000000	0.837032
2668.000000	0.837035
2667.000000	0.837048
2666.000000	0.837069
2665.000000	0.837087
2664.000000	0.837094
2663.000000	0.837092
2662.000000	0.837091
2661.000000	0.837095
2660.000000	0.837101
2659.000000	0.837111
2658.000000	0.837123
2657.000000	0.837130
2656.000000	0.837125
2655.000000	0.837118
2654.000000	0.837131
2653.000000	0.837176
2652.000000	0.837237
2651.000000	0.837281
2650.000000	0.837293
2649.000000	0.837281
2648.000000	0.837272
2647.000000	0.837290
2646.000000	0.837336
2645.000000	0.837394
2644.000000	0.837434
2643.000000	0.837440
2642.000000	0.837423
2641.000000	0.837416
2640.000000	0.837440
2639.000000	0.837487
2638.000000	0.837525
2637.000000	0.837528
2636.000000	0.837503
2635.000000	0.837482
2634.000000	0.837495
2633.000000	0.837546
2632.000000	0.837609
2631.000000	0.837651
2630.000000	0.837663
2629.000000	0.837659
2628.000000	0.837665
2627.000000	0.837692
2626.000000	0.837734
2625.000000	0.837769
2624.000000	0.837780
2623.000000	0.837769
2622.000000	0.837755
2621.000000	0.837760
2620.000000	0.837786
2619.000000	0.837822
2618.000000	0.837848
2617.000000	0.837859
2616.000000	0.837863
2615.000000	0.837875
2614.000000	0.837904
2613.000000	0.837941
2612.000000	0.837970
2611.000000	0.837983
2610.000000	0.837985
2609.000000	0.837989
2608.000000	0.838004
2607.000000	0.838032
2606.000000	0.838067
2605.000000	0.838097
2604.000000	0.838110
2603.000000	0.838108
2602.000000	0.838111
2601.000000	0.838137
2600.000000	0.838184
2599.000000	0.838229
2598.000000	0.838254
2597.000000	0.838264
2596.000000	0.838272
2595.000000	0.838289
2594.000000	0.838323
2593.000000	0.838367
2592.000000	0.838402
2591.000000	0.838412
2590.000000	0.838405
2589.000000	0.838407
2588.000000	0.838437
2587.000000	0.838481
2586.000000	0.838509
2585.000000	0.838508
2584.000000	0.838495
2583.000000	0.838498
2582.000000	0.838530
2581.000000	0.838583
2580.000000	0.838634
2579.000000	0.838663
2578.000000	0.838661
2577.000000	0.838647
2576.000000	0.838650
2575.000000	0.838688
2574.000000	0.838745
2573.000000	0.838786
2572.000000	0.838797
2571.000000	0.838796
2570.000000	0.838815
2569.000000	0.838866
2568.000000	0.838932
2567.000000	0.838980
2566.000000	0.838988
2565.000000	0.838957
2564.000000	0.838918
2563.000000	0.838911
2562.000000	0.838954
2561.000000	0.839027
2560.000000	0.839092
2559.000000	0.839127
2558.000000	0.839144
2557.000000	0.839163
2556.000000	0.839197
2555.000000	0.839239
2554.000000	0.839274
2553.000000	0.839291
2552.000000	0.839290
2551.000000	0.839287
2550.000000	0.839301
2549.000000	0.839336
2548.000000	0.839382
2547.000000	0.839422
2546.000000	0.839452
2545.000000	0.839476
2544.000000	0.839503
2543.000000	0.839537
2542.000000	0.839573
2541.000000	0.839601
2540.000000	0.839609
2539.000000	0.839601
2538.000000	0.839596
2537.000000	0.839615
2536.000000	0.839658
2535.000000	0.839708
2534.000000	0.839745
2533.000000	0.839758
2532.000000	0.839758
2531.000000	0.839770
2530.000000	0.839814
2529.000000	0.839882
2528.000000	0.839941
2527.000000	0.839962
2526.000000	0.839950
2525.000000	0.839938
2524.000000	0.839951
2523.000000	0.839988
2522.000000	0.840027
2521.000000	0.840052
2520.000000	0.840057
2519.000000	0.840057
2518.000000	0.840073
2517.000000	0.840116
2516.000000	0.840174
2515.000000	0.840222
2514.000000	0.840249
2513.000000	0.840260
2512.000000	0.840274
2511.000000	0.840299
2510.000000	0.840336
2509.000000	0.840373
2508.000000	0.840400
2507.000000	0.840409
2506.000000	0.840404
2505.000000	0.840409
2504.000000	0.840440
2503.000000	0.840494
2502.000000	0.840548
2501.000000	0.840582
2500.000000	0.840597
2499.000000	0.840609
2498.000000	0.840633
2497.000000	0.840671
2496.000000	0.840715
2495.000000	0.840753
2494.000000	0.840773
2493.000000	0.840781
2492.000000	0.840793
2491.000000	0.840825
2490.000000	0.840873
2489.000000	0.840915
2488.000000	0.840936
2487.000000	0.840941
2486.000000	0.840952
2485.000000	0.840978
2484.000000	0.841017
2483.000000	0.841057
2482.000000	0.841085
2481.000000	0.841092
2480.000000	0.841086
2479.000000	0.841090
2478.000000	0.841121
2477.000000	0.841173
2476.000000	0.841221
2475.000000	0.841251
2474.000000	0.841269
2473.000000	0.841290
2472.000000	0.841323
2471.000000	0.841365
2470.000000	0.841411
2469.000000	0.841450
2468.000000	0.841469
2467.000000	0.841472
2466.000000	0.841483
2465.000000	0.841524
2464.000000	0.841584
2463.000000	0.841625
2462.000000	0.841625
2461.000000	0.841601
2460.000000	0.841589
2459.000000	0.841613
2458.000000	0.841668
2457.000000	0.841727
2456.000000	0.841768
2455.000000	0.841780
2454.000000	0.841780
2453.000000	0.841789
2452.000000	0.841821
2451.000000	0.841861
2450.000000	0.841884
2449.000000	0.841877
2448.000000	0.841850
2447.000000	0.841832
2446.000000	0.841846
2445.000000	0.841889
2444.000000	0.841928
2443.000000	0.841934
2442.000000	0.841905
2441.000000	0.841868
2440.000000	0.841851
2439.000000	0.841864
2438.000000	0.841888
2437.000000	0.841902
2436.000000	0.841894
2435.000000	0.841872
2434.000000	0.841855
2433.000000	0.841860
2432.000000	0.841886
2431.000000	0.841912
2430.000000	0.841915
2429.000000	0.841890
2428.000000	0.841852
2427.000000	0.841827
2426.000000	0.841826
2425.000000	0.841839
2424.000000	0.841838
2423.000000	0.841811
2422.000000	0.841768
2421.000000	0.841735
2420.000000	0.841732
2419.000000	0.841750
2418.000000	0.841764
2417.000000	0.841754
2416.000000	0.841715
2415.000000	0.841669
2414.000000	0.841637
2413.000000	0.841624
2412.000000	0.841623
2411.000000	0.841620
2410.000000	0.841606
2409.000000	0.841578
2408.000000	0.841541
2407.000000	0.841507
2406.000000	0.841489
2405.000000	0.841487
2404.000000	0.841480
2403.000000	0.841458
2402.000000	0.841435
2401.000000	0.841432
2400.000000	0.841450
2399.000000	0.841471
2398.000000	0.841474
2397.000000	0.841459
2396.000000	0.841435
2395.000000	0.841417
2394.000000	0.841416
2393.000000	0.841427
2392.000000	0.841429
2391.000000	0.841401
2390.000000	0.841352
2389.000000	0.841318
2388.000000	0.841322
2387.000000	0.841352
2386.000000	0.841379
2385.000000	0.841382
2384.000000	0.841359
2383.000000	0.841319
2382.000000	0.841282
2381.000000	0.841280
2380.000000	0.841324
2379.000000	0.841382
2378.000000	0.841405
2377.000000	0.841374
2376.000000	0.841316
2375.000000	0.841274
2374.000000	0.841267
2373.000000	0.841280
2372.000000	0.841283
2371.000000	0.841266
2370.000000	0.841241
2369.000000	0.841232
2368.000000	0.841250
2367.000000	0.841277
2366.000000	0.841283
2365.000000	0.841255
2364.000000	0.841210
2363.000000	0.841177
2362.000000	0.841174
2361.000000	0.841193
2360.000000	0.841216
2359.000000	0.841225
2358.000000	0.841216
2357.000000	0.841203
2356.000000	0.841209
2355.000000	0.841253
2354.000000	0.841324
2353.000000	0.841389
2352.000000	0.841426
2351.000000	0.841452
2350.000000	0.841513
2349.000000	0.841648
2348.000000	0.841863
2347.000000	0.842146
2346.000000	0.842487
2345.000000	0.842895
2344.000000	0.843388
2343.000000	0.843968
2342.000000	0.844587
2341.000000	0.845140
2340.000000	0.845489
2339.000000	0.845535
2338.000000	0.845281
2337.000000	0.844830
2336.000000	0.844317
2335.000000	0.843845
2334.000000	0.843450
2333.000000	0.843128
2332.000000	0.842871
2331.000000	0.842683
2330.000000	0.842576
2329.000000	0.842543
2328.000000	0.842549
2327.000000	0.842545
2326.000000	0.842511
2325.000000	0.842462
2324.000000	0.842433
2323.000000	0.842437
2322.000000	0.842461
2321.000000	0.842476
2320.000000	0.842471
2319.000000	0.842449
2318.000000	0.842432
2317.000000	0.842438
2316.000000	0.842470
2315.000000	0.842509
2314.000000	0.842531
2313.000000	0.842529
2312.000000	0.842518
2311.000000	0.842520
2310.000000	0.842548
2309.000000	0.842598
2308.000000	0.842650
2307.000000	0.842679
2306.000000	0.842674
2305.000000	0.842656
2304.000000	0.842661
2303.000000	0.842701
2302.000000	0.842746
2301.000000	0.842757
2300.000000	0.842726
2299.000000	0.842684
2298.000000	0.842670
2297.000000	0.842705
2296.000000	0.842778
2295.000000	0.842854
2294.000000	0.842893
2293.000000	0.842876
2292.000000	0.842827
2291.000000	0.842797
2290.000000	0.842813
2289.000000	0.842860
2288.000000	0.842894
2287.000000	0.842898
2286.000000	0.842890
2285.000000	0.842901
2284.000000	0.842944
2283.000000	0.843000
2282.000000	0.843039
2281.000000	0.843049
2280.000000	0.843045
2279.000000	0.843058
2278.000000	0.843110
2277.000000	0.843190
2276.000000	0.843260
2275.000000	0.843292
2274.000000	0.843283
2273.000000	0.843256
2272.000000	0.843238
2271.000000	0.843247
2270.000000	0.843273
2269.000000	0.843289
2268.000000	0.843274
2267.000000	0.843237
2266.000000	0.843218
2265.000000	0.843248
2264.000000	0.843314
2263.000000	0.843375
2262.000000	0.843397
2261.000000	0.843384
2260.000000	0.843366
2259.000000	0.843372
2258.000000	0.843411
2257.000000	0.843466
2256.000000	0.843498
2255.000000	0.843479
2254.000000	0.843422
2253.000000	0.843374
2252.000000	0.843378
2251.000000	0.843429
2250.000000	0.843486
2249.000000	0.843511
2248.000000	0.843505
2247.000000	0.843494
2246.000000	0.843503
2245.000000	0.843535
2244.000000	0.843575
2243.000000	0.843600
2242.000000	0.843598
2241.000000	0.843573
2240.000000	0.843556
2239.000000	0.843578
2238.000000	0.843637
2237.000000	0.843698
2236.000000	0.843722
2235.000000	0.843703
2234.000000	0.843674
2233.000000	0.843669
2232.000000	0.843691
2231.000000	0.843711
2230.000000	0.843704
2229.000000	0.843666
2228.000000	0.843622
2227.000000	0.843605
2226.000000	0.843633
2225.000000	0.843693
2224.000000	0.843748
2223.000000	0.843767
2222.000000	0.843745
2221.000000	0.843707
2220.000000	0.843686
2219.000000	0.843702
2218.000000	0.843740
2217.000000	0.843770
2216.000000	0.843769
2215.000000	0.843745
2214.000000	0.843728
2213.000000	0.843735
2212.000000	0.843756
2211.000000	0.843765
2210.000000	0.843749
2209.000000	0.843717
2208.000000	0.843693
2207.000000	0.843689
2206.000000	0.843706
2205.000000	0.843726
2204.000000	0.843729
2203.000000	0.843705
2202.000000	0.843668
2201.000000	0.843640
2200.000000	0.843635
2199.000000	0.843646
2198.000000	0.843653
2197.000000	0.843639
2196.000000	0.843601
2195.000000	0.843557
2194.000000	0.843530
2193.000000	0.843531
2192.000000	0.843547
2191.000000	0.843552
2190.000000	0.843534
2189.000000	0.843503
2188.000000	0.843480
2187.000000	0.843478
2186.000000	0.843490
2185.000000	0.843495
2184.000000	0.843473
2183.000000	0.843428
2182.000000	0.843390
2181.000000	0.843394
2180.000000	0.843437
2179.000000	0.843479
2178.000000	0.843472
2177.000000	0.843408
2176.000000	0.843323
2175.000000	0.843266
2174.000000	0.843263
2173.000000	0.843295
2172.000000	0.843322
2171.000000	0.843313
2170.000000	0.843269
2169.000000	0.843221
2168.000000	0.843198
2167.000000	0.843201
2166.000000	0.843199
2165.000000	0.843164
2164.000000	0.843092
2163.000000	0.843018
2162.000000	0.842981
2161.000000	0.842991
2160.000000	0.843017
2159.000000	0.843022
2158.000000	0.842990
2157.000000	0.842939
2156.000000	0.842900
2155.000000	0.842888
2154.000000	0.842894
2153.000000	0.842897
2152.000000	0.842876
2151.000000	0.842829
2150.000000	0.842772
2149.000000	0.842723
2148.000000	0.842693
2147.000000	0.842675
2146.000000	0.842653
2145.000000	0.842616
2144.000000	0.842564
2143.000000	0.842515
2142.000000	0.842492
2141.000000	0.842495
2140.000000	0.842498
2139.000000	0.842470
2138.000000	0.842405
2137.000000	0.842327
2136.000000	0.842271
2135.000000	0.842253
2134.000000	0.842261
2133.000000	0.842265
2132.000000	0.842240
2131.000000	0.842185
2130.000000	0.842123
2129.000000	0.842088
2128.000000	0.842085
2127.000000	0.842091
2126.000000	0.842069
2125.000000	0.842009
2124.000000	0.841934
2123.000000	0.841878
2122.000000	0.841861
2121.000000	0.841867
2120.000000	0.841859
2119.000000	0.841807
2118.000000	0.841718
2117.000000	0.841636
2116.000000	0.841603
2115.000000	0.841618
2114.000000	0.841639
2113.000000	0.841621
2112.000000	0.841555
2111.000000	0.841472
2110.000000	0.841415
2109.000000	0.841401
2108.000000	0.841412
2107.000000	0.841407
2106.000000	0.841360
2105.000000	0.841280
2104.000000	0.841198
2103.000000	0.841144
2102.000000	0.841120
2101.000000	0.841106
2100.000000	0.841079
2099.000000	0.841028
2098.000000	0.840967
2097.000000	0.840922
2096.000000	0.840913
2095.000000	0.840935
2094.000000	0.840957
2093.000000	0.840946
2092.000000	0.840900
2091.000000	0.840842
2090.000000	0.840799
2089.000000	0.840772
2088.000000	0.840743
2087.000000	0.840693
2086.000000	0.840627
2085.000000	0.840561
2084.000000	0.840513
2083.000000	0.840486
2082.000000	0.840467
2081.000000	0.840437
2080.000000	0.840383
2079.000000	0.840315
2078.000000	0.840260
2077.000000	0.840237
2076.000000	0.840241
2075.000000	0.840240
2074.000000	0.840207
2073.000000	0.840138
2072.000000	0.840053
2071.000000	0.839983
2070.000000	0.839941
2069.000000	0.839923
2068.000000	0.839903
2067.000000	0.839865
2066.000000	0.839813
2065.000000	0.839771
2064.000000	0.839755
2063.000000	0.839754
2062.000000	0.839741
2061.000000	0.839693
2060.000000	0.839618
2059.000000	0.839539
2058.000000	0.839483
2057.000000	0.839456
2056.000000	0.839446
2055.000000	0.839425
2054.000000	0.839377
2053.000000	0.839310
2052.000000	0.839254
2051.000000	0.839233
2050.000000	0.839239
2049.000000	0.839240
2048.000000	0.839210
2047.000000	0.839153
2046.000000	0.839093
2045.000000	0.839056
2044.000000	0.839041
2043.000000	0.839031
2042.000000	0.839001
2041.000000	0.838943
2040.000000	0.838871
2039.000000	0.838812
2038.000000	0.838782
2037.000000	0.838771
2036.000000	0.838754
2035.000000	0.838714
2034.000000	0.838662
2033.000000	0.838619
2032.000000	0.838595
2031.000000	0.838587
2030.000000	0.838578
2029.000000	0.838554
2028.000000	0.838502
2027.000000	0.838430
2026.000000	0.838364
2025.000000	0.838327
2024.000000	0.838316
2023.000000	0.838306
2022.000000	0.838275
2021.000000	0.838222
2020.000000	0.838165
2019.000000	0.838120
2018.000000	0.838095
2017.000000	0.838080
2016.000000	0.838057
2015.000000	0.838017
2014.000000	0.837968
2013.000000	0.837934
2012.000000	0.837926
2011.000000	0.837924
2010.000000	0.837900
2009.000000	0.837844
2008.000000	0.837770
2007.000000	0.837705
2006.000000	0.837675
2005.000000	0.837686
2004.000000	0.837720
2003.000000	0.837734
2002.000000	0.837697
2001.000000	0.837609
2000.000000	0.837515
1999.000000	0.837458
1998.000000	0.837446
1997.000000	0.837449
1996.000000	0.837431
1995.000000	0.837381
1994.000000	0.837320
1993.000000	0.837277
1992.000000	0.837263
1991.000000	0.837264
1990.000000	0.837255
1989.000000	0.837225
1988.000000	0.837189
1987.000000	0.837169
1986.000000	0.837171
1985.000000	0.837177
1984.000000	0.837160
1983.000000	0.837113
1982.000000	0.837058
1981.000000	0.837026
1980.000000	0.837026
1979.000000	0.837039
1978.000000	0.837034
1977.000000	0.836995
1976.000000	0.836935
1975.000000	0.836886
1974.000000	0.836868
1973.000000	0.836880
1972.000000	0.836903
1971.000000	0.836910
1970.000000	0.836884
1969.000000	0.836829
1968.000000	0.836769
1967.000000	0.836737
1966.000000	0.836745
1965.000000	0.836766
1964.000000	0.836762
1963.000000	0.836723
1962.000000	0.836675
1961.000000	0.836657
1960.000000	0.836675
1959.000000	0.836705
1958.000000	0.836711
1957.000000	0.836679
1956.000000	0.836627
1955.000000	0.836585
1954.000000	0.836580
1953.000000	0.836607
1952.000000	0.836636
1951.000000	0.836633
1950.000000	0.836596
1949.000000	0.836548
1948.000000	0.836519
1947.000000	0.836519
1946.000000	0.836531
1945.000000	0.836526
1944.000000	0.836486
1943.000000	0.836425
1942.000000	0.836382
1941.000000	0.836388
1940.000000	0.836434
1939.000000	0.836475
1938.000000	0.836480
1937.000000	0.836457
1936.000000	0.836436
1935.000000	0.836437
1934.000000	0.836455
1933.000000	0.836471
1932.000000	0.836467
1931.000000	0.836440
1930.000000	0.836402
1929.000000	0.836380
1928.000000	0.836390
1927.000000	0.836422
1926.000000	0.836441
1925.000000	0.836424
1924.000000	0.836380
1923.000000	0.836345
1922.000000	0.836344
1921.000000	0.836373
1920.000000	0.836402
1919.000000	0.836404
1918.000000	0.836376
1917.000000	0.836344
1916.000000	0.836342
1915.000000	0.836383
1914.000000	0.836446
1913.000000	0.836493
1912.000000	0.836500
1911.000000	0.836478
1910.000000	0.836457
1909.000000	0.836460
1908.000000	0.836490
1907.000000	0.836525
1906.000000	0.836541
1905.000000	0.836523
1904.000000	0.836488
1903.000000	0.836471
1902.000000	0.836496
1901.000000	0.836544
1900.000000	0.836568
1899.000000	0.836544
1898.000000	0.836494
1897.000000	0.836463
1896.000000	0.836471
1895.000000	0.836508
1894.000000	0.836549
1893.000000	0.836568
1892.000000	0.836552
1891.000000	0.836517
1890.000000	0.836498
1889.000000	0.836524
1888.000000	0.836581
1887.000000	0.836627
1886.000000	0.836633
1885.000000	0.836609
1884.000000	0.836590
1883.000000	0.836597
1882.000000	0.836625
1881.000000	0.836652
1880.000000	0.836653
1879.000000	0.836619
1878.000000	0.836574
1877.000000	0.836558
1876.000000	0.836587
1875.000000	0.836642
1874.000000	0.836682
1873.000000	0.836685
1872.000000	0.836655
1871.000000	0.836614
1870.000000	0.836593
1869.000000	0.836611
1868.000000	0.836654
1867.000000	0.836690
1866.000000	0.836692
1865.000000	0.836676
1864.000000	0.836676
1863.000000	0.836708
1862.000000	0.836754
1861.000000	0.836785
1860.000000	0.836789
1859.000000	0.836773
1858.000000	0.836764
1857.000000	0.836782
1856.000000	0.836824
1855.000000	0.836861
1854.000000	0.836861
1853.000000	0.836828
1852.000000	0.836802
1851.000000	0.836817
1850.000000	0.836870
1849.000000	0.836926
1848.000000	0.836946
1847.000000	0.836915
1846.000000	0.836850
1845.000000	0.836795
1844.000000	0.836799
1843.000000	0.836872
1842.000000	0.836975
1841.000000	0.837045
1840.000000	0.837056
1839.000000	0.837033
1838.000000	0.837024
1837.000000	0.837053
1836.000000	0.837106
1835.000000	0.837154
1834.000000	0.837172
1833.000000	0.837157
1832.000000	0.837129
1831.000000	0.837122
1830.000000	0.837155
1829.000000	0.837210
1828.000000	0.837246
1827.000000	0.837243
1826.000000	0.837228
1825.000000	0.837252
1824.000000	0.837329
1823.000000	0.837422
1822.000000	0.837483
1821.000000	0.837501
1820.000000	0.837501
1819.000000	0.837522
1818.000000	0.837580
1817.000000	0.837658
1816.000000	0.837720
1815.000000	0.837739
1814.000000	0.837722
1813.000000	0.837704
1812.000000	0.837716
1811.000000	0.837756
1810.000000	0.837797
1809.000000	0.837816
1808.000000	0.837811
1807.000000	0.837798
1806.000000	0.837802
1805.000000	0.837836
1804.000000	0.837887
1803.000000	0.837922
1802.000000	0.837919
1801.000000	0.837893
1800.000000	0.837882
1799.000000	0.837910
1798.000000	0.837966
1797.000000	0.838017
1796.000000	0.838041
1795.000000	0.838027
1794.000000	0.837989
1793.000000	0.837966
1792.000000	0.838001
1791.000000	0.838103
1790.000000	0.838226
1789.000000	0.838311
1788.000000	0.838336
1787.000000	0.838330
1786.000000	0.838335
1785.000000	0.838374
1784.000000	0.838433
1783.000000	0.838484
1782.000000	0.838509
1781.000000	0.838521
1780.000000	0.838554
1779.000000	0.838629
1778.000000	0.838726
1777.000000	0.838792
1776.000000	0.838788
1775.000000	0.838724
1774.000000	0.838653
1773.000000	0.838628
1772.000000	0.838676
1771.000000	0.838773
1770.000000	0.838869
1769.000000	0.838931
1768.000000	0.838976
1767.000000	0.839047
1766.000000	0.839161
1765.000000	0.839281
1764.000000	0.839348
1763.000000	0.839345
1762.000000	0.839315
1761.000000	0.839321
1760.000000	0.839387
1759.000000	0.839484
1758.000000	0.839567
1757.000000	0.839609
1756.000000	0.839617
1755.000000	0.839618
1754.000000	0.839633
1753.000000	0.839663
1752.000000	0.839698
1751.000000	0.839733
1750.000000	0.839773
1749.000000	0.839827
1748.000000	0.839902
1747.000000	0.840000
1746.000000	0.840113
1745.000000	0.840217
1744.000000	0.840285
1743.000000	0.840302
1742.000000	0.840284
1741.000000	0.840274
1740.000000	0.840309
1739.000000	0.840387
1738.000000	0.840458
1737.000000	0.840460
1736.000000	0.840378
1735.000000	0.840281
1734.000000	0.840272
1733.000000	0.840404
1732.000000	0.840623
1731.000000	0.840820
1730.000000	0.840931
1729.000000	0.840977
1728.000000	0.841023
1727.000000	0.841101
1726.000000	0.841191
1725.000000	0.841253
1724.000000	0.841276
1723.000000	0.841284
1722.000000	0.841303
1721.000000	0.841324
1720.000000	0.841317
1719.000000	0.841258
1718.000000	0.841170
1717.000000	0.841118
1716.000000	0.841167
1715.000000	0.841325
1714.000000	0.841538
1713.000000	0.841733
1712.000000	0.841860
1711.000000	0.841916
1710.000000	0.841931
1709.000000	0.841940
1708.000000	0.841966
1707.000000	0.842006
1706.000000	0.842048
1705.000000	0.842067
1704.000000	0.842039
1703.000000	0.841955
1702.000000	0.841844
1701.000000	0.841770
1700.000000	0.841781
1699.000000	0.841849
1698.000000	0.841897
1697.000000	0.841888
1696.000000	0.841884
1695.000000	0.841979
1694.000000	0.842189
1693.000000	0.842417
1692.000000	0.842554
1691.000000	0.842576
1690.000000	0.842552
1689.000000	0.842551
1688.000000	0.842569
1687.000000	0.842546
1686.000000	0.842447
1685.000000	0.842324
1684.000000	0.842277
1683.000000	0.842364
1682.000000	0.842551
1681.000000	0.842742
1680.000000	0.842860
1679.000000	0.842886
1678.000000	0.842847
1677.000000	0.842791
1676.000000	0.842772
1675.000000	0.842824
1674.000000	0.842927
1673.000000	0.843012
1672.000000	0.843017
1671.000000	0.842955
1670.000000	0.842909
1669.000000	0.842948
1668.000000	0.843067
1667.000000	0.843193
1666.000000	0.843255
1665.000000	0.843243
1664.000000	0.843209
1663.000000	0.843214
1662.000000	0.843279
1661.000000	0.843369
1660.000000	0.843425
1659.000000	0.843422
1658.000000	0.843378
1657.000000	0.843310
1656.000000	0.843206
1655.000000	0.843040
1654.000000	0.842843
1653.000000	0.842715
1652.000000	0.842754
1651.000000	0.842954
1650.000000	0.843204
1649.000000	0.843381
1648.000000	0.843434
1647.000000	0.843401
1646.000000	0.843359
1645.000000	0.843370
1644.000000	0.843455
1643.000000	0.843587
1642.000000	0.843710
1641.000000	0.843774
1640.000000	0.843757
1639.000000	0.843674
1638.000000	0.843559
1637.000000	0.843455
1636.000000	0.843415
1635.000000	0.843462
1634.000000	0.843568
1633.000000	0.843665
1632.000000	0.843715
1631.000000	0.843740
1630.000000	0.843781
1629.000000	0.843839
1628.000000	0.843866
1627.000000	0.843829
1626.000000	0.843748
1625.000000	0.843672
1624.000000	0.843639
1623.000000	0.843654
1622.000000	0.843691
1621.000000	0.843706
1620.000000	0.843659
1619.000000	0.843555
1618.000000	0.843462
1617.000000	0.843461
1616.000000	0.843568
1615.000000	0.843719
1614.000000	0.843837
1613.000000	0.843898
1612.000000	0.843937
1611.000000	0.843996
1610.000000	0.844073
1609.000000	0.844128
1608.000000	0.844122
1607.000000	0.844058
1606.000000	0.843984
1605.000000	0.843959
1604.000000	0.844003
1603.000000	0.844080
1602.000000	0.844131
1601.000000	0.844130
1600.000000	0.844100
1599.000000	0.844091
1598.000000	0.844131
1597.000000	0.844204
1596.000000	0.844268
1595.000000	0.844286
1594.000000	0.844252
1593.000000	0.844207
1592.000000	0.844202
1591.000000	0.844257
1590.000000	0.844329
1589.000000	0.844352
1588.000000	0.844303
1587.000000	0.844225
1586.000000	0.844186
1585.000000	0.844216
1584.000000	0.844285
1583.000000	0.844340
1582.000000	0.844345
1581.000000	0.844303
1580.000000	0.844242
1579.000000	0.844184
1578.000000	0.844127
1577.000000	0.844066
1576.000000	0.844018
1575.000000	0.844019
1574.000000	0.844081
1573.000000	0.844174
1572.000000	0.844256
1571.000000	0.844306
1570.000000	0.844324
1569.000000	0.844311
1568.000000	0.844279
1567.000000	0.844265
1566.000000	0.844304
1565.000000	0.844389
1564.000000	0.844455
1563.000000	0.844418
1562.000000	0.844244
1561.000000	0.843978
1560.000000	0.843742
1559.000000	0.843659
1558.000000	0.843753
1557.000000	0.843930
1556.000000	0.844067
1555.000000	0.844137
1554.000000	0.844199
1553.000000	0.844299
1552.000000	0.844402
1551.000000	0.844447
1550.000000	0.844426
1549.000000	0.844389
1548.000000	0.844380
1547.000000	0.844406
1546.000000	0.844443
1545.000000	0.844456
1544.000000	0.844405
1543.000000	0.844267
1542.000000	0.844075
1541.000000	0.843918
1540.000000	0.843890
1539.000000	0.844014
1538.000000	0.844221
1537.000000	0.844396
1536.000000	0.844459
1535.000000	0.844428
1534.000000	0.844397
1533.000000	0.844441
1532.000000	0.844546
1531.000000	0.844628
1530.000000	0.844622
1529.000000	0.844548
1528.000000	0.844478
1527.000000	0.844469
1526.000000	0.844515
1525.000000	0.844549
1524.000000	0.844499
1523.000000	0.844356
1522.000000	0.844202
1521.000000	0.844155
1520.000000	0.844255
1519.000000	0.844426
1518.000000	0.844549
1517.000000	0.844575
1516.000000	0.844549
1515.000000	0.844550
1514.000000	0.844604
1513.000000	0.844679
1512.000000	0.844717
1511.000000	0.844678
1510.000000	0.844551
1509.000000	0.844367
1508.000000	0.844195
1507.000000	0.844115
1506.000000	0.844164
1505.000000	0.844306
1504.000000	0.844462
1503.000000	0.844588
1502.000000	0.844696
1501.000000	0.844806
1500.000000	0.844897
