PE IR       SUBTECH     SPECTRUM    ASCII       PEDS        4.00        
   -1
TE108B1_038_150K.ASC
20/02/21
16:46:09.00
20/02/21
16:46:09.00
Administrator
Sample 038 By Administrator Date Friday, February 21 2020
1500.000000
#HDR
-1
-1
#GR
cm-1
A
1.0
0.0
4000.000000
-1.000000
2501
8
0.896870
0.871865
#DATA
4000.000000	0.881957
3999.000000	0.881965
3998.000000	0.881976
3997.000000	0.881977
3996.000000	0.881956
3995.000000	0.881912
3994.000000	0.881854
3993.000000	0.881804
3992.000000	0.881780
3991.000000	0.881780
3990.000000	0.881785
3989.000000	0.881778
3988.000000	0.881758
3987.000000	0.881738
3986.000000	0.881729
3985.000000	0.881725
3984.000000	0.881715
3983.000000	0.881692
3982.000000	0.881656
3981.000000	0.881609
3980.000000	0.881559
3979.000000	0.881510
3978.000000	0.881473
3977.000000	0.881453
3976.000000	0.881451
3975.000000	0.881456
3974.000000	0.881454
3973.000000	0.881436
3972.000000	0.881403
3971.000000	0.881365
3970.000000	0.881330
3969.000000	0.881302
3968.000000	0.881283
3967.000000	0.881273
3966.000000	0.881267
3965.000000	0.881255
3964.000000	0.881224
3963.000000	0.881171
3962.000000	0.881108
3961.000000	0.881053
3960.000000	0.881020
3959.000000	0.881004
3958.000000	0.880991
3957.000000	0.880969
3956.000000	0.880938
3955.000000	0.880904
3954.000000	0.880870
3953.000000	0.880837
3952.000000	0.880805
3951.000000	0.880776
3950.000000	0.880747
3949.000000	0.880715
3948.000000	0.880672
3947.000000	0.880618
3946.000000	0.880555
3945.000000	0.880491
3944.000000	0.880433
3943.000000	0.880385
3942.000000	0.880346
3941.000000	0.880310
3940.000000	0.880277
3939.000000	0.880252
3938.000000	0.880241
3937.000000	0.880243
3936.000000	0.880239
3935.000000	0.880205
3934.000000	0.880128
3933.000000	0.880027
3932.000000	0.879942
3931.000000	0.879905
3930.000000	0.879911
3929.000000	0.879927
3928.000000	0.879916
3927.000000	0.879869
3926.000000	0.879803
3925.000000	0.879744
3924.000000	0.879703
3923.000000	0.879676
3922.000000	0.879648
3921.000000	0.879604
3920.000000	0.879543
3919.000000	0.879478
3918.000000	0.879429
3917.000000	0.879409
3916.000000	0.879417
3915.000000	0.879435
3914.000000	0.879437
3913.000000	0.879408
3912.000000	0.879352
3911.000000	0.879284
3910.000000	0.879218
3909.000000	0.879149
3908.000000	0.879064
3907.000000	0.878951
3906.000000	0.878811
3905.000000	0.878667
3904.000000	0.878546
3903.000000	0.878465
3902.000000	0.878421
3901.000000	0.878400
3900.000000	0.878398
3899.000000	0.878427
3898.000000	0.878493
3897.000000	0.878583
3896.000000	0.878655
3895.000000	0.878666
3894.000000	0.878603
3893.000000	0.878491
3892.000000	0.878384
3891.000000	0.878325
3890.000000	0.878312
3889.000000	0.878302
3888.000000	0.878242
3887.000000	0.878122
3886.000000	0.877987
3885.000000	0.877906
3884.000000	0.877909
3883.000000	0.877966
3882.000000	0.878017
3881.000000	0.878025
3880.000000	0.878000
3879.000000	0.877977
3878.000000	0.877969
3877.000000	0.877957
3876.000000	0.877918
3875.000000	0.877850
3874.000000	0.877765
3873.000000	0.877665
3872.000000	0.877541
3871.000000	0.877390
3870.000000	0.877246
3869.000000	0.877160
3868.000000	0.877151
3867.000000	0.877186
3866.000000	0.877207
3865.000000	0.877187
3864.000000	0.877151
3863.000000	0.877145
3862.000000	0.877183
3861.000000	0.877236
3860.000000	0.877256
3859.000000	0.877202
3858.000000	0.877041
3857.000000	0.876743
3856.000000	0.876308
3855.000000	0.875816
3854.000000	0.875427
3853.000000	0.875300
3852.000000	0.875490
3851.000000	0.875903
3850.000000	0.876358
3849.000000	0.876700
3848.000000	0.876868
3847.000000	0.876891
3846.000000	0.876831
3845.000000	0.876737
3844.000000	0.876629
3843.000000	0.876508
3842.000000	0.876361
3841.000000	0.876167
3840.000000	0.875928
3839.000000	0.875685
3838.000000	0.875516
3837.000000	0.875482
3836.000000	0.875583
3835.000000	0.875755
3834.000000	0.875910
3833.000000	0.875999
3832.000000	0.876026
3831.000000	0.876026
3830.000000	0.876023
3829.000000	0.876016
3828.000000	0.875990
3827.000000	0.875941
3826.000000	0.875876
3825.000000	0.875789
3824.000000	0.875661
3823.000000	0.875483
3822.000000	0.875289
3821.000000	0.875146
3820.000000	0.875093
3819.000000	0.875100
3818.000000	0.875090
3817.000000	0.875019
3816.000000	0.874928
3815.000000	0.874904
3814.000000	0.874994
3813.000000	0.875154
3812.000000	0.875293
3811.000000	0.875333
3810.000000	0.875252
3809.000000	0.875082
3808.000000	0.874884
3807.000000	0.874732
3806.000000	0.874665
3805.000000	0.874658
3804.000000	0.874631
3803.000000	0.874528
3802.000000	0.874381
3801.000000	0.874293
3800.000000	0.874338
3799.000000	0.874489
3798.000000	0.874645
3797.000000	0.874735
3796.000000	0.874765
3795.000000	0.874786
3794.000000	0.874826
3793.000000	0.874866
3792.000000	0.874878
3791.000000	0.874859
3790.000000	0.874821
3789.000000	0.874768
3788.000000	0.874698
3787.000000	0.874617
3786.000000	0.874548
3785.000000	0.874512
3784.000000	0.874507
3783.000000	0.874511
3782.000000	0.874499
3781.000000	0.874459
3780.000000	0.874398
3779.000000	0.874341
3778.000000	0.874310
3777.000000	0.874311
3776.000000	0.874323
3775.000000	0.874315
3774.000000	0.874265
3773.000000	0.874165
3772.000000	0.874023
3771.000000	0.873867
3770.000000	0.873737
3769.000000	0.873668
3768.000000	0.873669
3767.000000	0.873713
3766.000000	0.873764
3765.000000	0.873798
3764.000000	0.873810
3763.000000	0.873802
3762.000000	0.873771
3761.000000	0.873710
3760.000000	0.873628
3759.000000	0.873549
3758.000000	0.873494
3757.000000	0.873454
3756.000000	0.873385
3755.000000	0.873233
3754.000000	0.872973
3753.000000	0.872637
3752.000000	0.872307
3751.000000	0.872080
3750.000000	0.872014
3749.000000	0.872087
3748.000000	0.872194
3747.000000	0.872210
3746.000000	0.872089
3745.000000	0.871919
3744.000000	0.871865
3743.000000	0.872034
3742.000000	0.872376
3741.000000	0.872720
3740.000000	0.872907
3739.000000	0.872889
3738.000000	0.872724
3737.000000	0.872515
3736.000000	0.872339
3735.000000	0.872231
3734.000000	0.872192
3733.000000	0.872219
3732.000000	0.872313
3731.000000	0.872469
3730.000000	0.872655
3729.000000	0.872807
3728.000000	0.872872
3727.000000	0.872850
3726.000000	0.872798
3725.000000	0.872773
3724.000000	0.872789
3723.000000	0.872816
3722.000000	0.872827
3721.000000	0.872823
3720.000000	0.872823
3719.000000	0.872842
3718.000000	0.872873
3717.000000	0.872897
3716.000000	0.872889
3715.000000	0.872824
3714.000000	0.872694
3713.000000	0.872525
3712.000000	0.872378
3711.000000	0.872322
3710.000000	0.872385
3709.000000	0.872540
3708.000000	0.872724
3707.000000	0.872882
3706.000000	0.872981
3705.000000	0.873018
3704.000000	0.873010
3703.000000	0.872994
3702.000000	0.873007
3701.000000	0.873066
3700.000000	0.873159
3699.000000	0.873255
3698.000000	0.873331
3697.000000	0.873386
3696.000000	0.873427
3695.000000	0.873451
3694.000000	0.873443
3693.000000	0.873382
3692.000000	0.873257
3691.000000	0.873082
3690.000000	0.872903
3689.000000	0.872792
3688.000000	0.872822
3687.000000	0.873013
3686.000000	0.873308
3685.000000	0.873602
3684.000000	0.873809
3683.000000	0.873910
3682.000000	0.873945
3681.000000	0.873950
3680.000000	0.873928
3679.000000	0.873850
3678.000000	0.873695
3677.000000	0.873497
3676.000000	0.873341
3675.000000	0.873310
3674.000000	0.873415
3673.000000	0.873578
3672.000000	0.873705
3671.000000	0.873768
3670.000000	0.873833
3669.000000	0.873983
3668.000000	0.874238
3667.000000	0.874539
3666.000000	0.874802
3665.000000	0.874983
3664.000000	0.875087
3663.000000	0.875150
3662.000000	0.875210
3661.000000	0.875277
3660.000000	0.875335
3659.000000	0.875360
3658.000000	0.875349
3657.000000	0.875338
3656.000000	0.875375
3655.000000	0.875475
3654.000000	0.875594
3653.000000	0.875663
3652.000000	0.875640
3651.000000	0.875546
3650.000000	0.875455
3649.000000	0.875452
3648.000000	0.875587
3647.000000	0.875850
3646.000000	0.876182
3645.000000	0.876511
3644.000000	0.876781
3643.000000	0.876977
3642.000000	0.877114
3641.000000	0.877215
3640.000000	0.877296
3639.000000	0.877372
3638.000000	0.877457
3637.000000	0.877557
3636.000000	0.877667
3635.000000	0.877772
3634.000000	0.877851
3633.000000	0.877883
3632.000000	0.877846
3631.000000	0.877740
3630.000000	0.877613
3629.000000	0.877561
3628.000000	0.877671
3627.000000	0.877949
3626.000000	0.878311
3625.000000	0.878642
3624.000000	0.878867
3623.000000	0.878975
3622.000000	0.879001
3621.000000	0.878995
3620.000000	0.879010
3619.000000	0.879089
3618.000000	0.879241
3617.000000	0.879429
3616.000000	0.879593
3615.000000	0.879700
3614.000000	0.879764
3613.000000	0.879823
3612.000000	0.879895
3611.000000	0.879970
3610.000000	0.880037
3609.000000	0.880110
3608.000000	0.880222
3607.000000	0.880393
3606.000000	0.880605
3605.000000	0.880816
3604.000000	0.880988
3603.000000	0.881111
3602.000000	0.881197
3601.000000	0.881264
3600.000000	0.881324
3599.000000	0.881382
3598.000000	0.881441
3597.000000	0.881502
3596.000000	0.881567
3595.000000	0.881636
3594.000000	0.881710
3593.000000	0.881783
3592.000000	0.881840
3591.000000	0.881863
3590.000000	0.881849
3589.000000	0.881823
3588.000000	0.881832
3587.000000	0.881907
3586.000000	0.882043
3585.000000	0.882202
3584.000000	0.882343
3583.000000	0.882447
3582.000000	0.882518
3581.000000	0.882572
3580.000000	0.882622
3579.000000	0.882672
3578.000000	0.882717
3577.000000	0.882749
3576.000000	0.882769
3575.000000	0.882787
3574.000000	0.882815
3573.000000	0.882855
3572.000000	0.882886
3571.000000	0.882886
3570.000000	0.882842
3569.000000	0.882763
3568.000000	0.882685
3567.000000	0.882648
3566.000000	0.882675
3565.000000	0.882757
3564.000000	0.882861
3563.000000	0.882957
3562.000000	0.883031
3561.000000	0.883082
3560.000000	0.883115
3559.000000	0.883136
3558.000000	0.883154
3557.000000	0.883177
3556.000000	0.883204
3555.000000	0.883223
3554.000000	0.883220
3553.000000	0.883193
3552.000000	0.883160
3551.000000	0.883147
3550.000000	0.883166
3549.000000	0.883206
3548.000000	0.883238
3547.000000	0.883244
3546.000000	0.883236
3545.000000	0.883234
3544.000000	0.883253
3543.000000	0.883284
3542.000000	0.883311
3541.000000	0.883329
3540.000000	0.883340
3539.000000	0.883352
3538.000000	0.883366
3537.000000	0.883380
3536.000000	0.883394
3535.000000	0.883414
3534.000000	0.883447
3533.000000	0.883490
3532.000000	0.883529
3531.000000	0.883551
3530.000000	0.883549
3529.000000	0.883532
3528.000000	0.883519
3527.000000	0.883524
3526.000000	0.883554
3525.000000	0.883602
3524.000000	0.883653
3523.000000	0.883699
3522.000000	0.883736
3521.000000	0.883767
3520.000000	0.883800
3519.000000	0.883841
3518.000000	0.883894
3517.000000	0.883957
3516.000000	0.884017
3515.000000	0.884063
3514.000000	0.884091
3513.000000	0.884109
3512.000000	0.884133
3511.000000	0.884174
3510.000000	0.884235
3509.000000	0.884304
3508.000000	0.884364
3507.000000	0.884415
3506.000000	0.884465
3505.000000	0.884527
3504.000000	0.884604
3503.000000	0.884693
3502.000000	0.884792
3501.000000	0.884889
3500.000000	0.884972
3499.000000	0.885029
3498.000000	0.885068
3497.000000	0.885108
3496.000000	0.885169
3495.000000	0.885253
3494.000000	0.885351
3493.000000	0.885445
3492.000000	0.885525
3491.000000	0.885586
3490.000000	0.885636
3489.000000	0.885688
3488.000000	0.885759
3487.000000	0.885855
3486.000000	0.885971
3485.000000	0.886093
3484.000000	0.886202
3483.000000	0.886290
3482.000000	0.886363
3481.000000	0.886436
3480.000000	0.886516
3479.000000	0.886602
3478.000000	0.886686
3477.000000	0.886768
3476.000000	0.886853
3475.000000	0.886949
3474.000000	0.887057
3473.000000	0.887169
3472.000000	0.887277
3471.000000	0.887379
3470.000000	0.887480
3469.000000	0.887588
3468.000000	0.887707
3467.000000	0.887829
3466.000000	0.887941
3465.000000	0.888033
3464.000000	0.888111
3463.000000	0.888193
3462.000000	0.888295
3461.000000	0.888418
3460.000000	0.888549
3459.000000	0.888669
3458.000000	0.888774
3457.000000	0.888876
3456.000000	0.888995
3455.000000	0.889136
3454.000000	0.889286
3453.000000	0.889419
3452.000000	0.889518
3451.000000	0.889583
3450.000000	0.889636
3449.000000	0.889704
3448.000000	0.889801
3447.000000	0.889914
3446.000000	0.890020
3445.000000	0.890109
3444.000000	0.890193
3443.000000	0.890293
3442.000000	0.890415
3441.000000	0.890542
3440.000000	0.890658
3439.000000	0.890760
3438.000000	0.890856
3437.000000	0.890955
3436.000000	0.891060
3435.000000	0.891173
3434.000000	0.891291
3433.000000	0.891410
3432.000000	0.891517
3431.000000	0.891609
3430.000000	0.891689
3429.000000	0.891767
3428.000000	0.891848
3427.000000	0.891931
3426.000000	0.892015
3425.000000	0.892100
3424.000000	0.892186
3423.000000	0.892277
3422.000000	0.892375
3421.000000	0.892479
3420.000000	0.892582
3419.000000	0.892676
3418.000000	0.892756
3417.000000	0.892822
3416.000000	0.892880
3415.000000	0.892933
3414.000000	0.892987
3413.000000	0.893044
3412.000000	0.893109
3411.000000	0.893183
3410.000000	0.893263
3409.000000	0.893340
3408.000000	0.893412
3407.000000	0.893481
3406.000000	0.893546
3405.000000	0.893604
3404.000000	0.893647
3403.000000	0.893680
3402.000000	0.893711
3401.000000	0.893748
3400.000000	0.893790
3399.000000	0.893833
3398.000000	0.893880
3397.000000	0.893935
3396.000000	0.893993
3395.000000	0.894040
3394.000000	0.894063
3393.000000	0.894071
3392.000000	0.894086
3391.000000	0.894129
3390.000000	0.894195
3389.000000	0.894259
3388.000000	0.894297
3387.000000	0.894302
3386.000000	0.894291
3385.000000	0.894284
3384.000000	0.894296
3383.000000	0.894327
3382.000000	0.894364
3381.000000	0.894394
3380.000000	0.894410
3379.000000	0.894420
3378.000000	0.894439
3377.000000	0.894472
3376.000000	0.894512
3375.000000	0.894546
3374.000000	0.894569
3373.000000	0.894578
3372.000000	0.894572
3371.000000	0.894554
3370.000000	0.894538
3369.000000	0.894540
3368.000000	0.894563
3367.000000	0.894589
3366.000000	0.894603
3365.000000	0.894608
3364.000000	0.894614
3363.000000	0.894628
3362.000000	0.894648
3361.000000	0.894670
3360.000000	0.894696
3359.000000	0.894724
3358.000000	0.894746
3357.000000	0.894753
3356.000000	0.894744
3355.000000	0.894733
3354.000000	0.894730
3353.000000	0.894735
3352.000000	0.894736
3351.000000	0.894728
3350.000000	0.894720
3349.000000	0.894722
3348.000000	0.894732
3347.000000	0.894743
3346.000000	0.894745
3345.000000	0.894736
3344.000000	0.894720
3343.000000	0.894701
3342.000000	0.894690
3341.000000	0.894696
3340.000000	0.894720
3339.000000	0.894751
3338.000000	0.894777
3337.000000	0.894795
3336.000000	0.894807
3335.000000	0.894813
3334.000000	0.894807
3333.000000	0.894792
3332.000000	0.894776
3331.000000	0.894769
3330.000000	0.894769
3329.000000	0.894767
3328.000000	0.894755
3327.000000	0.894738
3326.000000	0.894726
3325.000000	0.894728
3324.000000	0.894747
3323.000000	0.894784
3322.000000	0.894837
3321.000000	0.894897
3320.000000	0.894943
3319.000000	0.894962
3318.000000	0.894957
3317.000000	0.894944
3316.000000	0.894938
3315.000000	0.894945
3314.000000	0.894958
3313.000000	0.894971
3312.000000	0.894978
3311.000000	0.894980
3310.000000	0.894982
3309.000000	0.894985
3308.000000	0.894988
3307.000000	0.894992
3306.000000	0.895003
3305.000000	0.895025
3304.000000	0.895057
3303.000000	0.895090
3302.000000	0.895116
3301.000000	0.895131
3300.000000	0.895137
3299.000000	0.895143
3298.000000	0.895150
3297.000000	0.895157
3296.000000	0.895157
3295.000000	0.895153
3294.000000	0.895149
3293.000000	0.895150
3292.000000	0.895153
3291.000000	0.895158
3290.000000	0.895167
3289.000000	0.895187
3288.000000	0.895218
3287.000000	0.895254
3286.000000	0.895288
3285.000000	0.895315
3284.000000	0.895333
3283.000000	0.895343
3282.000000	0.895344
3281.000000	0.895337
3280.000000	0.895324
3279.000000	0.895312
3278.000000	0.895310
3277.000000	0.895326
3276.000000	0.895355
3275.000000	0.895390
3274.000000	0.895425
3273.000000	0.895457
3272.000000	0.895483
3271.000000	0.895501
3270.000000	0.895516
3269.000000	0.895544
3268.000000	0.895591
3267.000000	0.895646
3266.000000	0.895690
3265.000000	0.895715
3264.000000	0.895729
3263.000000	0.895746
3262.000000	0.895767
3261.000000	0.895784
3260.000000	0.895790
3259.000000	0.895789
3258.000000	0.895794
3257.000000	0.895811
3256.000000	0.895840
3255.000000	0.895872
3254.000000	0.895901
3253.000000	0.895923
3252.000000	0.895938
3251.000000	0.895949
3250.000000	0.895957
3249.000000	0.895963
3248.000000	0.895971
3247.000000	0.895986
3246.000000	0.896015
3245.000000	0.896055
3244.000000	0.896094
3243.000000	0.896117
3242.000000	0.896119
3241.000000	0.896109
3240.000000	0.896100
3239.000000	0.896097
3238.000000	0.896101
3237.000000	0.896106
3236.000000	0.896114
3235.000000	0.896129
3234.000000	0.896153
3233.000000	0.896179
3232.000000	0.896196
3231.000000	0.896197
3230.000000	0.896190
3229.000000	0.896189
3228.000000	0.896201
3227.000000	0.896225
3226.000000	0.896255
3225.000000	0.896281
3224.000000	0.896295
3223.000000	0.896295
3222.000000	0.896287
3221.000000	0.896282
3220.000000	0.896288
3219.000000	0.896305
3218.000000	0.896330
3217.000000	0.896362
3216.000000	0.896396
3215.000000	0.896426
3214.000000	0.896445
3213.000000	0.896451
3212.000000	0.896449
3211.000000	0.896443
3210.000000	0.896437
3209.000000	0.896429
3208.000000	0.896421
3207.000000	0.896415
3206.000000	0.896408
3205.000000	0.896399
3204.000000	0.896389
3203.000000	0.896381
3202.000000	0.896383
3201.000000	0.896395
3200.000000	0.896409
3199.000000	0.896414
3198.000000	0.896405
3197.000000	0.896390
3196.000000	0.896383
3195.000000	0.896393
3194.000000	0.896415
3193.000000	0.896438
3192.000000	0.896455
3191.000000	0.896466
3190.000000	0.896466
3189.000000	0.896449
3188.000000	0.896414
3187.000000	0.896376
3186.000000	0.896355
3185.000000	0.896361
3184.000000	0.896381
3183.000000	0.896400
3182.000000	0.896410
3181.000000	0.896413
3180.000000	0.896409
3179.000000	0.896399
3178.000000	0.896389
3177.000000	0.896388
3176.000000	0.896399
3175.000000	0.896415
3174.000000	0.896430
3173.000000	0.896443
3172.000000	0.896457
3171.000000	0.896470
3170.000000	0.896473
3169.000000	0.896464
3168.000000	0.896446
3167.000000	0.896432
3166.000000	0.896427
3165.000000	0.896433
3164.000000	0.896447
3163.000000	0.896464
3162.000000	0.896473
3161.000000	0.896472
3160.000000	0.896468
3159.000000	0.896472
3158.000000	0.896487
3157.000000	0.896499
3156.000000	0.896498
3155.000000	0.896486
3154.000000	0.896476
3153.000000	0.896479
3152.000000	0.896493
3151.000000	0.896511
3150.000000	0.896528
3149.000000	0.896541
3148.000000	0.896551
3147.000000	0.896559
3146.000000	0.896569
3145.000000	0.896582
3144.000000	0.896595
3143.000000	0.896606
3142.000000	0.896617
3141.000000	0.896629
3140.000000	0.896645
3139.000000	0.896665
3138.000000	0.896686
3137.000000	0.896705
3136.000000	0.896717
3135.000000	0.896724
3134.000000	0.896729
3133.000000	0.896737
3132.000000	0.896750
3131.000000	0.896766
3130.000000	0.896783
3129.000000	0.896797
3128.000000	0.896807
3127.000000	0.896816
3126.000000	0.896823
3125.000000	0.896826
3124.000000	0.896821
3123.000000	0.896810
3122.000000	0.896799
3121.000000	0.896795
3120.000000	0.896795
3119.000000	0.896796
3118.000000	0.896795
3117.000000	0.896797
3116.000000	0.896806
3115.000000	0.896825
3114.000000	0.896848
3113.000000	0.896865
3112.000000	0.896870
3111.000000	0.896862
3110.000000	0.896851
3109.000000	0.896843
3108.000000	0.896840
3107.000000	0.896840
3106.000000	0.896841
3105.000000	0.896840
3104.000000	0.896833
3103.000000	0.896822
3102.000000	0.896813
3101.000000	0.896809
3100.000000	0.896813
3099.000000	0.896822
3098.000000	0.896833
3097.000000	0.896839
3096.000000	0.896832
3095.000000	0.896810
3094.000000	0.896782
3093.000000	0.896761
3092.000000	0.896752
3091.000000	0.896748
3090.000000	0.896737
3089.000000	0.896719
3088.000000	0.896704
3087.000000	0.896702
3086.000000	0.896713
3085.000000	0.896717
3084.000000	0.896700
3083.000000	0.896665
3082.000000	0.896634
3081.000000	0.896623
3080.000000	0.896627
3079.000000	0.896634
3078.000000	0.896633
3077.000000	0.896630
3076.000000	0.896629
3075.000000	0.896627
3074.000000	0.896615
3073.000000	0.896590
3072.000000	0.896564
3071.000000	0.896547
3070.000000	0.896540
3069.000000	0.896531
3068.000000	0.896508
3067.000000	0.896474
3066.000000	0.896436
3065.000000	0.896403
3064.000000	0.896379
3063.000000	0.896364
3062.000000	0.896351
3061.000000	0.896329
3060.000000	0.896294
3059.000000	0.896254
3058.000000	0.896227
3057.000000	0.896221
3056.000000	0.896227
3055.000000	0.896226
3054.000000	0.896211
3053.000000	0.896181
3052.000000	0.896140
3051.000000	0.896097
3050.000000	0.896061
3049.000000	0.896042
3048.000000	0.896039
3047.000000	0.896042
3046.000000	0.896042
3045.000000	0.896032
3044.000000	0.896012
3043.000000	0.895986
3042.000000	0.895957
3041.000000	0.895927
3040.000000	0.895890
3039.000000	0.895845
3038.000000	0.895798
3037.000000	0.895764
3036.000000	0.895752
3035.000000	0.895760
3034.000000	0.895774
3033.000000	0.895779
3032.000000	0.895773
3031.000000	0.895760
3030.000000	0.895752
3029.000000	0.895749
3028.000000	0.895745
3027.000000	0.895738
3026.000000	0.895732
3025.000000	0.895729
3024.000000	0.895726
3023.000000	0.895721
3022.000000	0.895710
3021.000000	0.895685
3020.000000	0.895636
3019.000000	0.895559
3018.000000	0.895474
3017.000000	0.895405
3016.000000	0.895365
3015.000000	0.895346
3014.000000	0.895334
3013.000000	0.895320
3012.000000	0.895302
3011.000000	0.895282
3010.000000	0.895261
3009.000000	0.895241
3008.000000	0.895221
3007.000000	0.895207
3006.000000	0.895205
3005.000000	0.895218
3004.000000	0.895238
3003.000000	0.895250
3002.000000	0.895249
3001.000000	0.895238
3000.000000	0.895215
2999.000000	0.895177
2998.000000	0.895128
2997.000000	0.895081
2996.000000	0.895045
2995.000000	0.895017
2994.000000	0.894993
2993.000000	0.894977
2992.000000	0.894974
2991.000000	0.894972
2990.000000	0.894950
2989.000000	0.894902
2988.000000	0.894845
2987.000000	0.894803
2986.000000	0.894788
2985.000000	0.894788
2984.000000	0.894790
2983.000000	0.894784
2982.000000	0.894769
2981.000000	0.894746
2980.000000	0.894722
2979.000000	0.894710
2978.000000	0.894718
2977.000000	0.894739
2976.000000	0.894758
2975.000000	0.894765
2974.000000	0.894765
2973.000000	0.894767
2972.000000	0.894770
2971.000000	0.894765
2970.000000	0.894752
2969.000000	0.894738
2968.000000	0.894733
2967.000000	0.894729
2966.000000	0.894710
2965.000000	0.894666
2964.000000	0.894603
2963.000000	0.894534
2962.000000	0.894473
2961.000000	0.894424
2960.000000	0.894383
2959.000000	0.894340
2958.000000	0.894291
2957.000000	0.894244
2956.000000	0.894203
2955.000000	0.894170
2954.000000	0.894138
2953.000000	0.894106
2952.000000	0.894075
2951.000000	0.894046
2950.000000	0.894017
2949.000000	0.893988
2948.000000	0.893968
2947.000000	0.893961
2946.000000	0.893961
2945.000000	0.893958
2944.000000	0.893945
2943.000000	0.893926
2942.000000	0.893908
2941.000000	0.893890
2940.000000	0.893872
2939.000000	0.893858
2938.000000	0.893852
2937.000000	0.893845
2936.000000	0.893822
2935.000000	0.893783
2934.000000	0.893742
2933.000000	0.893715
2932.000000	0.893700
2931.000000	0.893683
2930.000000	0.893657
2929.000000	0.893631
2928.000000	0.893609
2927.000000	0.893586
2926.000000	0.893546
2925.000000	0.893483
2924.000000	0.893405
2923.000000	0.893324
2922.000000	0.893249
2921.000000	0.893184
2920.000000	0.893136
2919.000000	0.893104
2918.000000	0.893082
2917.000000	0.893057
2916.000000	0.893023
2915.000000	0.892986
2914.000000	0.892959
2913.000000	0.892950
2912.000000	0.892950
2911.000000	0.892946
2910.000000	0.892927
2909.000000	0.892896
2908.000000	0.892863
2907.000000	0.892837
2906.000000	0.892814
2905.000000	0.892789
2904.000000	0.892757
2903.000000	0.892720
2902.000000	0.892682
2901.000000	0.892646
2900.000000	0.892613
2899.000000	0.892584
2898.000000	0.892550
2897.000000	0.892505
2896.000000	0.892451
2895.000000	0.892403
2894.000000	0.892375
2893.000000	0.892362
2892.000000	0.892344
2891.000000	0.892311
2890.000000	0.892272
2889.000000	0.892242
2888.000000	0.892223
2887.000000	0.892203
2886.000000	0.892171
2885.000000	0.892122
2884.000000	0.892061
2883.000000	0.891998
2882.000000	0.891942
2881.000000	0.891897
2880.000000	0.891863
2879.000000	0.891839
2878.000000	0.891821
2877.000000	0.891801
2876.000000	0.891775
2875.000000	0.891741
2874.000000	0.891709
2873.000000	0.891683
2872.000000	0.891655
2871.000000	0.891618
2870.000000	0.891573
2869.000000	0.891536
2868.000000	0.891516
2867.000000	0.891506
2866.000000	0.891482
2865.000000	0.891428
2864.000000	0.891349
2863.000000	0.891259
2862.000000	0.891173
2861.000000	0.891098
2860.000000	0.891032
2859.000000	0.890974
2858.000000	0.890928
2857.000000	0.890893
2856.000000	0.890859
2855.000000	0.890817
2854.000000	0.890767
2853.000000	0.890723
2852.000000	0.890695
2851.000000	0.890675
2850.000000	0.890644
2849.000000	0.890589
2848.000000	0.890525
2847.000000	0.890476
2846.000000	0.890457
2845.000000	0.890461
2844.000000	0.890468
2843.000000	0.890464
2842.000000	0.890445
2841.000000	0.890411
2840.000000	0.890363
2839.000000	0.890311
2838.000000	0.890268
2837.000000	0.890241
2836.000000	0.890222
2835.000000	0.890200
2834.000000	0.890172
2833.000000	0.890144
2832.000000	0.890125
2831.000000	0.890115
2830.000000	0.890107
2829.000000	0.890093
2828.000000	0.890067
2827.000000	0.890032
2826.000000	0.889995
2825.000000	0.889961
2824.000000	0.889931
2823.000000	0.889900
2822.000000	0.889867
2821.000000	0.889827
2820.000000	0.889780
2819.000000	0.889727
2818.000000	0.889676
2817.000000	0.889635
2816.000000	0.889609
2815.000000	0.889594
2814.000000	0.889582
2813.000000	0.889563
2812.000000	0.889532
2811.000000	0.889494
2810.000000	0.889456
2809.000000	0.889422
2808.000000	0.889390
2807.000000	0.889356
2806.000000	0.889322
2805.000000	0.889288
2804.000000	0.889251
2803.000000	0.889209
2802.000000	0.889165
2801.000000	0.889124
2800.000000	0.889089
2799.000000	0.889060
2798.000000	0.889039
2797.000000	0.889023
2796.000000	0.889005
2795.000000	0.888977
2794.000000	0.888943
2793.000000	0.888909
2792.000000	0.888883
2791.000000	0.888863
2790.000000	0.888843
2789.000000	0.888822
2788.000000	0.888798
2787.000000	0.888773
2786.000000	0.888746
2785.000000	0.888715
2784.000000	0.888679
2783.000000	0.888641
2782.000000	0.888608
2781.000000	0.888585
2780.000000	0.888571
2779.000000	0.888561
2778.000000	0.888545
2777.000000	0.888519
2776.000000	0.888485
2775.000000	0.888452
2774.000000	0.888429
2773.000000	0.888413
2772.000000	0.888392
2771.000000	0.888356
2770.000000	0.888310
2769.000000	0.888265
2768.000000	0.888232
2767.000000	0.888218
2766.000000	0.888220
2765.000000	0.888226
2764.000000	0.888223
2763.000000	0.888203
2762.000000	0.888174
2761.000000	0.888147
2760.000000	0.888125
2759.000000	0.888105
2758.000000	0.888088
2757.000000	0.888075
2756.000000	0.888062
2755.000000	0.888043
2754.000000	0.888019
2753.000000	0.888000
2752.000000	0.887993
2751.000000	0.887996
2750.000000	0.887997
2749.000000	0.887990
2748.000000	0.887973
2747.000000	0.887951
2746.000000	0.887933
2745.000000	0.887922
2744.000000	0.887913
2743.000000	0.887901
2742.000000	0.887887
2741.000000	0.887873
2740.000000	0.887863
2739.000000	0.887859
2738.000000	0.887858
2737.000000	0.887856
2736.000000	0.887849
2735.000000	0.887837
2734.000000	0.887827
2733.000000	0.887822
2732.000000	0.887819
2731.000000	0.887810
2730.000000	0.887791
2729.000000	0.887771
2728.000000	0.887757
2727.000000	0.887754
2726.000000	0.887755
2725.000000	0.887750
2724.000000	0.887727
2723.000000	0.887692
2722.000000	0.887660
2721.000000	0.887644
2720.000000	0.887642
2719.000000	0.887641
2718.000000	0.887632
2717.000000	0.887616
2716.000000	0.887598
2715.000000	0.887584
2714.000000	0.887580
2713.000000	0.887587
2712.000000	0.887598
2711.000000	0.887601
2710.000000	0.887594
2709.000000	0.887584
2708.000000	0.887581
2707.000000	0.887579
2706.000000	0.887569
2705.000000	0.887545
2704.000000	0.887516
2703.000000	0.887498
2702.000000	0.887494
2701.000000	0.887497
2700.000000	0.887502
2699.000000	0.887507
2698.000000	0.887517
2697.000000	0.887529
2696.000000	0.887537
2695.000000	0.887542
2694.000000	0.887553
2693.000000	0.887570
2692.000000	0.887582
2691.000000	0.887578
2690.000000	0.887565
2689.000000	0.887558
2688.000000	0.887563
2687.000000	0.887566
2686.000000	0.887558
2685.000000	0.887541
2684.000000	0.887528
2683.000000	0.887524
2682.000000	0.887527
2681.000000	0.887534
2680.000000	0.887543
2679.000000	0.887558
2678.000000	0.887579
2677.000000	0.887604
2676.000000	0.887625
2675.000000	0.887639
2674.000000	0.887647
2673.000000	0.887649
2672.000000	0.887644
2671.000000	0.887632
2670.000000	0.887614
2669.000000	0.887597
2668.000000	0.887587
2667.000000	0.887585
2666.000000	0.887591
2665.000000	0.887601
2664.000000	0.887608
2663.000000	0.887606
2662.000000	0.887595
2661.000000	0.887580
2660.000000	0.887568
2659.000000	0.887566
2658.000000	0.887579
2657.000000	0.887606
2656.000000	0.887640
2655.000000	0.887676
2654.000000	0.887713
2653.000000	0.887748
2652.000000	0.887771
2651.000000	0.887776
2650.000000	0.887768
2649.000000	0.887765
2648.000000	0.887778
2647.000000	0.887803
2646.000000	0.887827
2645.000000	0.887841
2644.000000	0.887844
2643.000000	0.887845
2642.000000	0.887851
2641.000000	0.887868
2640.000000	0.887892
2639.000000	0.887920
2638.000000	0.887945
2637.000000	0.887965
2636.000000	0.887976
2635.000000	0.887977
2634.000000	0.887974
2633.000000	0.887975
2632.000000	0.887977
2631.000000	0.887972
2630.000000	0.887961
2629.000000	0.887951
2628.000000	0.887952
2627.000000	0.887961
2626.000000	0.887973
2625.000000	0.887989
2624.000000	0.888011
2623.000000	0.888034
2622.000000	0.888056
2621.000000	0.888070
2620.000000	0.888074
2619.000000	0.888069
2618.000000	0.888061
2617.000000	0.888058
2616.000000	0.888060
2615.000000	0.888069
2614.000000	0.888085
2613.000000	0.888113
2612.000000	0.888144
2611.000000	0.888163
2610.000000	0.888163
2609.000000	0.888154
2608.000000	0.888152
2607.000000	0.888163
2606.000000	0.888178
2605.000000	0.888189
2604.000000	0.888195
2603.000000	0.888202
2602.000000	0.888221
2601.000000	0.888249
2600.000000	0.888270
2599.000000	0.888271
2598.000000	0.888259
2597.000000	0.888258
2596.000000	0.888283
2595.000000	0.888324
2594.000000	0.888356
2593.000000	0.888368
2592.000000	0.888367
2591.000000	0.888364
2590.000000	0.888364
2589.000000	0.888363
2588.000000	0.888358
2587.000000	0.888348
2586.000000	0.888341
2585.000000	0.888344
2584.000000	0.888365
2583.000000	0.888396
2582.000000	0.888425
2581.000000	0.888445
2580.000000	0.888457
2579.000000	0.888469
2578.000000	0.888482
2577.000000	0.888494
2576.000000	0.888504
2575.000000	0.888510
2574.000000	0.888516
2573.000000	0.888523
2572.000000	0.888528
2571.000000	0.888528
2570.000000	0.888521
2569.000000	0.888513
2568.000000	0.888513
2567.000000	0.888521
2566.000000	0.888532
2565.000000	0.888542
2564.000000	0.888553
2563.000000	0.888566
2562.000000	0.888581
2561.000000	0.888595
2560.000000	0.888610
2559.000000	0.888630
2558.000000	0.888654
2557.000000	0.888679
2556.000000	0.888697
2555.000000	0.888708
2554.000000	0.888716
2553.000000	0.888728
2552.000000	0.888742
2551.000000	0.888749
2550.000000	0.888743
2549.000000	0.888733
2548.000000	0.888736
2547.000000	0.888761
2546.000000	0.888798
2545.000000	0.888831
2544.000000	0.888853
2543.000000	0.888864
2542.000000	0.888865
2541.000000	0.888860
2540.000000	0.888852
2539.000000	0.888847
2538.000000	0.888847
2537.000000	0.888850
2536.000000	0.888856
2535.000000	0.888865
2534.000000	0.888876
2533.000000	0.888883
2532.000000	0.888883
2531.000000	0.888877
2530.000000	0.888873
2529.000000	0.888873
2528.000000	0.888874
2527.000000	0.888873
2526.000000	0.888877
2525.000000	0.888892
2524.000000	0.888916
2523.000000	0.888936
2522.000000	0.888942
2521.000000	0.888933
2520.000000	0.888923
2519.000000	0.888928
2518.000000	0.888951
2517.000000	0.888979
2516.000000	0.889002
2515.000000	0.889017
2514.000000	0.889028
2513.000000	0.889039
2512.000000	0.889045
2511.000000	0.889046
2510.000000	0.889049
2509.000000	0.889059
2508.000000	0.889078
2507.000000	0.889100
2506.000000	0.889119
2505.000000	0.889132
2504.000000	0.889143
2503.000000	0.889151
2502.000000	0.889156
2501.000000	0.889155
2500.000000	0.889152
2499.000000	0.889156
2498.000000	0.889179
2497.000000	0.889217
2496.000000	0.889256
2495.000000	0.889282
2494.000000	0.889293
2493.000000	0.889293
2492.000000	0.889287
2491.000000	0.889283
2490.000000	0.889287
2489.000000	0.889304
2488.000000	0.889328
2487.000000	0.889347
2486.000000	0.889354
2485.000000	0.889354
2484.000000	0.889355
2483.000000	0.889368
2482.000000	0.889393
2481.000000	0.889425
2480.000000	0.889456
2479.000000	0.889479
2478.000000	0.889495
2477.000000	0.889511
2476.000000	0.889533
2475.000000	0.889566
2474.000000	0.889603
2473.000000	0.889630
2472.000000	0.889641
2471.000000	0.889645
2470.000000	0.889660
2469.000000	0.889693
2468.000000	0.889730
2467.000000	0.889756
2466.000000	0.889769
2465.000000	0.889778
2464.000000	0.889786
2463.000000	0.889797
2462.000000	0.889814
2461.000000	0.889845
2460.000000	0.889887
2459.000000	0.889924
2458.000000	0.889949
2457.000000	0.889962
2456.000000	0.889972
2455.000000	0.889981
2454.000000	0.889990
2453.000000	0.890000
2452.000000	0.890013
2451.000000	0.890032
2450.000000	0.890060
2449.000000	0.890096
2448.000000	0.890133
2447.000000	0.890159
2446.000000	0.890170
2445.000000	0.890177
2444.000000	0.890197
2443.000000	0.890235
2442.000000	0.890283
2441.000000	0.890324
2440.000000	0.890352
2439.000000	0.890372
2438.000000	0.890391
2437.000000	0.890414
2436.000000	0.890442
2435.000000	0.890471
2434.000000	0.890492
2433.000000	0.890501
2432.000000	0.890498
2431.000000	0.890494
2430.000000	0.890494
2429.000000	0.890497
2428.000000	0.890501
2427.000000	0.890507
2426.000000	0.890515
2425.000000	0.890523
2424.000000	0.890518
2423.000000	0.890497
2422.000000	0.890466
2421.000000	0.890436
2420.000000	0.890407
2419.000000	0.890377
2418.000000	0.890344
2417.000000	0.890308
2416.000000	0.890263
2415.000000	0.890205
2414.000000	0.890137
2413.000000	0.890074
2412.000000	0.890029
2411.000000	0.890006
2410.000000	0.889995
2409.000000	0.889980
2408.000000	0.889949
2407.000000	0.889908
2406.000000	0.889880
2405.000000	0.889874
2404.000000	0.889877
2403.000000	0.889862
2402.000000	0.889820
2401.000000	0.889769
2400.000000	0.889733
2399.000000	0.889719
2398.000000	0.889720
2397.000000	0.889728
2396.000000	0.889732
2395.000000	0.889729
2394.000000	0.889721
2393.000000	0.889715
2392.000000	0.889711
2391.000000	0.889705
2390.000000	0.889688
2389.000000	0.889659
2388.000000	0.889619
2387.000000	0.889574
2386.000000	0.889528
2385.000000	0.889488
2384.000000	0.889450
2383.000000	0.889406
2382.000000	0.889345
2381.000000	0.889269
2380.000000	0.889187
2379.000000	0.889100
2378.000000	0.888996
2377.000000	0.888860
2376.000000	0.888682
2375.000000	0.888464
2374.000000	0.888213
2373.000000	0.887941
2372.000000	0.887660
2371.000000	0.887379
2370.000000	0.887103
2369.000000	0.886831
2368.000000	0.886560
2367.000000	0.886297
2366.000000	0.886060
2365.000000	0.885867
2364.000000	0.885726
2363.000000	0.885635
2362.000000	0.885589
2361.000000	0.885588
2360.000000	0.885636
2359.000000	0.885737
2358.000000	0.885892
2357.000000	0.886106
2356.000000	0.886388
2355.000000	0.886733
2354.000000	0.887125
2353.000000	0.887535
2352.000000	0.887934
2351.000000	0.888286
2350.000000	0.888535
2349.000000	0.888632
2348.000000	0.888564
2347.000000	0.888378
2346.000000	0.888156
2345.000000	0.887966
2344.000000	0.887832
2343.000000	0.887743
2342.000000	0.887671
2341.000000	0.887586
2340.000000	0.887470
2339.000000	0.887330
2338.000000	0.887189
2337.000000	0.887071
2336.000000	0.886983
2335.000000	0.886924
2334.000000	0.886893
2333.000000	0.886897
2332.000000	0.886938
2331.000000	0.887009
2330.000000	0.887107
2329.000000	0.887225
2328.000000	0.887352
2327.000000	0.887481
2326.000000	0.887612
2325.000000	0.887753
2324.000000	0.887902
2323.000000	0.888043
2322.000000	0.888164
2321.000000	0.888266
2320.000000	0.888366
2319.000000	0.888478
2318.000000	0.888606
2317.000000	0.888741
2316.000000	0.888865
2315.000000	0.888972
2314.000000	0.889067
2313.000000	0.889162
2312.000000	0.889255
2311.000000	0.889335
2310.000000	0.889393
2309.000000	0.889431
2308.000000	0.889459
2307.000000	0.889485
2306.000000	0.889513
2305.000000	0.889545
2304.000000	0.889585
2303.000000	0.889628
2302.000000	0.889671
2301.000000	0.889705
2300.000000	0.889724
2299.000000	0.889725
2298.000000	0.889711
2297.000000	0.889694
2296.000000	0.889688
2295.000000	0.889699
2294.000000	0.889723
2293.000000	0.889747
2292.000000	0.889765
2291.000000	0.889784
2290.000000	0.889818
2289.000000	0.889868
2288.000000	0.889917
2287.000000	0.889946
2286.000000	0.889949
2285.000000	0.889939
2284.000000	0.889935
2283.000000	0.889942
2282.000000	0.889953
2281.000000	0.889958
2280.000000	0.889959
2279.000000	0.889968
2278.000000	0.889992
2277.000000	0.890019
2276.000000	0.890031
2275.000000	0.890021
2274.000000	0.890003
2273.000000	0.889996
2272.000000	0.890003
2271.000000	0.890012
2270.000000	0.890012
2269.000000	0.890004
2268.000000	0.889995
2267.000000	0.889993
2266.000000	0.889998
2265.000000	0.890012
2264.000000	0.890032
2263.000000	0.890045
2262.000000	0.890042
2261.000000	0.890023
2260.000000	0.890001
2259.000000	0.889991
2258.000000	0.890001
2257.000000	0.890021
2256.000000	0.890034
2255.000000	0.890034
2254.000000	0.890027
2253.000000	0.890020
2252.000000	0.890017
2251.000000	0.890016
2250.000000	0.890017
2249.000000	0.890020
2248.000000	0.890028
2247.000000	0.890043
2246.000000	0.890060
2245.000000	0.890064
2244.000000	0.890043
2243.000000	0.890001
2242.000000	0.889961
2241.000000	0.889947
2240.000000	0.889963
2239.000000	0.889994
2238.000000	0.890026
2237.000000	0.890051
2236.000000	0.890066
2235.000000	0.890067
2234.000000	0.890061
2233.000000	0.890054
2232.000000	0.890046
2231.000000	0.890031
2230.000000	0.890015
2229.000000	0.890004
2228.000000	0.890002
2227.000000	0.889997
2226.000000	0.889983
2225.000000	0.889965
2224.000000	0.889954
2223.000000	0.889955
2222.000000	0.889961
2221.000000	0.889960
2220.000000	0.889946
2219.000000	0.889922
2218.000000	0.889902
2217.000000	0.889893
2216.000000	0.889894
2215.000000	0.889898
2214.000000	0.889897
2213.000000	0.889892
2212.000000	0.889880
2211.000000	0.889864
2210.000000	0.889846
2209.000000	0.889831
2208.000000	0.889814
2207.000000	0.889791
2206.000000	0.889761
2205.000000	0.889734
2204.000000	0.889719
2203.000000	0.889712
2202.000000	0.889704
2201.000000	0.889695
2200.000000	0.889693
2199.000000	0.889698
2198.000000	0.889698
2197.000000	0.889679
2196.000000	0.889637
2195.000000	0.889578
2194.000000	0.889516
2193.000000	0.889466
2192.000000	0.889438
2191.000000	0.889430
2190.000000	0.889430
2189.000000	0.889423
2188.000000	0.889410
2187.000000	0.889399
2186.000000	0.889401
2185.000000	0.889410
2184.000000	0.889419
2183.000000	0.889429
2182.000000	0.889441
2181.000000	0.889447
2180.000000	0.889432
2179.000000	0.889391
2178.000000	0.889343
2177.000000	0.889316
2176.000000	0.889318
2175.000000	0.889322
2174.000000	0.889296
2173.000000	0.889233
2172.000000	0.889157
2171.000000	0.889097
2170.000000	0.889064
2169.000000	0.889042
2168.000000	0.889014
2167.000000	0.888981
2166.000000	0.888955
2165.000000	0.888937
2164.000000	0.888916
2163.000000	0.888886
2162.000000	0.888853
2161.000000	0.888824
2160.000000	0.888797
2159.000000	0.888771
2158.000000	0.888747
2157.000000	0.888729
2156.000000	0.888716
2155.000000	0.888701
2154.000000	0.888681
2153.000000	0.888651
2152.000000	0.888609
2151.000000	0.888557
2150.000000	0.888508
2149.000000	0.888479
2148.000000	0.888469
2147.000000	0.888464
2146.000000	0.888448
2145.000000	0.888413
2144.000000	0.888366
2143.000000	0.888323
2142.000000	0.888300
2141.000000	0.888295
2140.000000	0.888290
2139.000000	0.888274
2138.000000	0.888244
2137.000000	0.888206
2136.000000	0.888161
2135.000000	0.888113
2134.000000	0.888064
2133.000000	0.888019
2132.000000	0.887980
2131.000000	0.887954
2130.000000	0.887945
2129.000000	0.887936
2128.000000	0.887899
2127.000000	0.887827
2126.000000	0.887749
2125.000000	0.887698
2124.000000	0.887676
2123.000000	0.887659
2122.000000	0.887635
2121.000000	0.887614
2120.000000	0.887600
2119.000000	0.887584
2118.000000	0.887553
2117.000000	0.887509
2116.000000	0.887468
2115.000000	0.887438
2114.000000	0.887416
2113.000000	0.887392
2112.000000	0.887360
2111.000000	0.887317
2110.000000	0.887268
2109.000000	0.887218
2108.000000	0.887172
2107.000000	0.887143
2106.000000	0.887140
2105.000000	0.887154
2104.000000	0.887151
2103.000000	0.887103
2102.000000	0.887017
2101.000000	0.886926
2100.000000	0.886860
2099.000000	0.886825
2098.000000	0.886812
2097.000000	0.886806
2096.000000	0.886793
2095.000000	0.886764
2094.000000	0.886723
2093.000000	0.886684
2092.000000	0.886653
2091.000000	0.886621
2090.000000	0.886585
2089.000000	0.886553
2088.000000	0.886533
2087.000000	0.886520
2086.000000	0.886505
2085.000000	0.886480
2084.000000	0.886445
2083.000000	0.886404
2082.000000	0.886366
2081.000000	0.886334
2080.000000	0.886307
2079.000000	0.886276
2078.000000	0.886238
2077.000000	0.886191
2076.000000	0.886133
2075.000000	0.886066
2074.000000	0.885999
2073.000000	0.885939
2072.000000	0.885885
2071.000000	0.885837
2070.000000	0.885803
2069.000000	0.885791
2068.000000	0.885790
2067.000000	0.885776
2066.000000	0.885739
2065.000000	0.885694
2064.000000	0.885656
2063.000000	0.885631
2062.000000	0.885614
2061.000000	0.885599
2060.000000	0.885581
2059.000000	0.885554
2058.000000	0.885520
2057.000000	0.885484
2056.000000	0.885447
2055.000000	0.885404
2054.000000	0.885357
2053.000000	0.885312
2052.000000	0.885268
2051.000000	0.885216
2050.000000	0.885155
2049.000000	0.885096
2048.000000	0.885049
2047.000000	0.885014
2046.000000	0.884990
2045.000000	0.884978
2044.000000	0.884971
2043.000000	0.884953
2042.000000	0.884919
2041.000000	0.884881
2040.000000	0.884853
2039.000000	0.884832
2038.000000	0.884810
2037.000000	0.884785
2036.000000	0.884760
2035.000000	0.884734
2034.000000	0.884703
2033.000000	0.884666
2032.000000	0.884624
2031.000000	0.884578
2030.000000	0.884531
2029.000000	0.884485
2028.000000	0.884444
2027.000000	0.884408
2026.000000	0.884373
2025.000000	0.884341
2024.000000	0.884311
2023.000000	0.884281
2022.000000	0.884254
2021.000000	0.884231
2020.000000	0.884203
2019.000000	0.884159
2018.000000	0.884099
2017.000000	0.884041
2016.000000	0.884002
2015.000000	0.883980
2014.000000	0.883960
2013.000000	0.883934
2012.000000	0.883905
2011.000000	0.883880
2010.000000	0.883861
2009.000000	0.883847
2008.000000	0.883829
2007.000000	0.883800
2006.000000	0.883761
2005.000000	0.883718
2004.000000	0.883675
2003.000000	0.883634
2002.000000	0.883605
2001.000000	0.883597
2000.000000	0.883607
1999.000000	0.883616
1998.000000	0.883608
1997.000000	0.883586
1996.000000	0.883558
1995.000000	0.883517
1994.000000	0.883456
1993.000000	0.883385
1992.000000	0.883332
1991.000000	0.883314
1990.000000	0.883322
1989.000000	0.883333
1988.000000	0.883329
1987.000000	0.883302
1986.000000	0.883259
1985.000000	0.883212
1984.000000	0.883181
1983.000000	0.883173
1982.000000	0.883182
1981.000000	0.883195
1980.000000	0.883199
1979.000000	0.883190
1978.000000	0.883169
1977.000000	0.883140
1976.000000	0.883106
1975.000000	0.883069
1974.000000	0.883030
1973.000000	0.882998
1972.000000	0.882980
1971.000000	0.882974
1970.000000	0.882968
1969.000000	0.882956
1968.000000	0.882942
1967.000000	0.882932
1966.000000	0.882925
1965.000000	0.882915
1964.000000	0.882898
1963.000000	0.882880
1962.000000	0.882866
1961.000000	0.882850
1960.000000	0.882824
1959.000000	0.882788
1958.000000	0.882756
1957.000000	0.882743
1956.000000	0.882747
1955.000000	0.882756
1954.000000	0.882758
1953.000000	0.882747
1952.000000	0.882725
1951.000000	0.882701
1950.000000	0.882686
1949.000000	0.882678
1948.000000	0.882667
1947.000000	0.882646
1946.000000	0.882614
1945.000000	0.882578
1944.000000	0.882542
1943.000000	0.882514
1942.000000	0.882508
1941.000000	0.882527
1940.000000	0.882555
1939.000000	0.882572
1938.000000	0.882573
1937.000000	0.882566
1936.000000	0.882560
1935.000000	0.882551
1934.000000	0.882538
1933.000000	0.882525
1932.000000	0.882518
1931.000000	0.882516
1930.000000	0.882514
1929.000000	0.882510
1928.000000	0.882507
1927.000000	0.882502
1926.000000	0.882489
1925.000000	0.882461
1924.000000	0.882417
1923.000000	0.882374
1922.000000	0.882350
1921.000000	0.882339
1920.000000	0.882325
1919.000000	0.882303
1918.000000	0.882299
1917.000000	0.882335
1916.000000	0.882398
1915.000000	0.882450
1914.000000	0.882472
1913.000000	0.882475
1912.000000	0.882473
1911.000000	0.882471
1910.000000	0.882470
1909.000000	0.882475
1908.000000	0.882488
1907.000000	0.882503
1906.000000	0.882516
1905.000000	0.882522
1904.000000	0.882517
1903.000000	0.882500
1902.000000	0.882483
1901.000000	0.882480
1900.000000	0.882487
1899.000000	0.882489
1898.000000	0.882486
1897.000000	0.882489
1896.000000	0.882500
1895.000000	0.882509
1894.000000	0.882506
1893.000000	0.882491
1892.000000	0.882462
1891.000000	0.882419
1890.000000	0.882380
1889.000000	0.882371
1888.000000	0.882400
1887.000000	0.882445
1886.000000	0.882485
1885.000000	0.882511
1884.000000	0.882527
1883.000000	0.882528
1882.000000	0.882514
1881.000000	0.882496
1880.000000	0.882481
1879.000000	0.882470
1878.000000	0.882460
1877.000000	0.882453
1876.000000	0.882447
1875.000000	0.882439
1874.000000	0.882430
1873.000000	0.882419
1872.000000	0.882390
1871.000000	0.882326
1870.000000	0.882241
1869.000000	0.882189
1868.000000	0.882213
1867.000000	0.882300
1866.000000	0.882399
1865.000000	0.882470
1864.000000	0.882501
1863.000000	0.882495
1862.000000	0.882466
1861.000000	0.882431
1860.000000	0.882408
1859.000000	0.882406
1858.000000	0.882426
1857.000000	0.882461
1856.000000	0.882494
1855.000000	0.882508
1854.000000	0.882503
1853.000000	0.882494
1852.000000	0.882492
1851.000000	0.882488
1850.000000	0.882472
1849.000000	0.882441
1848.000000	0.882382
1847.000000	0.882272
1846.000000	0.882116
1845.000000	0.881976
1844.000000	0.881942
1843.000000	0.882044
1842.000000	0.882221
1841.000000	0.882374
1840.000000	0.882447
1839.000000	0.882455
1838.000000	0.882451
1837.000000	0.882467
1836.000000	0.882498
1835.000000	0.882517
1834.000000	0.882505
1833.000000	0.882452
1832.000000	0.882363
1831.000000	0.882265
1830.000000	0.882212
1829.000000	0.882234
1828.000000	0.882303
1827.000000	0.882356
1826.000000	0.882371
1825.000000	0.882384
1824.000000	0.882437
1823.000000	0.882519
1822.000000	0.882588
1821.000000	0.882620
1820.000000	0.882623
1819.000000	0.882619
1818.000000	0.882626
1817.000000	0.882648
1816.000000	0.882673
1815.000000	0.882676
1814.000000	0.882645
1813.000000	0.882596
1812.000000	0.882557
1811.000000	0.882541
1810.000000	0.882551
1809.000000	0.882577
1808.000000	0.882607
1807.000000	0.882628
1806.000000	0.882640
1805.000000	0.882645
1804.000000	0.882634
1803.000000	0.882588
1802.000000	0.882513
1801.000000	0.882445
1800.000000	0.882417
1799.000000	0.882433
1798.000000	0.882474
1797.000000	0.882514
1796.000000	0.882510
1795.000000	0.882425
1794.000000	0.882272
1793.000000	0.882144
1792.000000	0.882135
1791.000000	0.882254
1790.000000	0.882426
1789.000000	0.882562
1788.000000	0.882618
1787.000000	0.882606
1786.000000	0.882571
1785.000000	0.882558
1784.000000	0.882581
1783.000000	0.882611
1782.000000	0.882625
1781.000000	0.882638
1780.000000	0.882672
1779.000000	0.882719
1778.000000	0.882752
1777.000000	0.882750
1776.000000	0.882694
1775.000000	0.882551
1774.000000	0.882335
1773.000000	0.882145
1772.000000	0.882102
1771.000000	0.882221
1770.000000	0.882394
1769.000000	0.882521
1768.000000	0.882606
1767.000000	0.882710
1766.000000	0.882834
1765.000000	0.882909
1764.000000	0.882882
1763.000000	0.882787
1762.000000	0.882715
1761.000000	0.882727
1760.000000	0.882802
1759.000000	0.882865
1758.000000	0.882874
1757.000000	0.882865
1756.000000	0.882893
1755.000000	0.882946
1754.000000	0.882940
1753.000000	0.882828
1752.000000	0.882675
1751.000000	0.882595
1750.000000	0.882639
1749.000000	0.882758
1748.000000	0.882881
1747.000000	0.882971
1746.000000	0.883030
1745.000000	0.883066
1744.000000	0.883079
1743.000000	0.883065
1742.000000	0.883018
1741.000000	0.882953
1740.000000	0.882926
1739.000000	0.882981
1738.000000	0.883063
1737.000000	0.883013
1736.000000	0.882735
1735.000000	0.882357
1734.000000	0.882161
1733.000000	0.882314
1732.000000	0.882707
1731.000000	0.883097
1730.000000	0.883349
1729.000000	0.883487
1728.000000	0.883576
1727.000000	0.883633
1726.000000	0.883652
1725.000000	0.883657
1724.000000	0.883671
1723.000000	0.883686
1722.000000	0.883657
1721.000000	0.883523
1720.000000	0.883238
1719.000000	0.882842
1718.000000	0.882499
1717.000000	0.882405
1716.000000	0.882605
1715.000000	0.882959
1714.000000	0.883295
1713.000000	0.883544
1712.000000	0.883714
1711.000000	0.883809
1710.000000	0.883824
1709.000000	0.883784
1708.000000	0.883712
1707.000000	0.883617
1706.000000	0.883527
1705.000000	0.883488
1704.000000	0.883451
1703.000000	0.883265
1702.000000	0.882867
1701.000000	0.882454
1700.000000	0.882301
1699.000000	0.882428
1698.000000	0.882576
1697.000000	0.882566
1696.000000	0.882536
1695.000000	0.882731
1694.000000	0.883170
1693.000000	0.883624
1692.000000	0.883882
1691.000000	0.883941
1690.000000	0.883922
1689.000000	0.883883
1688.000000	0.883743
1687.000000	0.883392
1686.000000	0.882873
1685.000000	0.882442
1684.000000	0.882384
1683.000000	0.882742
1682.000000	0.883272
1681.000000	0.883694
1680.000000	0.883909
1679.000000	0.883971
1678.000000	0.883925
1677.000000	0.883784
1676.000000	0.883620
1675.000000	0.883559
1674.000000	0.883645
1673.000000	0.883766
1672.000000	0.883780
1671.000000	0.883672
1670.000000	0.883567
1669.000000	0.883593
1668.000000	0.883772
1667.000000	0.884006
1666.000000	0.884160
1665.000000	0.884162
1664.000000	0.884058
1663.000000	0.883974
1662.000000	0.884002
1661.000000	0.884125
1660.000000	0.884251
1659.000000	0.884312
1658.000000	0.884280
1657.000000	0.884091
1656.000000	0.883635
1655.000000	0.882901
1654.000000	0.882151
1653.000000	0.881824
1652.000000	0.882154
1651.000000	0.882903
1650.000000	0.883571
1649.000000	0.883824
1648.000000	0.883711
1647.000000	0.883520
1646.000000	0.883498
1645.000000	0.883698
1644.000000	0.884016
1643.000000	0.884302
1642.000000	0.884461
1641.000000	0.884496
1640.000000	0.884457
1639.000000	0.884345
1638.000000	0.884113
1637.000000	0.883785
1636.000000	0.883531
1635.000000	0.883534
1634.000000	0.883806
1633.000000	0.884169
1632.000000	0.884431
1631.000000	0.884524
1630.000000	0.884498
1629.000000	0.884436
1628.000000	0.884386
1627.000000	0.884357
1626.000000	0.884321
1625.000000	0.884254
1624.000000	0.884182
1623.000000	0.884171
1622.000000	0.884255
1621.000000	0.884358
1620.000000	0.884337
1619.000000	0.884114
1618.000000	0.883789
1617.000000	0.883599
1616.000000	0.883724
1615.000000	0.884117
1614.000000	0.884548
1613.000000	0.884817
1612.000000	0.884892
1611.000000	0.884861
1610.000000	0.884811
1609.000000	0.884766
1608.000000	0.884734
1607.000000	0.884733
1606.000000	0.884762
1605.000000	0.884795
1604.000000	0.884809
1603.000000	0.884805
1602.000000	0.884797
1601.000000	0.884798
1600.000000	0.884814
1599.000000	0.884846
1598.000000	0.884878
1597.000000	0.884889
1596.000000	0.884878
1595.000000	0.884869
1594.000000	0.884884
1593.000000	0.884920
1592.000000	0.884959
1591.000000	0.884990
1590.000000	0.885007
1589.000000	0.885011
1588.000000	0.885001
1587.000000	0.884986
1586.000000	0.884978
1585.000000	0.884988
1584.000000	0.885008
1583.000000	0.885021
1582.000000	0.885019
1581.000000	0.884997
1580.000000	0.884925
1579.000000	0.884733
1578.000000	0.884399
1577.000000	0.884047
1576.000000	0.883904
1575.000000	0.884090
1574.000000	0.884469
1573.000000	0.884765
1572.000000	0.884815
1571.000000	0.884687
1570.000000	0.884570
1569.000000	0.884582
1568.000000	0.884705
1567.000000	0.884843
1566.000000	0.884929
1565.000000	0.884955
1564.000000	0.884924
1563.000000	0.884764
1562.000000	0.884354
1561.000000	0.883689
1560.000000	0.883019
1559.000000	0.882723
1558.000000	0.882964
1557.000000	0.883526
1556.000000	0.884050
1555.000000	0.884364
1554.000000	0.884538
1553.000000	0.884694
1552.000000	0.884847
1551.000000	0.884956
1550.000000	0.885012
1549.000000	0.885036
1548.000000	0.885026
1547.000000	0.884952
1546.000000	0.884804
1545.000000	0.884604
1544.000000	0.884361
1543.000000	0.884051
1542.000000	0.883666
1541.000000	0.883293
1540.000000	0.883121
1539.000000	0.883313
1538.000000	0.883823
1537.000000	0.884380
1536.000000	0.884705
1535.000000	0.884742
1534.000000	0.884666
1533.000000	0.884669
1532.000000	0.884786
1531.000000	0.884922
1530.000000	0.884992
1529.000000	0.884973
1528.000000	0.884883
1527.000000	0.884766
1526.000000	0.884669
1525.000000	0.884584
1524.000000	0.884440
1523.000000	0.884200
1522.000000	0.883971
1521.000000	0.883931
1520.000000	0.884123
1519.000000	0.884402
1518.000000	0.884601
1517.000000	0.884701
1516.000000	0.884786
1515.000000	0.884897
1514.000000	0.884990
1513.000000	0.885022
1512.000000	0.885003
1511.000000	0.884931
1510.000000	0.884740
1509.000000	0.884372
1508.000000	0.883907
1507.000000	0.883579
1506.000000	0.883616
1505.000000	0.884041
1504.000000	0.884641
1503.000000	0.885140
1502.000000	0.885401
1501.000000	0.885462
1500.000000	0.885420
