PE IR       SUBTECH     SPECTRUM    ASCII       PEDS        4.00        
   -1
TE109A_043_80K_after_110K.ASC
20/04/21
15:35:22.00
20/04/21
15:35:23.00
Administrator
TE109A, Tuesday, April 21 2020, 043.
1000.000000
#HDR
-1
-1
#GR
cm-1
A
1.0
0.0
6000.000000
-2.000000
2501
8
1.153808
1.036963
#DATA
6000.000000	1.048772
5998.000000	1.049042
5996.000000	1.048918
5994.000000	1.048099
5992.000000	1.047472
5990.000000	1.047937
5988.000000	1.048545
5986.000000	1.048563
5984.000000	1.048084
5982.000000	1.047683
5980.000000	1.047634
5978.000000	1.047925
5976.000000	1.048079
5974.000000	1.047819
5972.000000	1.047643
5970.000000	1.047116
5968.000000	1.047115
5966.000000	1.047563
5964.000000	1.048097
5962.000000	1.048458
5960.000000	1.048319
5958.000000	1.048331
5956.000000	1.048202
5954.000000	1.047984
5952.000000	1.047984
5950.000000	1.047992
5948.000000	1.048439
5946.000000	1.048274
5944.000000	1.047998
5942.000000	1.047635
5940.000000	1.047278
5938.000000	1.047640
5936.000000	1.048041
5934.000000	1.048210
5932.000000	1.048067
5930.000000	1.047593
5928.000000	1.047264
5926.000000	1.047405
5924.000000	1.047604
5922.000000	1.047534
5920.000000	1.046687
5918.000000	1.046187
5916.000000	1.046776
5914.000000	1.047557
5912.000000	1.047729
5910.000000	1.047179
5908.000000	1.046719
5906.000000	1.046980
5904.000000	1.047078
5902.000000	1.047117
5900.000000	1.046949
5898.000000	1.047141
5896.000000	1.047301
5894.000000	1.047090
5892.000000	1.046720
5890.000000	1.046666
5888.000000	1.046926
5886.000000	1.046894
5884.000000	1.046839
5882.000000	1.046882
5880.000000	1.046912
5878.000000	1.046927
5876.000000	1.046708
5874.000000	1.046390
5872.000000	1.046101
5870.000000	1.045965
5868.000000	1.046160
5866.000000	1.046571
5864.000000	1.046981
5862.000000	1.047110
5860.000000	1.047009
5858.000000	1.046648
5856.000000	1.046365
5854.000000	1.045977
5852.000000	1.045721
5850.000000	1.045958
5848.000000	1.046219
5846.000000	1.046360
5844.000000	1.046080
5842.000000	1.045880
5840.000000	1.045955
5838.000000	1.046018
5836.000000	1.046170
5834.000000	1.046236
5832.000000	1.046549
5830.000000	1.046760
5828.000000	1.046426
5826.000000	1.046282
5824.000000	1.046345
5822.000000	1.046637
5820.000000	1.046889
5818.000000	1.046918
5816.000000	1.047015
5814.000000	1.046852
5812.000000	1.046461
5810.000000	1.046297
5808.000000	1.046822
5806.000000	1.047152
5804.000000	1.046891
5802.000000	1.046472
5800.000000	1.046237
5798.000000	1.046327
5796.000000	1.046191
5794.000000	1.045923
5792.000000	1.046052
5790.000000	1.046518
5788.000000	1.046768
5786.000000	1.046808
5784.000000	1.046710
5782.000000	1.046659
5780.000000	1.046697
5778.000000	1.046724
5776.000000	1.046549
5774.000000	1.046528
5772.000000	1.046291
5770.000000	1.046345
5768.000000	1.046509
5766.000000	1.046716
5764.000000	1.046705
5762.000000	1.046333
5760.000000	1.046065
5758.000000	1.046267
5756.000000	1.046646
5754.000000	1.046843
5752.000000	1.046381
5750.000000	1.046044
5748.000000	1.046010
5746.000000	1.046425
5744.000000	1.046975
5742.000000	1.046879
5740.000000	1.046377
5738.000000	1.045544
5736.000000	1.045296
5734.000000	1.045603
5732.000000	1.046201
5730.000000	1.046584
5728.000000	1.046564
5726.000000	1.046603
5724.000000	1.046263
5722.000000	1.046061
5720.000000	1.046252
5718.000000	1.046712
5716.000000	1.046975
5714.000000	1.046764
5712.000000	1.046628
5710.000000	1.046796
5708.000000	1.046775
5706.000000	1.046442
5704.000000	1.046053
5702.000000	1.045890
5700.000000	1.045947
5698.000000	1.046105
5696.000000	1.046015
5694.000000	1.046047
5692.000000	1.046295
5690.000000	1.046772
5688.000000	1.046987
5686.000000	1.046668
5684.000000	1.046383
5682.000000	1.046180
5680.000000	1.046248
5678.000000	1.046381
5676.000000	1.046514
5674.000000	1.046798
5672.000000	1.047041
5670.000000	1.047180
5668.000000	1.047342
5666.000000	1.047077
5664.000000	1.046707
5662.000000	1.046522
5660.000000	1.046659
5658.000000	1.047199
5656.000000	1.047200
5654.000000	1.046795
5652.000000	1.046438
5650.000000	1.046366
5648.000000	1.046326
5646.000000	1.046162
5644.000000	1.046189
5642.000000	1.046695
5640.000000	1.047074
5638.000000	1.047183
5636.000000	1.047018
5634.000000	1.046900
5632.000000	1.046636
5630.000000	1.046303
5628.000000	1.046067
5626.000000	1.046099
5624.000000	1.046251
5622.000000	1.046225
5620.000000	1.046079
5618.000000	1.046355
5616.000000	1.046756
5614.000000	1.047071
5612.000000	1.046919
5610.000000	1.046689
5608.000000	1.046684
5606.000000	1.046655
5604.000000	1.046485
5602.000000	1.046210
5600.000000	1.046247
5598.000000	1.046534
5596.000000	1.046663
5594.000000	1.046652
5592.000000	1.046669
5590.000000	1.046658
5588.000000	1.046559
5586.000000	1.046414
5584.000000	1.046466
5582.000000	1.046647
5580.000000	1.046740
5578.000000	1.046634
5576.000000	1.046503
5574.000000	1.046430
5572.000000	1.046291
5570.000000	1.046180
5568.000000	1.046314
5566.000000	1.046634
5564.000000	1.046572
5562.000000	1.046391
5560.000000	1.046340
5558.000000	1.046381
5556.000000	1.046108
5554.000000	1.045780
5552.000000	1.045831
5550.000000	1.045959
5548.000000	1.045964
5546.000000	1.045906
5544.000000	1.045748
5542.000000	1.045471
5540.000000	1.045318
5538.000000	1.045463
5536.000000	1.045868
5534.000000	1.046209
5532.000000	1.046418
5530.000000	1.046444
5528.000000	1.046390
5526.000000	1.046406
5524.000000	1.046309
5522.000000	1.045936
5520.000000	1.045682
5518.000000	1.045784
5516.000000	1.046161
5514.000000	1.046398
5512.000000	1.046481
5510.000000	1.046436
5508.000000	1.046301
5506.000000	1.046289
5504.000000	1.046333
5502.000000	1.046227
5500.000000	1.046097
5498.000000	1.045884
5496.000000	1.045789
5494.000000	1.045698
5492.000000	1.045552
5490.000000	1.045549
5488.000000	1.045588
5486.000000	1.045898
5484.000000	1.046385
5482.000000	1.046418
5480.000000	1.046072
5478.000000	1.045868
5476.000000	1.045881
5474.000000	1.045868
5472.000000	1.045696
5470.000000	1.045851
5468.000000	1.046103
5466.000000	1.045946
5464.000000	1.045662
5462.000000	1.045629
5460.000000	1.046005
5458.000000	1.046202
5456.000000	1.045971
5454.000000	1.045639
5452.000000	1.045616
5450.000000	1.045873
5448.000000	1.045704
5446.000000	1.045285
5444.000000	1.044987
5442.000000	1.045156
5440.000000	1.045499
5438.000000	1.045645
5436.000000	1.045534
5434.000000	1.045136
5432.000000	1.044952
5430.000000	1.045055
5428.000000	1.045414
5426.000000	1.045651
5424.000000	1.045844
5422.000000	1.045977
5420.000000	1.046022
5418.000000	1.046134
5416.000000	1.046145
5414.000000	1.045946
5412.000000	1.045672
5410.000000	1.045620
5408.000000	1.045969
5406.000000	1.046288
5404.000000	1.046370
5402.000000	1.046263
5400.000000	1.046196
5398.000000	1.046257
5396.000000	1.046055
5394.000000	1.045820
5392.000000	1.045747
5390.000000	1.045821
5388.000000	1.046029
5386.000000	1.046367
5384.000000	1.046483
5382.000000	1.046247
5380.000000	1.045908
5378.000000	1.045792
5376.000000	1.045775
5374.000000	1.045659
5372.000000	1.045721
5370.000000	1.045877
5368.000000	1.046103
5366.000000	1.046053
5364.000000	1.045876
5362.000000	1.046004
5360.000000	1.046152
5358.000000	1.046135
5356.000000	1.045838
5354.000000	1.045760
5352.000000	1.045733
5350.000000	1.045765
5348.000000	1.045743
5346.000000	1.045641
5344.000000	1.045514
5342.000000	1.045573
5340.000000	1.045654
5338.000000	1.045923
5336.000000	1.046319
5334.000000	1.046762
5332.000000	1.046880
5330.000000	1.046651
5328.000000	1.046597
5326.000000	1.046779
5324.000000	1.047026
5322.000000	1.047164
5320.000000	1.047150
5318.000000	1.047120
5316.000000	1.047042
5314.000000	1.047009
5312.000000	1.047180
5310.000000	1.047423
5308.000000	1.047694
5306.000000	1.047688
5304.000000	1.047683
5302.000000	1.047773
5300.000000	1.047938
5298.000000	1.048084
5296.000000	1.048192
5294.000000	1.048232
5292.000000	1.048186
5290.000000	1.048300
5288.000000	1.048415
5286.000000	1.048557
5284.000000	1.048755
5282.000000	1.048926
5280.000000	1.048868
5278.000000	1.048766
5276.000000	1.048999
5274.000000	1.049406
5272.000000	1.049766
5270.000000	1.050005
5268.000000	1.050084
5266.000000	1.050098
5264.000000	1.050191
5262.000000	1.050512
5260.000000	1.050901
5258.000000	1.051139
5256.000000	1.051090
5254.000000	1.051053
5252.000000	1.051264
5250.000000	1.051580
5248.000000	1.051859
5246.000000	1.052004
5244.000000	1.052039
5242.000000	1.052245
5240.000000	1.052730
5238.000000	1.053284
5236.000000	1.053528
5234.000000	1.053625
5232.000000	1.053844
5230.000000	1.054184
5228.000000	1.054321
5226.000000	1.054220
5224.000000	1.054303
5222.000000	1.054849
5220.000000	1.055491
5218.000000	1.055902
5216.000000	1.056209
5214.000000	1.056503
5212.000000	1.056857
5210.000000	1.057217
5208.000000	1.057596
5206.000000	1.057968
5204.000000	1.058228
5202.000000	1.058319
5200.000000	1.058490
5198.000000	1.058967
5196.000000	1.059398
5194.000000	1.059633
5192.000000	1.059932
5190.000000	1.060470
5188.000000	1.060898
5186.000000	1.061140
5184.000000	1.061338
5182.000000	1.061653
5180.000000	1.061891
5178.000000	1.062178
5176.000000	1.062592
5174.000000	1.062945
5172.000000	1.063071
5170.000000	1.063240
5168.000000	1.063640
5166.000000	1.063994
5164.000000	1.064127
5162.000000	1.064248
5160.000000	1.064588
5158.000000	1.065077
5156.000000	1.065386
5154.000000	1.065536
5152.000000	1.065724
5150.000000	1.066154
5148.000000	1.066602
5146.000000	1.066770
5144.000000	1.066722
5142.000000	1.066896
5140.000000	1.067479
5138.000000	1.068212
5136.000000	1.068625
5134.000000	1.068824
5132.000000	1.068899
5130.000000	1.068990
5128.000000	1.068962
5126.000000	1.068812
5124.000000	1.068879
5122.000000	1.069214
5120.000000	1.069574
5118.000000	1.069660
5116.000000	1.069675
5114.000000	1.069772
5112.000000	1.070030
5110.000000	1.070382
5108.000000	1.070624
5106.000000	1.070562
5104.000000	1.070395
5102.000000	1.070337
5100.000000	1.070464
5098.000000	1.070611
5096.000000	1.070702
5094.000000	1.070843
5092.000000	1.070975
5090.000000	1.071050
5088.000000	1.070940
5086.000000	1.070870
5084.000000	1.070868
5082.000000	1.071082
5080.000000	1.071369
5078.000000	1.071497
5076.000000	1.071395
5074.000000	1.071273
5072.000000	1.071297
5070.000000	1.071361
5068.000000	1.071419
5066.000000	1.071412
5064.000000	1.071354
5062.000000	1.071308
5060.000000	1.071306
5058.000000	1.071373
5056.000000	1.071391
5054.000000	1.071353
5052.000000	1.071455
5050.000000	1.071565
5048.000000	1.071553
5046.000000	1.071423
5044.000000	1.071594
5042.000000	1.071772
5040.000000	1.071689
5038.000000	1.071584
5036.000000	1.071651
5034.000000	1.071883
5032.000000	1.071876
5030.000000	1.071783
5028.000000	1.071723
5026.000000	1.071819
5024.000000	1.071815
5022.000000	1.071518
5020.000000	1.071429
5018.000000	1.071781
5016.000000	1.072085
5014.000000	1.071968
5012.000000	1.071840
5010.000000	1.071818
5008.000000	1.071644
5006.000000	1.071490
5004.000000	1.071426
5002.000000	1.071349
5000.000000	1.071350
4998.000000	1.071497
4996.000000	1.071471
4994.000000	1.071335
4992.000000	1.071236
4990.000000	1.071190
4988.000000	1.071178
4986.000000	1.071265
4984.000000	1.071376
4982.000000	1.071303
4980.000000	1.070948
4978.000000	1.070635
4976.000000	1.070642
4974.000000	1.070670
4972.000000	1.070550
4970.000000	1.070489
4968.000000	1.070661
4966.000000	1.070782
4964.000000	1.070652
4962.000000	1.070382
4960.000000	1.070223
4958.000000	1.070173
4956.000000	1.070025
4954.000000	1.069905
4952.000000	1.069926
4950.000000	1.070014
4948.000000	1.070123
4946.000000	1.070159
4944.000000	1.070076
4942.000000	1.069940
4940.000000	1.069869
4938.000000	1.069746
4936.000000	1.069577
4934.000000	1.069419
4932.000000	1.069298
4930.000000	1.069282
4928.000000	1.069360
4926.000000	1.069313
4924.000000	1.069091
4922.000000	1.068749
4920.000000	1.068548
4918.000000	1.068554
4916.000000	1.068647
4914.000000	1.068609
4912.000000	1.068365
4910.000000	1.068127
4908.000000	1.068110
4906.000000	1.068283
4904.000000	1.068183
4902.000000	1.067880
4900.000000	1.067713
4898.000000	1.067730
4896.000000	1.067672
4894.000000	1.067525
4892.000000	1.067422
4890.000000	1.067285
4888.000000	1.067049
4886.000000	1.066799
4884.000000	1.066571
4882.000000	1.066471
4880.000000	1.066411
4878.000000	1.066346
4876.000000	1.066227
4874.000000	1.066128
4872.000000	1.065922
4870.000000	1.065513
4868.000000	1.065173
4866.000000	1.065177
4864.000000	1.065392
4862.000000	1.065377
4860.000000	1.065219
4858.000000	1.065245
4856.000000	1.065300
4854.000000	1.065176
4852.000000	1.065019
4850.000000	1.064927
4848.000000	1.064620
4846.000000	1.064311
4844.000000	1.064233
4842.000000	1.064235
4840.000000	1.064074
4838.000000	1.063824
4836.000000	1.063657
4834.000000	1.063516
4832.000000	1.063326
4830.000000	1.063131
4828.000000	1.063033
4826.000000	1.062868
4824.000000	1.062665
4822.000000	1.062523
4820.000000	1.062315
4818.000000	1.062068
4816.000000	1.062053
4814.000000	1.062059
4812.000000	1.061886
4810.000000	1.061699
4808.000000	1.061499
4806.000000	1.061307
4804.000000	1.061129
4802.000000	1.060955
4800.000000	1.060683
4798.000000	1.060467
4796.000000	1.060372
4794.000000	1.060304
4792.000000	1.060038
4790.000000	1.059655
4788.000000	1.059565
4786.000000	1.059579
4784.000000	1.059421
4782.000000	1.059220
4780.000000	1.059154
4778.000000	1.059023
4776.000000	1.058708
4774.000000	1.058299
4772.000000	1.058111
4770.000000	1.058142
4768.000000	1.058061
4766.000000	1.057785
4764.000000	1.057659
4762.000000	1.057598
4760.000000	1.057403
4758.000000	1.057068
4756.000000	1.056842
4754.000000	1.056781
4752.000000	1.056704
4750.000000	1.056458
4748.000000	1.056247
4746.000000	1.056213
4744.000000	1.056186
4742.000000	1.056036
4740.000000	1.055960
4738.000000	1.055973
4736.000000	1.055878
4734.000000	1.055471
4732.000000	1.055069
4730.000000	1.054966
4728.000000	1.054977
4726.000000	1.054754
4724.000000	1.054528
4722.000000	1.054407
4720.000000	1.054272
4718.000000	1.054134
4716.000000	1.054132
4714.000000	1.054049
4712.000000	1.053826
4710.000000	1.053655
4708.000000	1.053595
4706.000000	1.053571
4704.000000	1.053505
4702.000000	1.053472
4700.000000	1.053325
4698.000000	1.053093
4696.000000	1.052821
4694.000000	1.052735
4692.000000	1.052690
4690.000000	1.052503
4688.000000	1.052201
4686.000000	1.052014
4684.000000	1.051927
4682.000000	1.051827
4680.000000	1.051734
4678.000000	1.051634
4676.000000	1.051518
4674.000000	1.051438
4672.000000	1.051375
4670.000000	1.051315
4668.000000	1.051227
4666.000000	1.051221
4664.000000	1.051121
4662.000000	1.050894
4660.000000	1.050671
4658.000000	1.050569
4656.000000	1.050503
4654.000000	1.050452
4652.000000	1.050440
4650.000000	1.050428
4648.000000	1.050439
4646.000000	1.050423
4644.000000	1.050286
4642.000000	1.050128
4640.000000	1.050051
4638.000000	1.050110
4636.000000	1.050142
4634.000000	1.050105
4632.000000	1.049942
4630.000000	1.049744
4628.000000	1.049675
4626.000000	1.049733
4624.000000	1.049667
4622.000000	1.049471
4620.000000	1.049292
4618.000000	1.049256
4616.000000	1.049268
4614.000000	1.049296
4612.000000	1.049267
4610.000000	1.049215
4608.000000	1.049128
4606.000000	1.049001
4604.000000	1.048858
4602.000000	1.048833
4600.000000	1.048848
4598.000000	1.048741
4596.000000	1.048569
4594.000000	1.048481
4592.000000	1.048341
4590.000000	1.048190
4588.000000	1.048195
4586.000000	1.048344
4584.000000	1.048284
4582.000000	1.048217
4580.000000	1.048321
4578.000000	1.048359
4576.000000	1.048097
4574.000000	1.047922
4572.000000	1.047969
4570.000000	1.048007
4568.000000	1.047979
4566.000000	1.048065
4564.000000	1.048064
4562.000000	1.047879
4560.000000	1.047721
4558.000000	1.047661
4556.000000	1.047618
4554.000000	1.047607
4552.000000	1.047626
4550.000000	1.047641
4548.000000	1.047610
4546.000000	1.047576
4544.000000	1.047581
4542.000000	1.047613
4540.000000	1.047644
4538.000000	1.047593
4536.000000	1.047380
4534.000000	1.047226
4532.000000	1.047277
4530.000000	1.047384
4528.000000	1.047400
4526.000000	1.047344
4524.000000	1.047189
4522.000000	1.047081
4520.000000	1.047109
4518.000000	1.047111
4516.000000	1.047046
4514.000000	1.046981
4512.000000	1.046916
4510.000000	1.046904
4508.000000	1.046896
4506.000000	1.046889
4504.000000	1.046912
4502.000000	1.046872
4500.000000	1.046837
4498.000000	1.046913
4496.000000	1.046960
4494.000000	1.046958
4492.000000	1.046894
4490.000000	1.046714
4488.000000	1.046581
4486.000000	1.046567
4484.000000	1.046500
4482.000000	1.046404
4480.000000	1.046410
4478.000000	1.046398
4476.000000	1.046435
4474.000000	1.046605
4472.000000	1.046663
4470.000000	1.046546
4468.000000	1.046488
4466.000000	1.046477
4464.000000	1.046453
4462.000000	1.046463
4460.000000	1.046438
4458.000000	1.046365
4456.000000	1.046341
4454.000000	1.046401
4452.000000	1.046419
4450.000000	1.046409
4448.000000	1.046434
4446.000000	1.046411
4444.000000	1.046312
4442.000000	1.046246
4440.000000	1.046229
4438.000000	1.046126
4436.000000	1.046020
4434.000000	1.046100
4432.000000	1.046330
4430.000000	1.046437
4428.000000	1.046343
4426.000000	1.046220
4424.000000	1.046197
4422.000000	1.046269
4420.000000	1.046373
4418.000000	1.046445
4416.000000	1.046432
4414.000000	1.046343
4412.000000	1.046226
4410.000000	1.046218
4408.000000	1.046305
4406.000000	1.046430
4404.000000	1.046554
4402.000000	1.046613
4400.000000	1.046554
4398.000000	1.046449
4396.000000	1.046470
4394.000000	1.046693
4392.000000	1.046829
4390.000000	1.046795
4388.000000	1.046745
4386.000000	1.046648
4384.000000	1.046581
4382.000000	1.046764
4380.000000	1.046945
4378.000000	1.046878
4376.000000	1.046755
4374.000000	1.046904
4372.000000	1.047177
4370.000000	1.047237
4368.000000	1.047175
4366.000000	1.047280
4364.000000	1.047405
4362.000000	1.047459
4360.000000	1.047500
4358.000000	1.047523
4356.000000	1.047525
4354.000000	1.047602
4352.000000	1.047708
4350.000000	1.047743
4348.000000	1.047716
4346.000000	1.047759
4344.000000	1.047874
4342.000000	1.048065
4340.000000	1.048197
4338.000000	1.048200
4336.000000	1.048234
4334.000000	1.048335
4332.000000	1.048424
4330.000000	1.048539
4328.000000	1.048602
4326.000000	1.048678
4324.000000	1.048854
4322.000000	1.049048
4320.000000	1.049140
4318.000000	1.049192
4316.000000	1.049266
4314.000000	1.049267
4312.000000	1.049208
4310.000000	1.049278
4308.000000	1.049435
4306.000000	1.049619
4304.000000	1.049708
4302.000000	1.049698
4300.000000	1.049725
4298.000000	1.049778
4296.000000	1.049836
4294.000000	1.050001
4292.000000	1.050171
4290.000000	1.050252
4288.000000	1.050245
4286.000000	1.050244
4284.000000	1.050375
4282.000000	1.050590
4280.000000	1.050625
4278.000000	1.050495
4276.000000	1.050454
4274.000000	1.050589
4272.000000	1.050818
4270.000000	1.051031
4268.000000	1.051160
4266.000000	1.051259
4264.000000	1.051364
4262.000000	1.051432
4260.000000	1.051391
4258.000000	1.051412
4256.000000	1.051607
4254.000000	1.051737
4252.000000	1.051721
4250.000000	1.051700
4248.000000	1.051671
4246.000000	1.051709
4244.000000	1.051815
4242.000000	1.051984
4240.000000	1.052157
4238.000000	1.052227
4236.000000	1.052219
4234.000000	1.052256
4232.000000	1.052308
4230.000000	1.052371
4228.000000	1.052420
4226.000000	1.052506
4224.000000	1.052630
4222.000000	1.052718
4220.000000	1.052709
4218.000000	1.052766
4216.000000	1.052898
4214.000000	1.052980
4212.000000	1.052964
4210.000000	1.052926
4208.000000	1.052918
4206.000000	1.052908
4204.000000	1.052830
4202.000000	1.052827
4200.000000	1.052939
4198.000000	1.053032
4196.000000	1.053063
4194.000000	1.053103
4192.000000	1.053073
4190.000000	1.053042
4188.000000	1.053224
4186.000000	1.053456
4184.000000	1.053514
4182.000000	1.053552
4180.000000	1.053567
4178.000000	1.053491
4176.000000	1.053457
4174.000000	1.053528
4172.000000	1.053608
4170.000000	1.053617
4168.000000	1.053509
4166.000000	1.053410
4164.000000	1.053433
4162.000000	1.053559
4160.000000	1.053656
4158.000000	1.053694
4156.000000	1.053784
4154.000000	1.053947
4152.000000	1.053997
4150.000000	1.053923
4148.000000	1.053825
4146.000000	1.053676
4144.000000	1.053507
4142.000000	1.053547
4140.000000	1.053792
4138.000000	1.053959
4136.000000	1.053918
4134.000000	1.053891
4132.000000	1.053934
4130.000000	1.053925
4128.000000	1.053917
4126.000000	1.053968
4124.000000	1.053960
4122.000000	1.053980
4120.000000	1.054116
4118.000000	1.054295
4116.000000	1.054340
4114.000000	1.054257
4112.000000	1.054243
4110.000000	1.054292
4108.000000	1.054317
4106.000000	1.054407
4104.000000	1.054438
4102.000000	1.054376
4100.000000	1.054336
4098.000000	1.054328
4096.000000	1.054325
4094.000000	1.054356
4092.000000	1.054426
4090.000000	1.054563
4088.000000	1.054681
4086.000000	1.054678
4084.000000	1.054573
4082.000000	1.054513
4080.000000	1.054537
4078.000000	1.054572
4076.000000	1.054643
4074.000000	1.054756
4072.000000	1.054808
4070.000000	1.054831
4068.000000	1.054872
4066.000000	1.054949
4064.000000	1.055015
4062.000000	1.055043
4060.000000	1.055038
4058.000000	1.054957
4056.000000	1.054891
4054.000000	1.055012
4052.000000	1.055218
4050.000000	1.055290
4048.000000	1.055231
4046.000000	1.055188
4044.000000	1.055189
4042.000000	1.055156
4040.000000	1.055097
4038.000000	1.055099
4036.000000	1.055186
4034.000000	1.055246
4032.000000	1.055191
4030.000000	1.055204
4028.000000	1.055333
4026.000000	1.055437
4024.000000	1.055434
4022.000000	1.055311
4020.000000	1.055202
4018.000000	1.055182
4016.000000	1.055258
4014.000000	1.055361
4012.000000	1.055343
4010.000000	1.055300
4008.000000	1.055287
4006.000000	1.055285
4004.000000	1.055332
4002.000000	1.055331
4000.000000	1.055265
3998.000000	1.055227
3996.000000	1.055226
3994.000000	1.055204
3992.000000	1.055145
3990.000000	1.055150
3988.000000	1.055195
3986.000000	1.055162
3984.000000	1.055073
3982.000000	1.055047
3980.000000	1.055002
3978.000000	1.054867
3976.000000	1.054834
3974.000000	1.054882
3972.000000	1.054700
3970.000000	1.054500
3968.000000	1.054520
3966.000000	1.054496
3964.000000	1.054345
3962.000000	1.054141
3960.000000	1.053903
3958.000000	1.053757
3956.000000	1.053686
3954.000000	1.053552
3952.000000	1.053323
3950.000000	1.053119
3948.000000	1.052967
3946.000000	1.052792
3944.000000	1.052560
3942.000000	1.052470
3940.000000	1.052488
3938.000000	1.052350
3936.000000	1.052018
3934.000000	1.051567
3932.000000	1.051194
3930.000000	1.051111
3928.000000	1.051060
3926.000000	1.050791
3924.000000	1.050484
3922.000000	1.050282
3920.000000	1.050029
3918.000000	1.049713
3916.000000	1.049599
3914.000000	1.049604
3912.000000	1.049438
3910.000000	1.049223
3908.000000	1.048779
3906.000000	1.047828
3904.000000	1.046913
3902.000000	1.046497
3900.000000	1.046494
3898.000000	1.046947
3896.000000	1.047333
3894.000000	1.046961
3892.000000	1.046260
3890.000000	1.046078
3888.000000	1.045820
3886.000000	1.045134
3884.000000	1.045054
3882.000000	1.045282
3880.000000	1.045321
3878.000000	1.045475
3876.000000	1.045203
3874.000000	1.044454
3872.000000	1.043514
3870.000000	1.042902
3868.000000	1.043132
3866.000000	1.043271
3864.000000	1.043161
3862.000000	1.043476
3860.000000	1.043792
3858.000000	1.043242
3856.000000	1.040699
3854.000000	1.037923
3852.000000	1.038576
3850.000000	1.041293
3848.000000	1.042808
3846.000000	1.042899
3844.000000	1.042478
3842.000000	1.041922
3840.000000	1.040735
3838.000000	1.039519
3836.000000	1.039805
3834.000000	1.040891
3832.000000	1.041510
3830.000000	1.041828
3828.000000	1.041911
3826.000000	1.041697
3824.000000	1.040901
3822.000000	1.039753
3820.000000	1.039533
3818.000000	1.039410
3816.000000	1.039012
3814.000000	1.039937
3812.000000	1.041152
3810.000000	1.041035
3808.000000	1.040028
3806.000000	1.039645
3804.000000	1.039418
3802.000000	1.038477
3800.000000	1.038745
3798.000000	1.039926
3796.000000	1.040430
3794.000000	1.040753
3792.000000	1.041073
3790.000000	1.041214
3788.000000	1.041166
3786.000000	1.041050
3784.000000	1.041119
3782.000000	1.041030
3780.000000	1.040736
3778.000000	1.040857
3776.000000	1.041182
3774.000000	1.041156
3772.000000	1.040638
3770.000000	1.040147
3768.000000	1.040196
3766.000000	1.040449
3764.000000	1.040731
3762.000000	1.040731
3760.000000	1.040401
3758.000000	1.040344
3756.000000	1.040298
3754.000000	1.039170
3752.000000	1.037411
3750.000000	1.036963
3748.000000	1.037699
3746.000000	1.037273
3744.000000	1.037000
3742.000000	1.039022
3740.000000	1.040551
3738.000000	1.040046
3736.000000	1.039222
3734.000000	1.039182
3732.000000	1.039865
3730.000000	1.040929
3728.000000	1.041472
3726.000000	1.041601
3724.000000	1.041858
3722.000000	1.042068
3720.000000	1.042441
3718.000000	1.043025
3716.000000	1.043302
3714.000000	1.042726
3712.000000	1.042132
3710.000000	1.042710
3708.000000	1.044022
3706.000000	1.045196
3704.000000	1.045792
3702.000000	1.046123
3700.000000	1.046860
3698.000000	1.047798
3696.000000	1.048610
3694.000000	1.049094
3692.000000	1.048894
3690.000000	1.048291
3688.000000	1.048903
3686.000000	1.051222
3684.000000	1.053277
3682.000000	1.054378
3680.000000	1.055125
3678.000000	1.055114
3676.000000	1.054979
3674.000000	1.056463
3672.000000	1.058176
3670.000000	1.059544
3668.000000	1.062106
3666.000000	1.064826
3664.000000	1.066630
3662.000000	1.068074
3660.000000	1.069462
3658.000000	1.070363
3656.000000	1.071334
3654.000000	1.072895
3652.000000	1.073609
3650.000000	1.073682
3648.000000	1.075176
3646.000000	1.077969
3644.000000	1.080444
3642.000000	1.082116
3640.000000	1.083448
3638.000000	1.084671
3636.000000	1.085684
3634.000000	1.086496
3632.000000	1.086775
3630.000000	1.086386
3628.000000	1.087302
3626.000000	1.089846
3624.000000	1.091807
3622.000000	1.092552
3620.000000	1.092850
3618.000000	1.093696
3616.000000	1.094890
3614.000000	1.095713
3612.000000	1.096295
3610.000000	1.096840
3608.000000	1.097802
3606.000000	1.099153
3604.000000	1.100236
3602.000000	1.100968
3600.000000	1.101527
3598.000000	1.102054
3596.000000	1.102586
3594.000000	1.103203
3592.000000	1.103838
3590.000000	1.104048
3588.000000	1.104053
3586.000000	1.104691
3584.000000	1.105793
3582.000000	1.106609
3580.000000	1.107101
3578.000000	1.107519
3576.000000	1.107888
3574.000000	1.108270
3572.000000	1.108562
3570.000000	1.108465
3568.000000	1.108220
3566.000000	1.108470
3564.000000	1.109171
3562.000000	1.109824
3560.000000	1.110259
3558.000000	1.110581
3556.000000	1.110849
3554.000000	1.110988
3552.000000	1.111167
3550.000000	1.111533
3548.000000	1.111750
3546.000000	1.111705
3544.000000	1.111848
3542.000000	1.112244
3540.000000	1.112654
3538.000000	1.112969
3536.000000	1.113137
3534.000000	1.113344
3532.000000	1.113633
3530.000000	1.113745
3528.000000	1.113744
3526.000000	1.113861
3524.000000	1.113993
3522.000000	1.114127
3520.000000	1.114436
3518.000000	1.114907
3516.000000	1.115283
3514.000000	1.115515
3512.000000	1.115711
3510.000000	1.115856
3508.000000	1.116092
3506.000000	1.116264
3504.000000	1.116283
3502.000000	1.116569
3500.000000	1.117061
3498.000000	1.117386
3496.000000	1.117641
3494.000000	1.117908
3492.000000	1.118152
3490.000000	1.118467
3488.000000	1.118815
3486.000000	1.119096
3484.000000	1.119332
3482.000000	1.119588
3480.000000	1.119944
3478.000000	1.120333
3476.000000	1.120566
3474.000000	1.120735
3472.000000	1.121021
3470.000000	1.121305
3468.000000	1.121492
3466.000000	1.121741
3464.000000	1.122100
3462.000000	1.122473
3460.000000	1.122873
3458.000000	1.123216
3456.000000	1.123528
3454.000000	1.123867
3452.000000	1.124101
3450.000000	1.124300
3448.000000	1.124437
3446.000000	1.124516
3444.000000	1.124833
3442.000000	1.125204
3440.000000	1.125459
3438.000000	1.125651
3436.000000	1.125840
3434.000000	1.126036
3432.000000	1.126212
3430.000000	1.126443
3428.000000	1.126692
3426.000000	1.126903
3424.000000	1.127081
3422.000000	1.127149
3420.000000	1.127318
3418.000000	1.127722
3416.000000	1.128005
3414.000000	1.128140
3412.000000	1.128222
3410.000000	1.128320
3408.000000	1.128457
3406.000000	1.128626
3404.000000	1.128698
3402.000000	1.128736
3400.000000	1.128959
3398.000000	1.129193
3396.000000	1.129275
3394.000000	1.129350
3392.000000	1.129474
3390.000000	1.129701
3388.000000	1.129824
3386.000000	1.129806
3384.000000	1.129857
3382.000000	1.129972
3380.000000	1.130110
3378.000000	1.130180
3376.000000	1.130226
3374.000000	1.130335
3372.000000	1.130456
3370.000000	1.130574
3368.000000	1.130672
3366.000000	1.130723
3364.000000	1.130832
3362.000000	1.130971
3360.000000	1.131036
3358.000000	1.131040
3356.000000	1.131120
3354.000000	1.131276
3352.000000	1.131387
3350.000000	1.131425
3348.000000	1.131367
3346.000000	1.131404
3344.000000	1.131582
3342.000000	1.131573
3340.000000	1.131557
3338.000000	1.131657
3336.000000	1.131669
3334.000000	1.131683
3332.000000	1.131791
3330.000000	1.131901
3328.000000	1.131949
3326.000000	1.132020
3324.000000	1.132173
3322.000000	1.132275
3320.000000	1.132318
3318.000000	1.132436
3316.000000	1.132592
3314.000000	1.132673
3312.000000	1.132723
3310.000000	1.132811
3308.000000	1.132836
3306.000000	1.132855
3304.000000	1.133043
3302.000000	1.133244
3300.000000	1.133278
3298.000000	1.133292
3296.000000	1.133484
3294.000000	1.133699
3292.000000	1.133675
3290.000000	1.133641
3288.000000	1.133779
3286.000000	1.133924
3284.000000	1.133985
3282.000000	1.134045
3280.000000	1.134168
3278.000000	1.134348
3276.000000	1.134415
3274.000000	1.134370
3272.000000	1.134438
3270.000000	1.134635
3268.000000	1.134763
3266.000000	1.134794
3264.000000	1.134930
3262.000000	1.135074
3260.000000	1.135102
3258.000000	1.135105
3256.000000	1.135133
3254.000000	1.135166
3252.000000	1.135282
3250.000000	1.135402
3248.000000	1.135480
3246.000000	1.135548
3244.000000	1.135641
3242.000000	1.135729
3240.000000	1.135795
3238.000000	1.135845
3236.000000	1.135787
3234.000000	1.135779
3232.000000	1.135863
3230.000000	1.135932
3228.000000	1.136004
3226.000000	1.136097
3224.000000	1.136278
3222.000000	1.136434
3220.000000	1.136383
3218.000000	1.136352
3216.000000	1.136449
3214.000000	1.136531
3212.000000	1.136615
3210.000000	1.136623
3208.000000	1.136578
3206.000000	1.136637
3204.000000	1.136745
3202.000000	1.136810
3200.000000	1.136855
3198.000000	1.136819
3196.000000	1.136819
3194.000000	1.136938
3192.000000	1.137079
3190.000000	1.137190
3188.000000	1.137175
3186.000000	1.137087
3184.000000	1.137069
3182.000000	1.137082
3180.000000	1.137165
3178.000000	1.137272
3176.000000	1.137420
3174.000000	1.137493
3172.000000	1.137407
3170.000000	1.137399
3168.000000	1.137498
3166.000000	1.137526
3164.000000	1.137538
3162.000000	1.137563
3160.000000	1.137567
3158.000000	1.137593
3156.000000	1.137577
3154.000000	1.137565
3152.000000	1.137621
3150.000000	1.137717
3148.000000	1.137883
3146.000000	1.137980
3144.000000	1.137938
3142.000000	1.137954
3140.000000	1.137955
3138.000000	1.137966
3136.000000	1.138057
3134.000000	1.138121
3132.000000	1.138109
3130.000000	1.138054
3128.000000	1.138149
3126.000000	1.138334
3124.000000	1.138319
3122.000000	1.138200
3120.000000	1.138170
3118.000000	1.138261
3116.000000	1.138337
3114.000000	1.138366
3112.000000	1.138400
3110.000000	1.138434
3108.000000	1.138527
3106.000000	1.138652
3104.000000	1.138641
3102.000000	1.138543
3100.000000	1.138565
3098.000000	1.138682
3096.000000	1.138836
3094.000000	1.138916
3092.000000	1.138864
3090.000000	1.138805
3088.000000	1.138793
3086.000000	1.138768
3084.000000	1.138805
3082.000000	1.138872
3080.000000	1.138806
3078.000000	1.138727
3076.000000	1.138848
3074.000000	1.138988
3072.000000	1.138986
3070.000000	1.138898
3068.000000	1.138815
3066.000000	1.138770
3064.000000	1.138779
3062.000000	1.138824
3060.000000	1.138781
3058.000000	1.138712
3056.000000	1.138661
3054.000000	1.138595
3052.000000	1.138655
3050.000000	1.138763
3048.000000	1.138776
3046.000000	1.138650
3044.000000	1.138490
3042.000000	1.138354
3040.000000	1.138374
3038.000000	1.138441
3036.000000	1.138320
3034.000000	1.138138
3032.000000	1.138089
3030.000000	1.138052
3028.000000	1.137998
3026.000000	1.138045
3024.000000	1.137963
3022.000000	1.137693
3020.000000	1.137392
3018.000000	1.137139
3016.000000	1.136994
3014.000000	1.136796
3012.000000	1.136632
3010.000000	1.136590
3008.000000	1.136493
3006.000000	1.136344
3004.000000	1.136183
3002.000000	1.135939
3000.000000	1.135706
2998.000000	1.135582
2996.000000	1.135399
2994.000000	1.135152
2992.000000	1.134959
2990.000000	1.134841
2988.000000	1.134797
2986.000000	1.134661
2984.000000	1.134390
2982.000000	1.134166
2980.000000	1.134033
2978.000000	1.133945
2976.000000	1.133843
2974.000000	1.133729
2972.000000	1.133712
2970.000000	1.133750
2968.000000	1.133597
2966.000000	1.133355
2964.000000	1.133120
2962.000000	1.132718
2960.000000	1.132175
2958.000000	1.131710
2956.000000	1.131325
2954.000000	1.130953
2952.000000	1.130589
2950.000000	1.130236
2948.000000	1.129960
2946.000000	1.129705
2944.000000	1.129473
2942.000000	1.129286
2940.000000	1.129121
2938.000000	1.128709
2936.000000	1.128183
2934.000000	1.127922
2932.000000	1.127835
2930.000000	1.127556
2928.000000	1.127114
2926.000000	1.126723
2924.000000	1.126383
2922.000000	1.125869
2920.000000	1.125360
2918.000000	1.125027
2916.000000	1.124817
2914.000000	1.124673
2912.000000	1.124560
2910.000000	1.124448
2908.000000	1.124292
2906.000000	1.124114
2904.000000	1.123878
2902.000000	1.123691
2900.000000	1.123559
2898.000000	1.123236
2896.000000	1.122840
2894.000000	1.122582
2892.000000	1.122388
2890.000000	1.122180
2888.000000	1.121947
2886.000000	1.121683
2884.000000	1.121528
2882.000000	1.121450
2880.000000	1.121245
2878.000000	1.120922
2876.000000	1.120696
2874.000000	1.120537
2872.000000	1.120390
2870.000000	1.120326
2868.000000	1.120220
2866.000000	1.120011
2864.000000	1.119668
2862.000000	1.119299
2860.000000	1.118939
2858.000000	1.118641
2856.000000	1.118436
2854.000000	1.118159
2852.000000	1.117874
2850.000000	1.117677
2848.000000	1.117521
2846.000000	1.117447
2844.000000	1.117401
2842.000000	1.117310
2840.000000	1.117192
2838.000000	1.117020
2836.000000	1.116912
2834.000000	1.116838
2832.000000	1.116673
2830.000000	1.116517
2828.000000	1.116452
2826.000000	1.116358
2824.000000	1.116230
2822.000000	1.116076
2820.000000	1.115954
2818.000000	1.115819
2816.000000	1.115673
2814.000000	1.115594
2812.000000	1.115475
2810.000000	1.115288
2808.000000	1.115104
2806.000000	1.114965
2804.000000	1.114959
2802.000000	1.114863
2800.000000	1.114613
2798.000000	1.114546
2796.000000	1.114618
2794.000000	1.114561
2792.000000	1.114422
2790.000000	1.114376
2788.000000	1.114214
2786.000000	1.114045
2784.000000	1.114065
2782.000000	1.114039
2780.000000	1.113918
2778.000000	1.113785
2776.000000	1.113753
2774.000000	1.113767
2772.000000	1.113727
2770.000000	1.113645
2768.000000	1.113563
2766.000000	1.113531
2764.000000	1.113523
2762.000000	1.113442
2760.000000	1.113336
2758.000000	1.113265
2756.000000	1.113269
2754.000000	1.113208
2752.000000	1.113146
2750.000000	1.113135
2748.000000	1.113121
2746.000000	1.113106
2744.000000	1.113178
2742.000000	1.113144
2740.000000	1.113047
2738.000000	1.112979
2736.000000	1.112964
2734.000000	1.113005
2732.000000	1.113022
2730.000000	1.112890
2728.000000	1.112815
2726.000000	1.112907
2724.000000	1.112992
2722.000000	1.112987
2720.000000	1.113001
2718.000000	1.113065
2716.000000	1.113080
2714.000000	1.113109
2712.000000	1.113166
2710.000000	1.113150
2708.000000	1.113138
2706.000000	1.113164
2704.000000	1.113139
2702.000000	1.113163
2700.000000	1.113290
2698.000000	1.113352
2696.000000	1.113353
2694.000000	1.113378
2692.000000	1.113450
2690.000000	1.113510
2688.000000	1.113628
2686.000000	1.113797
2684.000000	1.113870
2682.000000	1.113823
2680.000000	1.113881
2678.000000	1.114054
2676.000000	1.114206
2674.000000	1.114296
2672.000000	1.114337
2670.000000	1.114367
2668.000000	1.114459
2666.000000	1.114650
2664.000000	1.114800
2662.000000	1.114854
2660.000000	1.114934
2658.000000	1.115089
2656.000000	1.115246
2654.000000	1.115305
2652.000000	1.115351
2650.000000	1.115514
2648.000000	1.115658
2646.000000	1.115823
2644.000000	1.116036
2642.000000	1.116153
2640.000000	1.116283
2638.000000	1.116516
2636.000000	1.116689
2634.000000	1.116788
2632.000000	1.116927
2630.000000	1.117070
2628.000000	1.117247
2626.000000	1.117471
2624.000000	1.117622
2622.000000	1.117778
2620.000000	1.117969
2618.000000	1.118074
2616.000000	1.118203
2614.000000	1.118460
2612.000000	1.118685
2610.000000	1.118842
2608.000000	1.119000
2606.000000	1.119213
2604.000000	1.119395
2602.000000	1.119581
2600.000000	1.119741
2598.000000	1.119846
2596.000000	1.120006
2594.000000	1.120228
2592.000000	1.120447
2590.000000	1.120660
2588.000000	1.120844
2586.000000	1.121056
2584.000000	1.121238
2582.000000	1.121420
2580.000000	1.121625
2578.000000	1.121861
2576.000000	1.122087
2574.000000	1.122261
2572.000000	1.122431
2570.000000	1.122678
2568.000000	1.122961
2566.000000	1.123183
2564.000000	1.123363
2562.000000	1.123606
2560.000000	1.123861
2558.000000	1.124073
2556.000000	1.124313
2554.000000	1.124615
2552.000000	1.124858
2550.000000	1.125078
2548.000000	1.125284
2546.000000	1.125496
2544.000000	1.125779
2542.000000	1.126038
2540.000000	1.126312
2538.000000	1.126608
2536.000000	1.126774
2534.000000	1.127048
2532.000000	1.127412
2530.000000	1.127654
2528.000000	1.127903
2526.000000	1.128257
2524.000000	1.128616
2522.000000	1.128935
2520.000000	1.129216
2518.000000	1.129422
2516.000000	1.129672
2514.000000	1.129932
2512.000000	1.130186
2510.000000	1.130562
2508.000000	1.130899
2506.000000	1.131107
2504.000000	1.131306
2502.000000	1.131542
2500.000000	1.131780
2498.000000	1.132001
2496.000000	1.132331
2494.000000	1.132625
2492.000000	1.132843
2490.000000	1.133072
2488.000000	1.133273
2486.000000	1.133464
2484.000000	1.133740
2482.000000	1.133985
2480.000000	1.134139
2478.000000	1.134298
2476.000000	1.134417
2474.000000	1.134587
2472.000000	1.134854
2470.000000	1.134985
2468.000000	1.135181
2466.000000	1.135412
2464.000000	1.135516
2462.000000	1.135758
2460.000000	1.135937
2458.000000	1.135995
2456.000000	1.136057
2454.000000	1.136083
2452.000000	1.136170
2450.000000	1.136305
2448.000000	1.136472
2446.000000	1.136507
2444.000000	1.136511
2442.000000	1.136577
2440.000000	1.136674
2438.000000	1.136720
2436.000000	1.136715
2434.000000	1.136724
2432.000000	1.136745
2430.000000	1.136709
2428.000000	1.136733
2426.000000	1.136786
2424.000000	1.136805
2422.000000	1.136741
2420.000000	1.136580
2418.000000	1.136494
2416.000000	1.136487
2414.000000	1.136365
2412.000000	1.136194
2410.000000	1.136020
2408.000000	1.135900
2406.000000	1.135763
2404.000000	1.135623
2402.000000	1.135561
2400.000000	1.135555
2398.000000	1.135522
2396.000000	1.135469
2394.000000	1.135425
2392.000000	1.135430
2390.000000	1.135360
2388.000000	1.135232
2386.000000	1.135185
2384.000000	1.135192
2382.000000	1.135134
2380.000000	1.135035
2378.000000	1.134914
2376.000000	1.134714
2374.000000	1.134369
2372.000000	1.133920
2370.000000	1.133529
2368.000000	1.133157
2366.000000	1.132813
2364.000000	1.132596
2362.000000	1.132582
2360.000000	1.132663
2358.000000	1.132839
2356.000000	1.133250
2354.000000	1.133968
2352.000000	1.134803
2350.000000	1.135524
2348.000000	1.135807
2346.000000	1.135800
2344.000000	1.136102
2342.000000	1.136670
2340.000000	1.137008
2338.000000	1.136598
2336.000000	1.135932
2334.000000	1.135571
2332.000000	1.135459
2330.000000	1.135599
2328.000000	1.135991
2326.000000	1.136269
2324.000000	1.136472
2322.000000	1.136790
2320.000000	1.137183
2318.000000	1.137578
2316.000000	1.137869
2314.000000	1.138091
2312.000000	1.138281
2310.000000	1.138458
2308.000000	1.138686
2306.000000	1.138923
2304.000000	1.139100
2302.000000	1.139269
2300.000000	1.139497
2298.000000	1.139692
2296.000000	1.139785
2294.000000	1.139910
2292.000000	1.140123
2290.000000	1.140283
2288.000000	1.140289
2286.000000	1.140289
2284.000000	1.140409
2282.000000	1.140565
2280.000000	1.140820
2278.000000	1.141001
2276.000000	1.141044
2274.000000	1.141161
2272.000000	1.141425
2270.000000	1.141546
2268.000000	1.141526
2266.000000	1.141526
2264.000000	1.141665
2262.000000	1.141840
2260.000000	1.142017
2258.000000	1.142179
2256.000000	1.142216
2254.000000	1.142170
2252.000000	1.142281
2250.000000	1.142426
2248.000000	1.142517
2246.000000	1.142647
2244.000000	1.142795
2242.000000	1.142830
2240.000000	1.142818
2238.000000	1.142888
2236.000000	1.143027
2234.000000	1.143144
2232.000000	1.143286
2230.000000	1.143342
2228.000000	1.143323
2226.000000	1.143299
2224.000000	1.143358
2222.000000	1.143393
2220.000000	1.143392
2218.000000	1.143471
2216.000000	1.143610
2214.000000	1.143633
2212.000000	1.143655
2210.000000	1.143681
2208.000000	1.143673
2206.000000	1.143610
2204.000000	1.143638
2202.000000	1.143763
2200.000000	1.143791
2198.000000	1.143711
2196.000000	1.143684
2194.000000	1.143675
2192.000000	1.143590
2190.000000	1.143585
2188.000000	1.143633
2186.000000	1.143700
2184.000000	1.143752
2182.000000	1.143692
2180.000000	1.143504
2178.000000	1.143391
2176.000000	1.143484
2174.000000	1.143519
2172.000000	1.143497
2170.000000	1.143492
2168.000000	1.143488
2166.000000	1.143411
2164.000000	1.143217
2162.000000	1.143095
2160.000000	1.143060
2158.000000	1.142929
2156.000000	1.142823
2154.000000	1.142688
2152.000000	1.142582
2150.000000	1.142565
2148.000000	1.142490
2146.000000	1.142299
2144.000000	1.142145
2142.000000	1.142001
2140.000000	1.141919
2138.000000	1.141895
2136.000000	1.141883
2134.000000	1.141783
2132.000000	1.141564
2130.000000	1.141279
2128.000000	1.141073
2126.000000	1.140980
2124.000000	1.140805
2122.000000	1.140565
2120.000000	1.140413
2118.000000	1.140321
2116.000000	1.140137
2114.000000	1.139903
2112.000000	1.139757
2110.000000	1.139545
2108.000000	1.139271
2106.000000	1.138982
2104.000000	1.138846
2102.000000	1.138747
2100.000000	1.138605
2098.000000	1.138433
2096.000000	1.138209
2094.000000	1.137922
2092.000000	1.137654
2090.000000	1.137367
2088.000000	1.137090
2086.000000	1.136948
2084.000000	1.136761
2082.000000	1.136496
2080.000000	1.136278
2078.000000	1.136071
2076.000000	1.135840
2074.000000	1.135588
2072.000000	1.135271
2070.000000	1.134989
2068.000000	1.134772
2066.000000	1.134464
2064.000000	1.134202
2062.000000	1.133992
2060.000000	1.133776
2058.000000	1.133577
2056.000000	1.133313
2054.000000	1.133013
2052.000000	1.132828
2050.000000	1.132554
2048.000000	1.132291
2046.000000	1.132098
2044.000000	1.131887
2042.000000	1.131627
2040.000000	1.131340
2038.000000	1.131128
2036.000000	1.130932
2034.000000	1.130696
2032.000000	1.130507
2030.000000	1.130354
2028.000000	1.130140
2026.000000	1.129881
2024.000000	1.129666
2022.000000	1.129530
2020.000000	1.129338
2018.000000	1.129054
2016.000000	1.128815
2014.000000	1.128694
2012.000000	1.128553
2010.000000	1.128356
2008.000000	1.128142
2006.000000	1.127875
2004.000000	1.127690
2002.000000	1.127643
2000.000000	1.127515
1998.000000	1.127334
1996.000000	1.127168
1994.000000	1.126906
1992.000000	1.126645
1990.000000	1.126525
1988.000000	1.126490
1986.000000	1.126540
1984.000000	1.126599
1982.000000	1.126460
1980.000000	1.126273
1978.000000	1.126165
1976.000000	1.126054
1974.000000	1.125956
1972.000000	1.125909
1970.000000	1.125789
1968.000000	1.125645
1966.000000	1.125570
1964.000000	1.125497
1962.000000	1.125474
1960.000000	1.125478
1958.000000	1.125375
1956.000000	1.125306
1954.000000	1.125333
1952.000000	1.125432
1950.000000	1.125374
1948.000000	1.125170
1946.000000	1.125076
1944.000000	1.125030
1942.000000	1.124917
1940.000000	1.124997
1938.000000	1.125141
1936.000000	1.125240
1934.000000	1.125250
1932.000000	1.125258
1930.000000	1.125274
1928.000000	1.125312
1926.000000	1.125305
1924.000000	1.125175
1922.000000	1.125169
1920.000000	1.125089
1918.000000	1.124868
1916.000000	1.125223
1914.000000	1.125637
1912.000000	1.125658
1910.000000	1.125550
1908.000000	1.125607
1906.000000	1.125813
1904.000000	1.125982
1902.000000	1.126074
1900.000000	1.126127
1898.000000	1.126031
1896.000000	1.125984
1894.000000	1.126113
1892.000000	1.126200
1890.000000	1.126120
1888.000000	1.126411
1886.000000	1.126722
1884.000000	1.126823
1882.000000	1.126853
1880.000000	1.126917
1878.000000	1.126986
1876.000000	1.127066
1874.000000	1.127233
1872.000000	1.127237
1870.000000	1.126702
1868.000000	1.126578
1866.000000	1.127124
1864.000000	1.127569
1862.000000	1.127738
1860.000000	1.127952
1858.000000	1.128107
1856.000000	1.128247
1854.000000	1.128440
1852.000000	1.128626
1850.000000	1.128667
1848.000000	1.128571
1846.000000	1.127980
1844.000000	1.127548
1842.000000	1.128547
1840.000000	1.129390
1838.000000	1.129485
1836.000000	1.129659
1834.000000	1.129923
1832.000000	1.129788
1830.000000	1.129466
1828.000000	1.129849
1826.000000	1.130173
1824.000000	1.130520
1822.000000	1.131239
1820.000000	1.131689
1818.000000	1.131921
1816.000000	1.132164
1814.000000	1.132344
1812.000000	1.132374
1810.000000	1.132518
1808.000000	1.132948
1806.000000	1.133317
1804.000000	1.133456
1802.000000	1.133401
1800.000000	1.133558
1798.000000	1.134049
1796.000000	1.134466
1794.000000	1.133980
1792.000000	1.133639
1790.000000	1.134778
1788.000000	1.135800
1786.000000	1.135968
1784.000000	1.136317
1782.000000	1.136782
1780.000000	1.137032
1778.000000	1.137458
1776.000000	1.137624
1774.000000	1.136665
1772.000000	1.136146
1770.000000	1.137479
1768.000000	1.138561
1766.000000	1.139552
1764.000000	1.140018
1762.000000	1.139812
1760.000000	1.140418
1758.000000	1.140906
1756.000000	1.141288
1754.000000	1.141861
1752.000000	1.141263
1750.000000	1.141200
1748.000000	1.142297
1746.000000	1.143276
1744.000000	1.143633
1742.000000	1.143589
1740.000000	1.143545
1738.000000	1.144175
1736.000000	1.143233
1734.000000	1.141510
1732.000000	1.143535
1730.000000	1.145842
1728.000000	1.146686
1726.000000	1.147095
1724.000000	1.147271
1722.000000	1.147396
1720.000000	1.146326
1718.000000	1.144165
1716.000000	1.144606
1714.000000	1.146805
1712.000000	1.148287
1710.000000	1.148630
1708.000000	1.148358
1706.000000	1.147891
1704.000000	1.147792
1702.000000	1.146012
1700.000000	1.143970
1698.000000	1.144891
1696.000000	1.144901
1694.000000	1.146954
1692.000000	1.149326
1690.000000	1.149587
1688.000000	1.149189
1686.000000	1.146410
1684.000000	1.144741
1682.000000	1.147553
1680.000000	1.149537
1678.000000	1.149605
1676.000000	1.148646
1674.000000	1.148706
1672.000000	1.149170
1670.000000	1.148448
1668.000000	1.148936
1666.000000	1.150129
1664.000000	1.149999
1662.000000	1.149842
1660.000000	1.150650
1658.000000	1.150956
1656.000000	1.149213
1654.000000	1.144343
1652.000000	1.143924
1650.000000	1.148353
1648.000000	1.148770
1646.000000	1.147967
1644.000000	1.149639
1642.000000	1.151040
1640.000000	1.151024
1638.000000	1.149720
1636.000000	1.147570
1634.000000	1.148564
1632.000000	1.150892
1630.000000	1.151167
1628.000000	1.150717
1626.000000	1.150511
1624.000000	1.149960
1622.000000	1.150167
1620.000000	1.150640
1618.000000	1.148896
1616.000000	1.148188
1614.000000	1.150376
1612.000000	1.151479
1610.000000	1.151358
1608.000000	1.151197
1606.000000	1.151124
1604.000000	1.151156
1602.000000	1.151253
1600.000000	1.151304
1598.000000	1.151333
1596.000000	1.151341
1594.000000	1.151342
1592.000000	1.151380
1590.000000	1.151454
1588.000000	1.151633
1586.000000	1.151740
1584.000000	1.151706
1582.000000	1.151656
1580.000000	1.151518
1578.000000	1.149807
1576.000000	1.148081
1574.000000	1.149911
1572.000000	1.151093
1570.000000	1.150228
1568.000000	1.150582
1566.000000	1.151334
1564.000000	1.151367
1562.000000	1.149570
1560.000000	1.145258
1558.000000	1.144887
1556.000000	1.148329
1554.000000	1.149949
1552.000000	1.150968
1550.000000	1.151481
1548.000000	1.151633
1546.000000	1.151031
1544.000000	1.149758
1542.000000	1.147537
1540.000000	1.145703
1538.000000	1.147937
1536.000000	1.150830
1534.000000	1.150737
1532.000000	1.151267
1530.000000	1.152025
1528.000000	1.151519
1526.000000	1.150721
1524.000000	1.149895
1522.000000	1.148179
1520.000000	1.148746
1518.000000	1.150436
1516.000000	1.150966
1514.000000	1.151621
1512.000000	1.151677
1510.000000	1.150891
1508.000000	1.148140
1506.000000	1.147053
1504.000000	1.150313
1502.000000	1.152790
1500.000000	1.152817
1498.000000	1.151802
1496.000000	1.151047
1494.000000	1.151508
1492.000000	1.151148
1490.000000	1.150311
1488.000000	1.150830
1486.000000	1.151873
1484.000000	1.152568
1482.000000	1.152606
1480.000000	1.152627
1478.000000	1.152398
1476.000000	1.151512
1474.000000	1.150278
1472.000000	1.150150
1470.000000	1.151835
1468.000000	1.152725
1466.000000	1.152039
1464.000000	1.151887
1462.000000	1.152600
1460.000000	1.151838
1458.000000	1.149238
1456.000000	1.148990
1454.000000	1.151605
1452.000000	1.152506
1450.000000	1.152009
1448.000000	1.151562
1446.000000	1.152109
1444.000000	1.152592
1442.000000	1.152735
1440.000000	1.152404
1438.000000	1.150940
1436.000000	1.150324
1434.000000	1.151727
1432.000000	1.152218
1430.000000	1.152020
1428.000000	1.152184
1426.000000	1.152368
1424.000000	1.152076
1422.000000	1.151612
1420.000000	1.150277
1418.000000	1.150461
1416.000000	1.151948
1414.000000	1.152527
1412.000000	1.152382
1410.000000	1.152329
1408.000000	1.152343
1406.000000	1.151908
1404.000000	1.151686
1402.000000	1.151723
1400.000000	1.151089
1398.000000	1.150820
1396.000000	1.150676
1394.000000	1.150699
1392.000000	1.151323
1390.000000	1.151314
1388.000000	1.150740
1386.000000	1.150915
1384.000000	1.151364
1382.000000	1.151305
1380.000000	1.151256
1378.000000	1.151203
1376.000000	1.150918
1374.000000	1.150710
1372.000000	1.150959
1370.000000	1.150953
1368.000000	1.150737
1366.000000	1.150623
1364.000000	1.150231
1362.000000	1.149963
1360.000000	1.150224
1358.000000	1.150588
1356.000000	1.150666
1354.000000	1.150604
1352.000000	1.150548
1350.000000	1.150449
1348.000000	1.150294
1346.000000	1.150200
1344.000000	1.150254
1342.000000	1.150025
1340.000000	1.149529
1338.000000	1.149490
1336.000000	1.149680
1334.000000	1.149820
1332.000000	1.149906
1330.000000	1.149911
1328.000000	1.149914
1326.000000	1.149935
1324.000000	1.149900
1322.000000	1.149840
1320.000000	1.149638
1318.000000	1.149457
1316.000000	1.149456
1314.000000	1.149436
1312.000000	1.149411
1310.000000	1.149462
1308.000000	1.149384
1306.000000	1.149287
1304.000000	1.149164
1302.000000	1.149083
1300.000000	1.149100
1298.000000	1.149102
1296.000000	1.149066
1294.000000	1.149153
1292.000000	1.149180
1290.000000	1.149024
1288.000000	1.148882
1286.000000	1.148884
1284.000000	1.148911
1282.000000	1.148842
1280.000000	1.148893
1278.000000	1.148992
1276.000000	1.149083
1274.000000	1.149154
1272.000000	1.149352
1270.000000	1.149705
1268.000000	1.150263
1266.000000	1.151030
1264.000000	1.151820
1262.000000	1.152269
1260.000000	1.152334
1258.000000	1.151887
1256.000000	1.151020
1254.000000	1.150365
1252.000000	1.149967
1250.000000	1.149740
1248.000000	1.149736
1246.000000	1.149674
1244.000000	1.149540
1242.000000	1.149604
1240.000000	1.149629
1238.000000	1.149522
1236.000000	1.149513
1234.000000	1.149525
1232.000000	1.149308
1230.000000	1.149129
1228.000000	1.149102
1226.000000	1.149158
1224.000000	1.149376
1222.000000	1.149504
1220.000000	1.149394
1218.000000	1.149216
1216.000000	1.149205
1214.000000	1.149316
1212.000000	1.149301
1210.000000	1.149212
1208.000000	1.149216
1206.000000	1.149259
1204.000000	1.149324
1202.000000	1.149391
1200.000000	1.149433
1198.000000	1.149469
1196.000000	1.149650
1194.000000	1.149692
1192.000000	1.149832
1190.000000	1.150060
1188.000000	1.150126
1186.000000	1.150094
1184.000000	1.150228
1182.000000	1.150286
1180.000000	1.150231
1178.000000	1.150304
1176.000000	1.150576
1174.000000	1.150790
1172.000000	1.150808
1170.000000	1.150874
1168.000000	1.151067
1166.000000	1.151399
1164.000000	1.151463
1162.000000	1.151522
1160.000000	1.151616
1158.000000	1.151610
1156.000000	1.151775
1154.000000	1.151797
1152.000000	1.151545
1150.000000	1.151602
1148.000000	1.151550
1146.000000	1.151439
1144.000000	1.151254
1142.000000	1.151128
1140.000000	1.151234
1138.000000	1.151172
1136.000000	1.151208
1134.000000	1.151578
1132.000000	1.151780
1130.000000	1.151710
1128.000000	1.151300
1126.000000	1.151044
1124.000000	1.151225
1122.000000	1.151499
1120.000000	1.151606
1118.000000	1.151713
1116.000000	1.152049
1114.000000	1.152049
1112.000000	1.151824
1110.000000	1.152156
1108.000000	1.152601
1106.000000	1.152705
1104.000000	1.152355
1102.000000	1.152370
1100.000000	1.153104
1098.000000	1.153808
1096.000000	1.153622
1094.000000	1.152980
1092.000000	1.152658
1090.000000	1.152646
1088.000000	1.152591
1086.000000	1.152578
1084.000000	1.152195
1082.000000	1.151451
1080.000000	1.151075
1078.000000	1.150947
1076.000000	1.150707
1074.000000	1.150250
1072.000000	1.149462
1070.000000	1.148380
1068.000000	1.147818
1066.000000	1.147491
1064.000000	1.147499
1062.000000	1.147462
1060.000000	1.147173
1058.000000	1.146466
1056.000000	1.145301
1054.000000	1.144696
1052.000000	1.144211
1050.000000	1.143550
1048.000000	1.143020
1046.000000	1.142760
1044.000000	1.143051
1042.000000	1.142896
1040.000000	1.142098
1038.000000	1.141318
1036.000000	1.140599
1034.000000	1.140205
1032.000000	1.139952
1030.000000	1.139799
1028.000000	1.139951
1026.000000	1.139371
1024.000000	1.139017
1022.000000	1.139372
1020.000000	1.138916
1018.000000	1.137679
1016.000000	1.137894
1014.000000	1.138808
1012.000000	1.138563
1010.000000	1.138070
1008.000000	1.137877
1006.000000	1.137318
1004.000000	1.136303
1002.000000	1.135945
1000.000000	1.135721
