PE IR       SUBTECH     SPECTRUM    ASCII       PEDS        4.00        
   -1
TE109A_021_80K_after_90K.ASC
20/04/21
12:53:02.00
20/04/21
12:53:02.00
Administrator
TE109A, Tuesday, April 21 2020, 021.
1000.000000
#HDR
-1
-1
#GR
cm-1
A
1.0
0.0
6000.000000
-2.000000
2501
8
1.229000
1.120464
#DATA
6000.000000	1.166331
5998.000000	1.165650
5996.000000	1.166593
5994.000000	1.167338
5992.000000	1.167297
5990.000000	1.166237
5988.000000	1.165636
5986.000000	1.166366
5984.000000	1.166665
5982.000000	1.166446
5980.000000	1.166432
5978.000000	1.166695
5976.000000	1.166833
5974.000000	1.167269
5972.000000	1.167677
5970.000000	1.167451
5968.000000	1.167013
5966.000000	1.166342
5964.000000	1.166302
5962.000000	1.166394
5960.000000	1.165682
5958.000000	1.165795
5956.000000	1.166030
5954.000000	1.166476
5952.000000	1.166365
5950.000000	1.165986
5948.000000	1.165785
5946.000000	1.165461
5944.000000	1.165089
5942.000000	1.165372
5940.000000	1.165930
5938.000000	1.165700
5936.000000	1.165165
5934.000000	1.164814
5932.000000	1.165225
5930.000000	1.165762
5928.000000	1.165967
5926.000000	1.166188
5924.000000	1.166451
5922.000000	1.166282
5920.000000	1.165714
5918.000000	1.164910
5916.000000	1.164631
5914.000000	1.164705
5912.000000	1.164878
5910.000000	1.165260
5908.000000	1.165600
5906.000000	1.165642
5904.000000	1.165304
5902.000000	1.165060
5900.000000	1.165040
5898.000000	1.165418
5896.000000	1.165660
5894.000000	1.165569
5892.000000	1.165083
5890.000000	1.164521
5888.000000	1.164662
5886.000000	1.164963
5884.000000	1.164905
5882.000000	1.164532
5880.000000	1.163958
5878.000000	1.163751
5876.000000	1.163729
5874.000000	1.164088
5872.000000	1.164519
5870.000000	1.164415
5868.000000	1.164354
5866.000000	1.164501
5864.000000	1.164955
5862.000000	1.165564
5860.000000	1.165202
5858.000000	1.164247
5856.000000	1.163579
5854.000000	1.163659
5852.000000	1.163644
5850.000000	1.163164
5848.000000	1.162847
5846.000000	1.163102
5844.000000	1.163259
5842.000000	1.163146
5840.000000	1.163358
5838.000000	1.164134
5836.000000	1.164672
5834.000000	1.164436
5832.000000	1.164003
5830.000000	1.163673
5828.000000	1.163892
5826.000000	1.164313
5824.000000	1.164387
5822.000000	1.164193
5820.000000	1.164168
5818.000000	1.164437
5816.000000	1.164710
5814.000000	1.164635
5812.000000	1.164433
5810.000000	1.164309
5808.000000	1.164110
5806.000000	1.163862
5804.000000	1.163649
5802.000000	1.163391
5800.000000	1.163441
5798.000000	1.163543
5796.000000	1.163536
5794.000000	1.163351
5792.000000	1.163494
5790.000000	1.163493
5788.000000	1.163525
5786.000000	1.163634
5784.000000	1.164016
5782.000000	1.164492
5780.000000	1.164449
5778.000000	1.164206
5776.000000	1.164210
5774.000000	1.164305
5772.000000	1.164110
5770.000000	1.163583
5768.000000	1.163075
5766.000000	1.163092
5764.000000	1.163409
5762.000000	1.163645
5760.000000	1.163350
5758.000000	1.162788
5756.000000	1.162637
5754.000000	1.162855
5752.000000	1.162755
5750.000000	1.161982
5748.000000	1.161679
5746.000000	1.162188
5744.000000	1.162605
5742.000000	1.162519
5740.000000	1.162194
5738.000000	1.162163
5736.000000	1.162217
5734.000000	1.162380
5732.000000	1.162779
5730.000000	1.162993
5728.000000	1.163165
5726.000000	1.163495
5724.000000	1.163813
5722.000000	1.163844
5720.000000	1.163378
5718.000000	1.162986
5716.000000	1.163160
5714.000000	1.163604
5712.000000	1.163735
5710.000000	1.163340
5708.000000	1.162801
5706.000000	1.162869
5704.000000	1.162905
5702.000000	1.162889
5700.000000	1.162725
5698.000000	1.162910
5696.000000	1.162948
5694.000000	1.162991
5692.000000	1.162946
5690.000000	1.163370
5688.000000	1.163550
5686.000000	1.163175
5684.000000	1.162832
5682.000000	1.162606
5680.000000	1.162533
5678.000000	1.162444
5676.000000	1.162536
5674.000000	1.162940
5672.000000	1.163283
5670.000000	1.163038
5668.000000	1.162954
5666.000000	1.162683
5664.000000	1.162592
5662.000000	1.162843
5660.000000	1.163006
5658.000000	1.163003
5656.000000	1.162536
5654.000000	1.162313
5652.000000	1.162329
5650.000000	1.162291
5648.000000	1.161938
5646.000000	1.161723
5644.000000	1.161681
5642.000000	1.161881
5640.000000	1.162312
5638.000000	1.162592
5636.000000	1.162727
5634.000000	1.162386
5632.000000	1.162298
5630.000000	1.162583
5628.000000	1.162924
5626.000000	1.162846
5624.000000	1.162556
5622.000000	1.162710
5620.000000	1.163019
5618.000000	1.163250
5616.000000	1.163108
5614.000000	1.163075
5612.000000	1.163050
5610.000000	1.162952
5608.000000	1.162875
5606.000000	1.162852
5604.000000	1.162836
5602.000000	1.162729
5600.000000	1.162518
5598.000000	1.162369
5596.000000	1.162288
5594.000000	1.162463
5592.000000	1.162531
5590.000000	1.162538
5588.000000	1.162355
5586.000000	1.162379
5584.000000	1.162437
5582.000000	1.162357
5580.000000	1.162087
5578.000000	1.161900
5576.000000	1.161763
5574.000000	1.161477
5572.000000	1.161366
5570.000000	1.161347
5568.000000	1.161572
5566.000000	1.161731
5564.000000	1.161659
5562.000000	1.161616
5560.000000	1.161681
5558.000000	1.161577
5556.000000	1.161292
5554.000000	1.160932
5552.000000	1.160611
5550.000000	1.160712
5548.000000	1.160752
5546.000000	1.160686
5544.000000	1.160296
5542.000000	1.160404
5540.000000	1.160817
5538.000000	1.161062
5536.000000	1.161017
5534.000000	1.161068
5532.000000	1.161264
5530.000000	1.161390
5528.000000	1.161345
5526.000000	1.161344
5524.000000	1.161083
5522.000000	1.161012
5520.000000	1.161161
5518.000000	1.161361
5516.000000	1.161283
5514.000000	1.160778
5512.000000	1.160158
5510.000000	1.159918
5508.000000	1.160126
5506.000000	1.160628
5504.000000	1.161044
5502.000000	1.161230
5500.000000	1.161180
5498.000000	1.160935
5496.000000	1.160690
5494.000000	1.160433
5492.000000	1.160311
5490.000000	1.160411
5488.000000	1.160659
5486.000000	1.160770
5484.000000	1.160615
5482.000000	1.160498
5480.000000	1.160574
5478.000000	1.160491
5476.000000	1.160333
5474.000000	1.160079
5472.000000	1.160152
5470.000000	1.160292
5468.000000	1.160252
5466.000000	1.160007
5464.000000	1.160040
5462.000000	1.160496
5460.000000	1.160946
5458.000000	1.160773
5456.000000	1.160259
5454.000000	1.160046
5452.000000	1.159922
5450.000000	1.159593
5448.000000	1.159242
5446.000000	1.159149
5444.000000	1.159203
5442.000000	1.159063
5440.000000	1.159244
5438.000000	1.159512
5436.000000	1.159648
5434.000000	1.159772
5432.000000	1.160097
5430.000000	1.160230
5428.000000	1.159736
5426.000000	1.159200
5424.000000	1.159203
5422.000000	1.159682
5420.000000	1.159622
5418.000000	1.159170
5416.000000	1.158885
5414.000000	1.159257
5412.000000	1.159819
5410.000000	1.160189
5408.000000	1.160029
5406.000000	1.159401
5404.000000	1.159019
5402.000000	1.159125
5400.000000	1.159358
5398.000000	1.159300
5396.000000	1.158975
5394.000000	1.158744
5392.000000	1.158523
5390.000000	1.158587
5388.000000	1.158634
5386.000000	1.158947
5384.000000	1.159330
5382.000000	1.159515
5380.000000	1.159336
5378.000000	1.159087
5376.000000	1.159068
5374.000000	1.158955
5372.000000	1.158904
5370.000000	1.158800
5368.000000	1.158958
5366.000000	1.159071
5364.000000	1.159170
5362.000000	1.159144
5360.000000	1.159130
5358.000000	1.159080
5356.000000	1.158887
5354.000000	1.158687
5352.000000	1.158575
5350.000000	1.158643
5348.000000	1.158748
5346.000000	1.158696
5344.000000	1.158679
5342.000000	1.158690
5340.000000	1.158722
5338.000000	1.158688
5336.000000	1.158708
5334.000000	1.158971
5332.000000	1.159336
5330.000000	1.159764
5328.000000	1.159798
5326.000000	1.159767
5324.000000	1.159891
5322.000000	1.160143
5320.000000	1.160100
5318.000000	1.159823
5316.000000	1.159875
5314.000000	1.159926
5312.000000	1.159895
5310.000000	1.159918
5308.000000	1.160292
5306.000000	1.160584
5304.000000	1.160256
5302.000000	1.160086
5300.000000	1.160479
5298.000000	1.161028
5296.000000	1.161365
5294.000000	1.161574
5292.000000	1.161567
5290.000000	1.161339
5288.000000	1.161254
5286.000000	1.161627
5284.000000	1.162112
5282.000000	1.162423
5280.000000	1.162525
5278.000000	1.162613
5276.000000	1.162881
5274.000000	1.163181
5272.000000	1.163062
5270.000000	1.162995
5268.000000	1.163123
5266.000000	1.163377
5264.000000	1.163672
5262.000000	1.164016
5260.000000	1.164357
5258.000000	1.164413
5256.000000	1.164329
5254.000000	1.164474
5252.000000	1.164834
5250.000000	1.165235
5248.000000	1.165634
5246.000000	1.166004
5244.000000	1.166380
5242.000000	1.166647
5240.000000	1.166902
5238.000000	1.166957
5236.000000	1.166901
5234.000000	1.167224
5232.000000	1.167812
5230.000000	1.168141
5228.000000	1.168254
5226.000000	1.168508
5224.000000	1.169032
5222.000000	1.169481
5220.000000	1.169912
5218.000000	1.170206
5216.000000	1.170652
5214.000000	1.171257
5212.000000	1.171929
5210.000000	1.172436
5208.000000	1.172727
5206.000000	1.173060
5204.000000	1.173304
5202.000000	1.173609
5200.000000	1.173914
5198.000000	1.174382
5196.000000	1.174747
5194.000000	1.175005
5192.000000	1.175351
5190.000000	1.175795
5188.000000	1.176227
5186.000000	1.176618
5184.000000	1.177074
5182.000000	1.177607
5180.000000	1.177939
5178.000000	1.178356
5176.000000	1.178907
5174.000000	1.179488
5172.000000	1.179853
5170.000000	1.180219
5168.000000	1.180707
5166.000000	1.180962
5164.000000	1.181041
5162.000000	1.181682
5160.000000	1.182537
5158.000000	1.182920
5156.000000	1.182958
5154.000000	1.183125
5152.000000	1.183321
5150.000000	1.183385
5148.000000	1.183867
5146.000000	1.184392
5144.000000	1.184483
5142.000000	1.184530
5140.000000	1.184605
5138.000000	1.184986
5136.000000	1.185451
5134.000000	1.185821
5132.000000	1.185887
5130.000000	1.185836
5128.000000	1.186041
5126.000000	1.186206
5124.000000	1.186571
5122.000000	1.187004
5120.000000	1.187151
5118.000000	1.187005
5116.000000	1.186826
5114.000000	1.186952
5112.000000	1.187513
5110.000000	1.188075
5108.000000	1.188381
5106.000000	1.188399
5104.000000	1.188265
5102.000000	1.188179
5100.000000	1.188279
5098.000000	1.188324
5096.000000	1.188167
5094.000000	1.188064
5092.000000	1.188047
5090.000000	1.188014
5088.000000	1.188212
5086.000000	1.188538
5084.000000	1.188430
5082.000000	1.188226
5080.000000	1.188190
5078.000000	1.188175
5076.000000	1.188079
5074.000000	1.187947
5072.000000	1.187909
5070.000000	1.187859
5068.000000	1.187906
5066.000000	1.187947
5064.000000	1.188108
5062.000000	1.188108
5060.000000	1.187924
5058.000000	1.187982
5056.000000	1.188286
5054.000000	1.188366
5052.000000	1.188191
5050.000000	1.188070
5048.000000	1.188133
5046.000000	1.187964
5044.000000	1.187759
5042.000000	1.187657
5040.000000	1.187799
5038.000000	1.187903
5036.000000	1.187756
5034.000000	1.187544
5032.000000	1.187582
5030.000000	1.187916
5028.000000	1.187894
5026.000000	1.187338
5024.000000	1.186998
5022.000000	1.187224
5020.000000	1.187503
5018.000000	1.187373
5016.000000	1.187074
5014.000000	1.186899
5012.000000	1.186812
5010.000000	1.186811
5008.000000	1.186876
5006.000000	1.186901
5004.000000	1.186638
5002.000000	1.186281
5000.000000	1.186201
4998.000000	1.186423
4996.000000	1.186639
4994.000000	1.186499
4992.000000	1.186269
4990.000000	1.186111
4988.000000	1.185853
4986.000000	1.185433
4984.000000	1.185180
4982.000000	1.185217
4980.000000	1.185099
4978.000000	1.184884
4976.000000	1.184649
4974.000000	1.184457
4972.000000	1.184230
4970.000000	1.184169
4968.000000	1.184289
4966.000000	1.184407
4964.000000	1.184422
4962.000000	1.184319
4960.000000	1.184173
4958.000000	1.184112
4956.000000	1.184232
4954.000000	1.184083
4952.000000	1.183537
4950.000000	1.183063
4948.000000	1.182857
4946.000000	1.182758
4944.000000	1.182861
4942.000000	1.182915
4940.000000	1.182698
4938.000000	1.182305
4936.000000	1.181941
4934.000000	1.181590
4932.000000	1.181288
4930.000000	1.181020
4928.000000	1.180785
4926.000000	1.180771
4924.000000	1.180808
4922.000000	1.180809
4920.000000	1.180630
4918.000000	1.180399
4916.000000	1.180415
4914.000000	1.180567
4912.000000	1.180290
4910.000000	1.179695
4908.000000	1.179174
4906.000000	1.178842
4904.000000	1.178701
4902.000000	1.178753
4900.000000	1.178743
4898.000000	1.178342
4896.000000	1.177732
4894.000000	1.177487
4892.000000	1.177672
4890.000000	1.177768
4888.000000	1.177440
4886.000000	1.177073
4884.000000	1.176932
4882.000000	1.176810
4880.000000	1.176360
4878.000000	1.175776
4876.000000	1.175644
4874.000000	1.175851
4872.000000	1.175820
4870.000000	1.175329
4868.000000	1.174789
4866.000000	1.174485
4864.000000	1.174263
4862.000000	1.174134
4860.000000	1.174154
4858.000000	1.173978
4856.000000	1.173509
4854.000000	1.173348
4852.000000	1.173439
4850.000000	1.173156
4848.000000	1.172562
4846.000000	1.172336
4844.000000	1.172373
4842.000000	1.172176
4840.000000	1.171682
4838.000000	1.171424
4836.000000	1.171446
4834.000000	1.171263
4832.000000	1.170846
4830.000000	1.170495
4828.000000	1.170247
4826.000000	1.170042
4824.000000	1.169985
4822.000000	1.169854
4820.000000	1.169411
4818.000000	1.168935
4816.000000	1.168740
4814.000000	1.168625
4812.000000	1.168380
4810.000000	1.168034
4808.000000	1.167668
4806.000000	1.167281
4804.000000	1.167081
4802.000000	1.166984
4800.000000	1.166797
4798.000000	1.166409
4796.000000	1.166034
4794.000000	1.165759
4792.000000	1.165577
4790.000000	1.165446
4788.000000	1.165306
4786.000000	1.164898
4784.000000	1.164441
4782.000000	1.164231
4780.000000	1.164188
4778.000000	1.163939
4776.000000	1.163481
4774.000000	1.163132
4772.000000	1.162987
4770.000000	1.162868
4768.000000	1.162737
4766.000000	1.162542
4764.000000	1.162214
4762.000000	1.161870
4760.000000	1.161547
4758.000000	1.161362
4756.000000	1.161379
4754.000000	1.161303
4752.000000	1.160703
4750.000000	1.160147
4748.000000	1.160025
4746.000000	1.160006
4744.000000	1.159755
4742.000000	1.159585
4740.000000	1.159530
4738.000000	1.159355
4736.000000	1.159023
4734.000000	1.158557
4732.000000	1.158010
4730.000000	1.157560
4728.000000	1.157419
4726.000000	1.157595
4724.000000	1.157767
4722.000000	1.157537
4720.000000	1.156964
4718.000000	1.156566
4716.000000	1.156376
4714.000000	1.156096
4712.000000	1.155761
4710.000000	1.155708
4708.000000	1.155710
4706.000000	1.155445
4704.000000	1.155061
4702.000000	1.154749
4700.000000	1.154585
4698.000000	1.154582
4696.000000	1.154497
4694.000000	1.154183
4692.000000	1.153940
4690.000000	1.153721
4688.000000	1.153406
4686.000000	1.153156
4684.000000	1.153044
4682.000000	1.152911
4680.000000	1.152850
4678.000000	1.152658
4676.000000	1.152311
4674.000000	1.152195
4672.000000	1.152250
4670.000000	1.152059
4668.000000	1.151765
4666.000000	1.151602
4664.000000	1.151523
4662.000000	1.151342
4660.000000	1.151106
4658.000000	1.150899
4656.000000	1.150612
4654.000000	1.150370
4652.000000	1.150383
4650.000000	1.150590
4648.000000	1.150607
4646.000000	1.150367
4644.000000	1.150036
4642.000000	1.149868
4640.000000	1.149800
4638.000000	1.149648
4636.000000	1.149467
4634.000000	1.149303
4632.000000	1.149243
4630.000000	1.149142
4628.000000	1.148868
4626.000000	1.148609
4624.000000	1.148553
4622.000000	1.148497
4620.000000	1.148500
4618.000000	1.148700
4616.000000	1.148586
4614.000000	1.148081
4612.000000	1.147701
4610.000000	1.147603
4608.000000	1.147587
4606.000000	1.147677
4604.000000	1.147743
4602.000000	1.147720
4600.000000	1.147582
4598.000000	1.147333
4596.000000	1.147051
4594.000000	1.146831
4592.000000	1.146597
4590.000000	1.146387
4588.000000	1.146288
4586.000000	1.146378
4584.000000	1.146525
4582.000000	1.146453
4580.000000	1.146046
4578.000000	1.145595
4576.000000	1.145447
4574.000000	1.145490
4572.000000	1.145396
4570.000000	1.145224
4568.000000	1.145172
4566.000000	1.145200
4564.000000	1.145221
4562.000000	1.145258
4560.000000	1.145410
4558.000000	1.145590
4556.000000	1.145526
4554.000000	1.145163
4552.000000	1.144700
4550.000000	1.144287
4548.000000	1.144107
4546.000000	1.144306
4544.000000	1.144608
4542.000000	1.144533
4540.000000	1.144229
4538.000000	1.144083
4536.000000	1.144064
4534.000000	1.143915
4532.000000	1.143701
4530.000000	1.143612
4528.000000	1.143544
4526.000000	1.143239
4524.000000	1.142980
4522.000000	1.143179
4520.000000	1.143462
4518.000000	1.143363
4516.000000	1.143122
4514.000000	1.143171
4512.000000	1.143233
4510.000000	1.142962
4508.000000	1.142644
4506.000000	1.142448
4504.000000	1.142325
4502.000000	1.142437
4500.000000	1.142643
4498.000000	1.142563
4496.000000	1.142358
4494.000000	1.142288
4492.000000	1.142143
4490.000000	1.141830
4488.000000	1.141550
4486.000000	1.141480
4484.000000	1.141589
4482.000000	1.141693
4480.000000	1.141665
4478.000000	1.141498
4476.000000	1.141356
4474.000000	1.141234
4472.000000	1.141188
4470.000000	1.141365
4468.000000	1.141458
4466.000000	1.141201
4464.000000	1.140977
4462.000000	1.140954
4460.000000	1.140927
4458.000000	1.140901
4456.000000	1.140934
4454.000000	1.141078
4452.000000	1.141200
4450.000000	1.141113
4448.000000	1.140839
4446.000000	1.140583
4444.000000	1.140514
4442.000000	1.140488
4440.000000	1.140475
4438.000000	1.140609
4436.000000	1.140750
4434.000000	1.140795
4432.000000	1.140721
4430.000000	1.140499
4428.000000	1.140364
4426.000000	1.140377
4424.000000	1.140318
4422.000000	1.140197
4420.000000	1.140087
4418.000000	1.140117
4416.000000	1.140276
4414.000000	1.140368
4412.000000	1.140275
4410.000000	1.140159
4408.000000	1.140237
4406.000000	1.140424
4404.000000	1.140417
4402.000000	1.140170
4400.000000	1.140040
4398.000000	1.140114
4396.000000	1.140194
4394.000000	1.140113
4392.000000	1.139930
4390.000000	1.139743
4388.000000	1.139721
4386.000000	1.139746
4384.000000	1.139835
4382.000000	1.140023
4380.000000	1.139976
4378.000000	1.139667
4376.000000	1.139705
4374.000000	1.140131
4372.000000	1.140393
4370.000000	1.140360
4368.000000	1.140172
4366.000000	1.139956
4364.000000	1.140015
4362.000000	1.140371
4360.000000	1.140605
4358.000000	1.140725
4356.000000	1.140754
4354.000000	1.140595
4352.000000	1.140355
4350.000000	1.140247
4348.000000	1.140273
4346.000000	1.140400
4344.000000	1.140523
4342.000000	1.140702
4340.000000	1.140902
4338.000000	1.140953
4336.000000	1.140928
4334.000000	1.141022
4332.000000	1.141139
4330.000000	1.141221
4328.000000	1.141380
4326.000000	1.141512
4324.000000	1.141529
4322.000000	1.141460
4320.000000	1.141451
4318.000000	1.141649
4316.000000	1.141860
4314.000000	1.141839
4312.000000	1.141783
4310.000000	1.141840
4308.000000	1.141896
4306.000000	1.141900
4304.000000	1.141983
4302.000000	1.142223
4300.000000	1.142426
4298.000000	1.142358
4296.000000	1.142216
4294.000000	1.142339
4292.000000	1.142537
4290.000000	1.142440
4288.000000	1.142154
4286.000000	1.142048
4284.000000	1.142180
4282.000000	1.142465
4280.000000	1.142784
4278.000000	1.142997
4276.000000	1.143043
4274.000000	1.143075
4272.000000	1.143092
4270.000000	1.143043
4268.000000	1.143019
4266.000000	1.143078
4264.000000	1.143167
4262.000000	1.143289
4260.000000	1.143312
4258.000000	1.143215
4256.000000	1.143246
4254.000000	1.143442
4252.000000	1.143623
4250.000000	1.143691
4248.000000	1.143798
4246.000000	1.144061
4244.000000	1.144256
4242.000000	1.144241
4240.000000	1.144105
4238.000000	1.143969
4236.000000	1.143940
4234.000000	1.143935
4232.000000	1.143851
4230.000000	1.143856
4228.000000	1.144017
4226.000000	1.144180
4224.000000	1.144240
4222.000000	1.144272
4220.000000	1.144267
4218.000000	1.144208
4216.000000	1.144305
4214.000000	1.144467
4212.000000	1.144430
4210.000000	1.144416
4208.000000	1.144545
4206.000000	1.144541
4204.000000	1.144466
4202.000000	1.144489
4200.000000	1.144458
4198.000000	1.144412
4196.000000	1.144486
4194.000000	1.144543
4192.000000	1.144523
4190.000000	1.144506
4188.000000	1.144458
4186.000000	1.144433
4184.000000	1.144514
4182.000000	1.144588
4180.000000	1.144561
4178.000000	1.144573
4176.000000	1.144647
4174.000000	1.144772
4172.000000	1.144898
4170.000000	1.144828
4168.000000	1.144648
4166.000000	1.144693
4164.000000	1.144843
4162.000000	1.144786
4160.000000	1.144668
4158.000000	1.144791
4156.000000	1.144914
4154.000000	1.144828
4152.000000	1.144682
4150.000000	1.144597
4148.000000	1.144579
4146.000000	1.144626
4144.000000	1.144638
4142.000000	1.144662
4140.000000	1.144753
4138.000000	1.144836
4136.000000	1.144724
4134.000000	1.144591
4132.000000	1.144670
4130.000000	1.144755
4128.000000	1.144665
4126.000000	1.144578
4124.000000	1.144567
4122.000000	1.144610
4120.000000	1.144659
4118.000000	1.144734
4116.000000	1.144715
4114.000000	1.144572
4112.000000	1.144500
4110.000000	1.144508
4108.000000	1.144416
4106.000000	1.144397
4104.000000	1.144543
4102.000000	1.144635
4100.000000	1.144566
4098.000000	1.144492
4096.000000	1.144443
4094.000000	1.144460
4092.000000	1.144565
4090.000000	1.144553
4088.000000	1.144397
4086.000000	1.144365
4084.000000	1.144478
4082.000000	1.144522
4080.000000	1.144416
4078.000000	1.144380
4076.000000	1.144499
4074.000000	1.144595
4072.000000	1.144595
4070.000000	1.144710
4068.000000	1.144990
4066.000000	1.145084
4064.000000	1.144892
4062.000000	1.144665
4060.000000	1.144560
4058.000000	1.144680
4056.000000	1.144892
4054.000000	1.144900
4052.000000	1.144705
4050.000000	1.144641
4048.000000	1.144717
4046.000000	1.144764
4044.000000	1.144755
4042.000000	1.144710
4040.000000	1.144681
4038.000000	1.144656
4036.000000	1.144585
4034.000000	1.144645
4032.000000	1.144822
4030.000000	1.144943
4028.000000	1.144936
4026.000000	1.144861
4024.000000	1.144852
4022.000000	1.144872
4020.000000	1.144776
4018.000000	1.144668
4016.000000	1.144599
4014.000000	1.144512
4012.000000	1.144498
4010.000000	1.144617
4008.000000	1.144641
4006.000000	1.144485
4004.000000	1.144421
4002.000000	1.144530
4000.000000	1.144632
3998.000000	1.144558
3996.000000	1.144223
3994.000000	1.143965
3992.000000	1.144061
3990.000000	1.144149
3988.000000	1.143998
3986.000000	1.143893
3984.000000	1.143844
3982.000000	1.143685
3980.000000	1.143601
3978.000000	1.143567
3976.000000	1.143423
3974.000000	1.143231
3972.000000	1.142891
3970.000000	1.142598
3968.000000	1.142640
3966.000000	1.142733
3964.000000	1.142666
3962.000000	1.142550
3960.000000	1.142390
3958.000000	1.142008
3956.000000	1.141620
3954.000000	1.141523
3952.000000	1.141241
3950.000000	1.140717
3948.000000	1.140478
3946.000000	1.140396
3944.000000	1.140112
3942.000000	1.139770
3940.000000	1.139496
3938.000000	1.139190
3936.000000	1.138935
3934.000000	1.138658
3932.000000	1.138171
3930.000000	1.137778
3928.000000	1.137742
3926.000000	1.137612
3924.000000	1.137139
3922.000000	1.136790
3920.000000	1.136481
3918.000000	1.135883
3916.000000	1.135383
3914.000000	1.135223
3912.000000	1.135033
3910.000000	1.134727
3908.000000	1.134486
3906.000000	1.133974
3904.000000	1.133082
3902.000000	1.132428
3900.000000	1.132154
3898.000000	1.132228
3896.000000	1.132540
3894.000000	1.132336
3892.000000	1.131366
3890.000000	1.130914
3888.000000	1.130945
3886.000000	1.130214
3884.000000	1.129706
3882.000000	1.129687
3880.000000	1.129271
3878.000000	1.129223
3876.000000	1.129268
3874.000000	1.128997
3872.000000	1.128451
3870.000000	1.127478
3868.000000	1.127295
3866.000000	1.127480
3864.000000	1.127096
3862.000000	1.126937
3860.000000	1.127133
3858.000000	1.127654
3856.000000	1.126946
3854.000000	1.124276
3852.000000	1.123150
3850.000000	1.124551
3848.000000	1.125782
3846.000000	1.125922
3844.000000	1.125586
3842.000000	1.125324
3840.000000	1.124618
3838.000000	1.123282
3836.000000	1.122961
3834.000000	1.123633
3832.000000	1.123855
3830.000000	1.123836
3828.000000	1.123860
3826.000000	1.123898
3824.000000	1.123812
3822.000000	1.122966
3820.000000	1.122592
3818.000000	1.122784
3816.000000	1.122104
3814.000000	1.122009
3812.000000	1.122807
3810.000000	1.123116
3808.000000	1.122531
3806.000000	1.122107
3804.000000	1.122279
3802.000000	1.121564
3800.000000	1.121245
3798.000000	1.122032
3796.000000	1.122282
3794.000000	1.122256
3792.000000	1.122369
3790.000000	1.122513
3788.000000	1.122734
3786.000000	1.122757
3784.000000	1.122730
3782.000000	1.122766
3780.000000	1.122553
3778.000000	1.122356
3776.000000	1.122404
3774.000000	1.122550
3772.000000	1.122521
3770.000000	1.122221
3768.000000	1.122202
3766.000000	1.122276
3764.000000	1.122450
3762.000000	1.122761
3760.000000	1.122591
3758.000000	1.122427
3756.000000	1.122817
3754.000000	1.122766
3752.000000	1.121664
3750.000000	1.120870
3748.000000	1.121663
3746.000000	1.121727
3744.000000	1.120464
3742.000000	1.121284
3740.000000	1.122875
3738.000000	1.122810
3736.000000	1.122246
3734.000000	1.122261
3732.000000	1.122513
3730.000000	1.123188
3728.000000	1.123935
3726.000000	1.124014
3724.000000	1.124006
3722.000000	1.124258
3720.000000	1.124693
3718.000000	1.125172
3716.000000	1.125750
3714.000000	1.125890
3712.000000	1.125489
3710.000000	1.125991
3708.000000	1.127398
3706.000000	1.128549
3704.000000	1.129110
3702.000000	1.129347
3700.000000	1.130053
3698.000000	1.131273
3696.000000	1.132544
3694.000000	1.133658
3692.000000	1.134397
3690.000000	1.134565
3688.000000	1.134872
3686.000000	1.136613
3684.000000	1.138970
3682.000000	1.140840
3680.000000	1.142521
3678.000000	1.143806
3676.000000	1.144346
3674.000000	1.146125
3672.000000	1.148627
3670.000000	1.150021
3668.000000	1.152216
3666.000000	1.155243
3664.000000	1.157771
3662.000000	1.159886
3660.000000	1.161990
3658.000000	1.163688
3656.000000	1.165072
3654.000000	1.167309
3652.000000	1.169406
3650.000000	1.170214
3648.000000	1.171350
3646.000000	1.173848
3644.000000	1.176486
3642.000000	1.178487
3640.000000	1.180237
3638.000000	1.181754
3636.000000	1.183023
3634.000000	1.184480
3632.000000	1.186075
3630.000000	1.186515
3628.000000	1.186808
3626.000000	1.188885
3624.000000	1.191212
3622.000000	1.192378
3620.000000	1.192765
3618.000000	1.193407
3616.000000	1.194683
3614.000000	1.195814
3612.000000	1.196591
3610.000000	1.197212
3608.000000	1.197880
3606.000000	1.198978
3604.000000	1.200128
3602.000000	1.200942
3600.000000	1.201608
3598.000000	1.202242
3596.000000	1.202809
3594.000000	1.203434
3592.000000	1.204227
3590.000000	1.204782
3588.000000	1.204783
3586.000000	1.205033
3584.000000	1.205777
3582.000000	1.206394
3580.000000	1.206753
3578.000000	1.207129
3576.000000	1.207519
3574.000000	1.207787
3572.000000	1.208292
3570.000000	1.208782
3568.000000	1.208673
3566.000000	1.208615
3564.000000	1.209147
3562.000000	1.209639
3560.000000	1.209856
3558.000000	1.210152
3556.000000	1.210596
3554.000000	1.210931
3552.000000	1.211021
3550.000000	1.211077
3548.000000	1.211207
3546.000000	1.211353
3544.000000	1.211575
3542.000000	1.212007
3540.000000	1.212493
3538.000000	1.212689
3536.000000	1.212644
3534.000000	1.212787
3532.000000	1.213134
3530.000000	1.213364
3528.000000	1.213459
3526.000000	1.213546
3524.000000	1.213603
3522.000000	1.213720
3520.000000	1.214050
3518.000000	1.214380
3516.000000	1.214685
3514.000000	1.214962
3512.000000	1.215053
3510.000000	1.215169
3508.000000	1.215490
3506.000000	1.215765
3504.000000	1.215785
3502.000000	1.215901
3500.000000	1.216232
3498.000000	1.216482
3496.000000	1.216619
3494.000000	1.216734
3492.000000	1.216919
3490.000000	1.217144
3488.000000	1.217337
3486.000000	1.217591
3484.000000	1.217810
3482.000000	1.217913
3480.000000	1.218000
3478.000000	1.218116
3476.000000	1.218437
3474.000000	1.218739
3472.000000	1.218923
3470.000000	1.219030
3468.000000	1.219141
3466.000000	1.219391
3464.000000	1.219615
3462.000000	1.219602
3460.000000	1.219568
3458.000000	1.219882
3456.000000	1.220426
3454.000000	1.220880
3452.000000	1.221078
3450.000000	1.221058
3448.000000	1.220944
3446.000000	1.221004
3444.000000	1.221216
3442.000000	1.221445
3440.000000	1.221694
3438.000000	1.221840
3436.000000	1.221949
3434.000000	1.222002
3432.000000	1.221990
3430.000000	1.222081
3428.000000	1.222370
3426.000000	1.222681
3424.000000	1.222870
3422.000000	1.223027
3420.000000	1.223176
3418.000000	1.223337
3416.000000	1.223472
3414.000000	1.223573
3412.000000	1.223739
3410.000000	1.223939
3408.000000	1.223912
3406.000000	1.223813
3404.000000	1.224004
3402.000000	1.224176
3400.000000	1.224254
3398.000000	1.224289
3396.000000	1.224309
3394.000000	1.224433
3392.000000	1.224513
3390.000000	1.224546
3388.000000	1.224703
3386.000000	1.224867
3384.000000	1.224769
3382.000000	1.224608
3380.000000	1.224673
3378.000000	1.224897
3376.000000	1.224977
3374.000000	1.225138
3372.000000	1.225453
3370.000000	1.225530
3368.000000	1.225526
3366.000000	1.225602
3364.000000	1.225537
3362.000000	1.225336
3360.000000	1.225391
3358.000000	1.225598
3356.000000	1.225703
3354.000000	1.225784
3352.000000	1.225782
3350.000000	1.225686
3348.000000	1.225718
3346.000000	1.225891
3344.000000	1.226022
3342.000000	1.226017
3340.000000	1.225884
3338.000000	1.225804
3336.000000	1.225861
3334.000000	1.225999
3332.000000	1.226129
3330.000000	1.226133
3328.000000	1.226148
3326.000000	1.226146
3324.000000	1.226196
3322.000000	1.226386
3320.000000	1.226496
3318.000000	1.226455
3316.000000	1.226393
3314.000000	1.226418
3312.000000	1.226563
3310.000000	1.226684
3308.000000	1.226602
3306.000000	1.226557
3304.000000	1.226636
3302.000000	1.226682
3300.000000	1.226679
3298.000000	1.226733
3296.000000	1.226851
3294.000000	1.226964
3292.000000	1.227091
3290.000000	1.227130
3288.000000	1.227118
3286.000000	1.227076
3284.000000	1.227104
3282.000000	1.227260
3280.000000	1.227340
3278.000000	1.227352
3276.000000	1.227376
3274.000000	1.227340
3272.000000	1.227374
3270.000000	1.227617
3268.000000	1.227782
3266.000000	1.227747
3264.000000	1.227664
3262.000000	1.227703
3260.000000	1.227848
3258.000000	1.227867
3256.000000	1.227936
3254.000000	1.228099
3252.000000	1.228142
3250.000000	1.228218
3248.000000	1.228404
3246.000000	1.228407
3244.000000	1.228335
3242.000000	1.228488
3240.000000	1.228561
3238.000000	1.228413
3236.000000	1.228374
3234.000000	1.228339
3232.000000	1.228320
3230.000000	1.228354
3228.000000	1.228400
3226.000000	1.228583
3224.000000	1.228656
3222.000000	1.228550
3220.000000	1.228526
3218.000000	1.228549
3216.000000	1.228544
3214.000000	1.228644
3212.000000	1.228803
3210.000000	1.228912
3208.000000	1.228964
3206.000000	1.229000
3204.000000	1.228894
3202.000000	1.228829
3200.000000	1.228810
3198.000000	1.228738
3196.000000	1.228757
3194.000000	1.228821
3192.000000	1.228908
3190.000000	1.228951
3188.000000	1.228944
3186.000000	1.228843
3184.000000	1.228808
3182.000000	1.228763
3180.000000	1.228652
3178.000000	1.228658
3176.000000	1.228713
3174.000000	1.228754
3172.000000	1.228778
3170.000000	1.228900
3168.000000	1.228976
3166.000000	1.228909
3164.000000	1.228726
3162.000000	1.228535
3160.000000	1.228550
3158.000000	1.228623
3156.000000	1.228757
3154.000000	1.228881
3152.000000	1.228841
3150.000000	1.228768
3148.000000	1.228818
3146.000000	1.228815
3144.000000	1.228850
3142.000000	1.228952
3140.000000	1.228854
3138.000000	1.228774
3136.000000	1.228798
3134.000000	1.228722
3132.000000	1.228752
3130.000000	1.228804
3128.000000	1.228817
3126.000000	1.228830
3124.000000	1.228828
3122.000000	1.228727
3120.000000	1.228592
3118.000000	1.228666
3116.000000	1.228724
3114.000000	1.228658
3112.000000	1.228526
3110.000000	1.228531
3108.000000	1.228632
3106.000000	1.228642
3104.000000	1.228641
3102.000000	1.228636
3100.000000	1.228797
3098.000000	1.228838
3096.000000	1.228658
3094.000000	1.228733
3092.000000	1.228766
3090.000000	1.228663
3088.000000	1.228644
3086.000000	1.228636
3084.000000	1.228621
3082.000000	1.228669
3080.000000	1.228695
3078.000000	1.228695
3076.000000	1.228586
3074.000000	1.228378
3072.000000	1.228371
3070.000000	1.228522
3068.000000	1.228566
3066.000000	1.228453
3064.000000	1.228377
3062.000000	1.228325
3060.000000	1.228299
3058.000000	1.228281
3056.000000	1.228118
3054.000000	1.227968
3052.000000	1.227969
3050.000000	1.227909
3048.000000	1.227718
3046.000000	1.227616
3044.000000	1.227575
3042.000000	1.227569
3040.000000	1.227542
3038.000000	1.227334
3036.000000	1.227116
3034.000000	1.227039
3032.000000	1.226992
3030.000000	1.226973
3028.000000	1.226807
3026.000000	1.226545
3024.000000	1.226495
3022.000000	1.226365
3020.000000	1.226027
3018.000000	1.225618
3016.000000	1.225290
3014.000000	1.225083
3012.000000	1.224909
3010.000000	1.224733
3008.000000	1.224582
3006.000000	1.224431
3004.000000	1.224247
3002.000000	1.224079
3000.000000	1.223757
2998.000000	1.223358
2996.000000	1.223094
2994.000000	1.222948
2992.000000	1.222738
2990.000000	1.222435
2988.000000	1.222219
2986.000000	1.221959
2984.000000	1.221713
2982.000000	1.221505
2980.000000	1.221225
2978.000000	1.221017
2976.000000	1.220974
2974.000000	1.220771
2972.000000	1.220470
2970.000000	1.220334
2968.000000	1.220162
2966.000000	1.219780
2964.000000	1.219332
2962.000000	1.218834
2960.000000	1.218167
2958.000000	1.217530
2956.000000	1.217058
2954.000000	1.216479
2952.000000	1.215966
2950.000000	1.215600
2948.000000	1.215162
2946.000000	1.214808
2944.000000	1.214584
2942.000000	1.214307
2940.000000	1.214034
2938.000000	1.213790
2936.000000	1.213392
2934.000000	1.212772
2932.000000	1.212375
2930.000000	1.212126
2928.000000	1.211630
2926.000000	1.211016
2924.000000	1.210277
2922.000000	1.209394
2920.000000	1.208809
2918.000000	1.208435
2916.000000	1.208094
2914.000000	1.207923
2912.000000	1.207737
2910.000000	1.207457
2908.000000	1.207271
2906.000000	1.207101
2904.000000	1.206725
2902.000000	1.206286
2900.000000	1.205879
2898.000000	1.205501
2896.000000	1.205234
2894.000000	1.204929
2892.000000	1.204562
2890.000000	1.204221
2888.000000	1.203933
2886.000000	1.203651
2884.000000	1.203350
2882.000000	1.203092
2880.000000	1.202813
2878.000000	1.202500
2876.000000	1.202328
2874.000000	1.202191
2872.000000	1.201940
2870.000000	1.201783
2868.000000	1.201601
2866.000000	1.201185
2864.000000	1.200623
2862.000000	1.200108
2860.000000	1.199742
2858.000000	1.199310
2856.000000	1.198887
2854.000000	1.198494
2852.000000	1.198115
2850.000000	1.197847
2848.000000	1.197616
2846.000000	1.197418
2844.000000	1.197319
2842.000000	1.197294
2840.000000	1.197117
2838.000000	1.196842
2836.000000	1.196671
2834.000000	1.196533
2832.000000	1.196461
2830.000000	1.196316
2828.000000	1.196028
2826.000000	1.195801
2824.000000	1.195621
2822.000000	1.195446
2820.000000	1.195217
2818.000000	1.195011
2816.000000	1.194849
2814.000000	1.194662
2812.000000	1.194424
2810.000000	1.194193
2808.000000	1.194115
2806.000000	1.194077
2804.000000	1.193973
2802.000000	1.193826
2800.000000	1.193624
2798.000000	1.193424
2796.000000	1.193269
2794.000000	1.193152
2792.000000	1.193072
2790.000000	1.192889
2788.000000	1.192645
2786.000000	1.192561
2784.000000	1.192599
2782.000000	1.192452
2780.000000	1.192202
2778.000000	1.192105
2776.000000	1.192101
2774.000000	1.192095
2772.000000	1.191999
2770.000000	1.191791
2768.000000	1.191692
2766.000000	1.191657
2764.000000	1.191464
2762.000000	1.191197
2760.000000	1.190945
2758.000000	1.190895
2756.000000	1.191032
2754.000000	1.191095
2752.000000	1.191041
2750.000000	1.190876
2748.000000	1.190707
2746.000000	1.190649
2744.000000	1.190640
2742.000000	1.190636
2740.000000	1.190574
2738.000000	1.190481
2736.000000	1.190443
2734.000000	1.190424
2732.000000	1.190364
2730.000000	1.190289
2728.000000	1.190342
2726.000000	1.190260
2724.000000	1.190136
2722.000000	1.190255
2720.000000	1.190393
2718.000000	1.190328
2716.000000	1.190207
2714.000000	1.190172
2712.000000	1.190274
2710.000000	1.190364
2708.000000	1.190312
2706.000000	1.190268
2704.000000	1.190305
2702.000000	1.190328
2700.000000	1.190320
2698.000000	1.190321
2696.000000	1.190321
2694.000000	1.190343
2692.000000	1.190445
2690.000000	1.190595
2688.000000	1.190764
2686.000000	1.190809
2684.000000	1.190829
2682.000000	1.190889
2680.000000	1.190990
2678.000000	1.191093
2676.000000	1.191169
2674.000000	1.191194
2672.000000	1.191247
2670.000000	1.191354
2668.000000	1.191391
2666.000000	1.191451
2664.000000	1.191630
2662.000000	1.191824
2660.000000	1.191911
2658.000000	1.191966
2656.000000	1.192114
2654.000000	1.192271
2652.000000	1.192374
2650.000000	1.192550
2648.000000	1.192794
2646.000000	1.192956
2644.000000	1.193065
2642.000000	1.193124
2640.000000	1.193270
2638.000000	1.193569
2636.000000	1.193847
2634.000000	1.194033
2632.000000	1.194079
2630.000000	1.194236
2628.000000	1.194472
2626.000000	1.194642
2624.000000	1.194841
2622.000000	1.195097
2620.000000	1.195389
2618.000000	1.195582
2616.000000	1.195641
2614.000000	1.195737
2612.000000	1.195949
2610.000000	1.196241
2608.000000	1.196520
2606.000000	1.196706
2604.000000	1.196863
2602.000000	1.197095
2600.000000	1.197313
2598.000000	1.197553
2596.000000	1.197809
2594.000000	1.198062
2592.000000	1.198303
2590.000000	1.198499
2588.000000	1.198689
2586.000000	1.198990
2584.000000	1.199260
2582.000000	1.199528
2580.000000	1.199774
2578.000000	1.199909
2576.000000	1.200155
2574.000000	1.200509
2572.000000	1.200799
2570.000000	1.200961
2568.000000	1.201154
2566.000000	1.201456
2564.000000	1.201759
2562.000000	1.202055
2560.000000	1.202431
2558.000000	1.202866
2556.000000	1.203217
2554.000000	1.203491
2552.000000	1.203739
2550.000000	1.204071
2548.000000	1.204324
2546.000000	1.204618
2544.000000	1.205059
2542.000000	1.205503
2540.000000	1.205895
2538.000000	1.206141
2536.000000	1.206398
2534.000000	1.206724
2532.000000	1.206943
2530.000000	1.207206
2528.000000	1.207636
2526.000000	1.208165
2524.000000	1.208553
2522.000000	1.208768
2520.000000	1.209132
2518.000000	1.209600
2516.000000	1.210048
2514.000000	1.210446
2512.000000	1.210792
2510.000000	1.211076
2508.000000	1.211456
2506.000000	1.211791
2504.000000	1.212082
2502.000000	1.212402
2500.000000	1.212714
2498.000000	1.213005
2496.000000	1.213409
2494.000000	1.213785
2492.000000	1.214093
2490.000000	1.214397
2488.000000	1.214520
2486.000000	1.214675
2484.000000	1.214910
2482.000000	1.215142
2480.000000	1.215374
2478.000000	1.215565
2476.000000	1.215752
2474.000000	1.216032
2472.000000	1.216289
2470.000000	1.216434
2468.000000	1.216580
2466.000000	1.216828
2464.000000	1.216993
2462.000000	1.217135
2460.000000	1.217327
2458.000000	1.217421
2456.000000	1.217456
2454.000000	1.217588
2452.000000	1.217771
2450.000000	1.217787
2448.000000	1.217812
2446.000000	1.217926
2444.000000	1.217971
2442.000000	1.218000
2440.000000	1.217991
2438.000000	1.217862
2436.000000	1.217774
2434.000000	1.217744
2432.000000	1.217669
2430.000000	1.217546
2428.000000	1.217348
2426.000000	1.217195
2424.000000	1.217135
2422.000000	1.217071
2420.000000	1.216973
2418.000000	1.216858
2416.000000	1.216750
2414.000000	1.216561
2412.000000	1.216385
2410.000000	1.216196
2408.000000	1.215983
2406.000000	1.215814
2404.000000	1.215712
2402.000000	1.215650
2400.000000	1.215606
2398.000000	1.215511
2396.000000	1.215357
2394.000000	1.215240
2392.000000	1.215151
2390.000000	1.214985
2388.000000	1.214870
2386.000000	1.214776
2384.000000	1.214731
2382.000000	1.214784
2380.000000	1.214957
2378.000000	1.215138
2376.000000	1.215270
2374.000000	1.215327
2372.000000	1.215285
2370.000000	1.215153
2368.000000	1.215033
2366.000000	1.214922
2364.000000	1.214759
2362.000000	1.214764
2360.000000	1.214969
2358.000000	1.215101
2356.000000	1.215359
2354.000000	1.215879
2352.000000	1.216555
2350.000000	1.217277
2348.000000	1.217738
2346.000000	1.217919
2344.000000	1.218292
2342.000000	1.218912
2340.000000	1.219246
2338.000000	1.218752
2336.000000	1.217769
2334.000000	1.217145
2332.000000	1.217013
2330.000000	1.217100
2328.000000	1.217305
2326.000000	1.217514
2324.000000	1.217674
2322.000000	1.217758
2320.000000	1.217874
2318.000000	1.217989
2316.000000	1.218110
2314.000000	1.218346
2312.000000	1.218651
2310.000000	1.218884
2308.000000	1.219108
2306.000000	1.219373
2304.000000	1.219415
2302.000000	1.219416
2300.000000	1.219594
2298.000000	1.219831
2296.000000	1.220019
2294.000000	1.220035
2292.000000	1.220038
2290.000000	1.220183
2288.000000	1.220253
2286.000000	1.220310
2284.000000	1.220587
2282.000000	1.220853
2280.000000	1.220918
2278.000000	1.220944
2276.000000	1.221121
2274.000000	1.221335
2272.000000	1.221466
2270.000000	1.221539
2268.000000	1.221671
2266.000000	1.221721
2264.000000	1.221722
2262.000000	1.221814
2260.000000	1.222040
2258.000000	1.222243
2256.000000	1.222328
2254.000000	1.222379
2252.000000	1.222507
2250.000000	1.222574
2248.000000	1.222525
2246.000000	1.222560
2244.000000	1.222625
2242.000000	1.222664
2240.000000	1.222766
2238.000000	1.222866
2236.000000	1.222928
2234.000000	1.223002
2232.000000	1.223058
2230.000000	1.223070
2228.000000	1.223187
2226.000000	1.223300
2224.000000	1.223240
2222.000000	1.223125
2220.000000	1.223222
2218.000000	1.223365
2216.000000	1.223390
2214.000000	1.223443
2212.000000	1.223508
2210.000000	1.223539
2208.000000	1.223504
2206.000000	1.223530
2204.000000	1.223655
2202.000000	1.223697
2200.000000	1.223629
2198.000000	1.223594
2196.000000	1.223543
2194.000000	1.223447
2192.000000	1.223468
2190.000000	1.223421
2188.000000	1.223345
2186.000000	1.223279
2184.000000	1.223185
2182.000000	1.223229
2180.000000	1.223243
2178.000000	1.223185
2176.000000	1.223192
2174.000000	1.223069
2172.000000	1.222919
2170.000000	1.222824
2168.000000	1.222731
2166.000000	1.222644
2164.000000	1.222532
2162.000000	1.222292
2160.000000	1.222085
2158.000000	1.222081
2156.000000	1.222072
2154.000000	1.221917
2152.000000	1.221742
2150.000000	1.221658
2148.000000	1.221505
2146.000000	1.221235
2144.000000	1.221114
2142.000000	1.221020
2140.000000	1.220830
2138.000000	1.220614
2136.000000	1.220409
2134.000000	1.220293
2132.000000	1.220270
2130.000000	1.220051
2128.000000	1.219641
2126.000000	1.219342
2124.000000	1.219167
2122.000000	1.219021
2120.000000	1.218826
2118.000000	1.218532
2116.000000	1.218244
2114.000000	1.217964
2112.000000	1.217515
2110.000000	1.217034
2108.000000	1.216817
2106.000000	1.216696
2104.000000	1.216531
2102.000000	1.216260
2100.000000	1.215947
2098.000000	1.215706
2096.000000	1.215416
2094.000000	1.215039
2092.000000	1.214745
2090.000000	1.214458
2088.000000	1.214108
2086.000000	1.213672
2084.000000	1.213219
2082.000000	1.212898
2080.000000	1.212622
2078.000000	1.212299
2076.000000	1.212024
2074.000000	1.211776
2072.000000	1.211407
2070.000000	1.211092
2068.000000	1.210722
2066.000000	1.210276
2064.000000	1.209916
2062.000000	1.209548
2060.000000	1.209190
2058.000000	1.208881
2056.000000	1.208533
2054.000000	1.208104
2052.000000	1.207827
2050.000000	1.207537
2048.000000	1.207116
2046.000000	1.206750
2044.000000	1.206380
2042.000000	1.206009
2040.000000	1.205678
2038.000000	1.205478
2036.000000	1.205230
2034.000000	1.204899
2032.000000	1.204501
2030.000000	1.204084
2028.000000	1.203763
2026.000000	1.203563
2024.000000	1.203342
2022.000000	1.202975
2020.000000	1.202651
2018.000000	1.202281
2016.000000	1.201943
2014.000000	1.201773
2012.000000	1.201574
2010.000000	1.201377
2008.000000	1.201134
2006.000000	1.200757
2004.000000	1.200434
2002.000000	1.200102
2000.000000	1.199813
1998.000000	1.199681
1996.000000	1.199447
1994.000000	1.199191
1992.000000	1.198994
1990.000000	1.198857
1988.000000	1.198731
1986.000000	1.198546
1984.000000	1.198355
1982.000000	1.198147
1980.000000	1.197975
1978.000000	1.197839
1976.000000	1.197688
1974.000000	1.197489
1972.000000	1.197304
1970.000000	1.197179
1968.000000	1.196994
1966.000000	1.196765
1964.000000	1.196724
1962.000000	1.196784
1960.000000	1.196732
1958.000000	1.196454
1956.000000	1.196300
1954.000000	1.196344
1952.000000	1.196381
1950.000000	1.196288
1948.000000	1.196166
1946.000000	1.196091
1944.000000	1.195951
1942.000000	1.195766
1940.000000	1.195916
1938.000000	1.196035
1936.000000	1.195994
1934.000000	1.195930
1932.000000	1.195912
1930.000000	1.195951
1928.000000	1.195986
1926.000000	1.195907
1924.000000	1.195813
1922.000000	1.195817
1920.000000	1.195791
1918.000000	1.195550
1916.000000	1.195675
1914.000000	1.195878
1912.000000	1.196004
1910.000000	1.196105
1908.000000	1.196124
1906.000000	1.196179
1904.000000	1.196171
1902.000000	1.196140
1900.000000	1.196173
1898.000000	1.196273
1896.000000	1.196394
1894.000000	1.196485
1892.000000	1.196621
1890.000000	1.196567
1888.000000	1.196563
1886.000000	1.196811
1884.000000	1.196907
1882.000000	1.196992
1880.000000	1.197060
1878.000000	1.197107
1876.000000	1.197218
1874.000000	1.197363
1872.000000	1.197511
1870.000000	1.197381
1868.000000	1.197198
1866.000000	1.197476
1864.000000	1.197831
1862.000000	1.198122
1860.000000	1.198323
1858.000000	1.198408
1856.000000	1.198523
1854.000000	1.198742
1852.000000	1.198980
1850.000000	1.199150
1848.000000	1.199310
1846.000000	1.199291
1844.000000	1.198816
1842.000000	1.199184
1840.000000	1.199976
1838.000000	1.200273
1836.000000	1.200411
1834.000000	1.200680
1832.000000	1.200907
1830.000000	1.200781
1828.000000	1.201088
1826.000000	1.201515
1824.000000	1.201804
1822.000000	1.202245
1820.000000	1.202559
1818.000000	1.203001
1816.000000	1.203393
1814.000000	1.203623
1812.000000	1.203772
1810.000000	1.204022
1808.000000	1.204549
1806.000000	1.205025
1804.000000	1.205335
1802.000000	1.205504
1800.000000	1.205736
1798.000000	1.206155
1796.000000	1.206701
1794.000000	1.206858
1792.000000	1.206573
1790.000000	1.207244
1788.000000	1.208311
1786.000000	1.208828
1784.000000	1.209149
1782.000000	1.209540
1780.000000	1.209861
1778.000000	1.210421
1776.000000	1.210994
1774.000000	1.210997
1772.000000	1.210670
1770.000000	1.211582
1768.000000	1.212469
1766.000000	1.213231
1764.000000	1.213975
1762.000000	1.213969
1760.000000	1.214384
1758.000000	1.215153
1756.000000	1.215752
1754.000000	1.216639
1752.000000	1.216710
1750.000000	1.216695
1748.000000	1.217510
1746.000000	1.218160
1744.000000	1.218680
1742.000000	1.219148
1740.000000	1.219197
1738.000000	1.219730
1736.000000	1.220164
1734.000000	1.218935
1732.000000	1.219528
1730.000000	1.221116
1728.000000	1.221786
1726.000000	1.222246
1724.000000	1.222596
1722.000000	1.223004
1720.000000	1.223076
1718.000000	1.221845
1716.000000	1.221503
1714.000000	1.222757
1712.000000	1.223722
1710.000000	1.224085
1708.000000	1.224083
1706.000000	1.223859
1704.000000	1.223951
1702.000000	1.223720
1700.000000	1.222087
1698.000000	1.222700
1696.000000	1.222543
1694.000000	1.223096
1692.000000	1.224738
1690.000000	1.224901
1688.000000	1.225210
1686.000000	1.224468
1684.000000	1.222584
1682.000000	1.223598
1680.000000	1.225167
1678.000000	1.225606
1676.000000	1.225007
1674.000000	1.224647
1672.000000	1.225253
1670.000000	1.224882
1668.000000	1.224865
1666.000000	1.225634
1664.000000	1.225653
1662.000000	1.225328
1660.000000	1.225797
1658.000000	1.226236
1656.000000	1.226286
1654.000000	1.223808
1652.000000	1.221945
1650.000000	1.224408
1648.000000	1.225436
1646.000000	1.224535
1644.000000	1.225040
1642.000000	1.226099
1640.000000	1.226304
1638.000000	1.226018
1636.000000	1.224565
1634.000000	1.224295
1632.000000	1.225655
1630.000000	1.226091
1628.000000	1.225865
1626.000000	1.225895
1624.000000	1.225619
1622.000000	1.225469
1620.000000	1.226090
1618.000000	1.225427
1616.000000	1.224284
1614.000000	1.225326
1612.000000	1.226204
1610.000000	1.225941
1608.000000	1.225596
1606.000000	1.225551
1604.000000	1.225687
1602.000000	1.225720
1600.000000	1.225763
1598.000000	1.225840
1596.000000	1.225806
1594.000000	1.225616
1592.000000	1.225667
1590.000000	1.225797
1588.000000	1.225783
1586.000000	1.225705
1584.000000	1.225783
1582.000000	1.225908
1580.000000	1.225974
1578.000000	1.225407
1576.000000	1.223960
1574.000000	1.224523
1572.000000	1.225675
1570.000000	1.225172
1568.000000	1.225147
1566.000000	1.225640
1564.000000	1.225779
1562.000000	1.225622
1560.000000	1.223458
1558.000000	1.221998
1556.000000	1.223698
1554.000000	1.224637
1552.000000	1.225190
1550.000000	1.225515
1548.000000	1.225674
1546.000000	1.225628
1544.000000	1.225258
1542.000000	1.224417
1540.000000	1.222767
1538.000000	1.223054
1536.000000	1.225096
1534.000000	1.225196
1532.000000	1.225110
1530.000000	1.225725
1528.000000	1.225644
1526.000000	1.225190
1524.000000	1.225231
1522.000000	1.224333
1520.000000	1.223941
1518.000000	1.224988
1516.000000	1.225237
1514.000000	1.225440
1512.000000	1.225563
1510.000000	1.225746
1508.000000	1.224758
1506.000000	1.223361
1504.000000	1.224731
1502.000000	1.226760
1500.000000	1.227471
1498.000000	1.227248
1496.000000	1.225820
1494.000000	1.224808
1492.000000	1.224240
1490.000000	1.223697
1488.000000	1.224001
1486.000000	1.224818
1484.000000	1.225537
1482.000000	1.225707
1480.000000	1.225659
1478.000000	1.225556
1476.000000	1.225426
1474.000000	1.224971
1472.000000	1.224363
1470.000000	1.225074
1468.000000	1.225795
1466.000000	1.225424
1464.000000	1.225034
1462.000000	1.225626
1460.000000	1.225949
1458.000000	1.224694
1456.000000	1.223745
1454.000000	1.225051
1452.000000	1.225545
1450.000000	1.225006
1448.000000	1.224635
1446.000000	1.224990
1444.000000	1.225377
1442.000000	1.225429
1440.000000	1.225445
1438.000000	1.224838
1436.000000	1.223915
1434.000000	1.224426
1432.000000	1.224867
1430.000000	1.224807
1428.000000	1.224852
1426.000000	1.224914
1424.000000	1.224779
1422.000000	1.224910
1420.000000	1.224321
1418.000000	1.223938
1416.000000	1.224662
1414.000000	1.225129
1412.000000	1.225157
1410.000000	1.225071
1408.000000	1.225025
1406.000000	1.224895
1404.000000	1.224608
1402.000000	1.224230
1400.000000	1.223672
1398.000000	1.223397
1396.000000	1.223426
1394.000000	1.223349
1392.000000	1.223777
1390.000000	1.224106
1388.000000	1.223858
1386.000000	1.223605
1384.000000	1.223597
1382.000000	1.223547
1380.000000	1.223638
1378.000000	1.223590
1376.000000	1.223431
1374.000000	1.223155
1372.000000	1.223167
1370.000000	1.223251
1368.000000	1.223184
1366.000000	1.223163
1364.000000	1.222974
1362.000000	1.222854
1360.000000	1.222893
1358.000000	1.222874
1356.000000	1.222869
1354.000000	1.222736
1352.000000	1.222664
1350.000000	1.222762
1348.000000	1.222818
1346.000000	1.222693
1344.000000	1.222607
1342.000000	1.222441
1340.000000	1.222289
1338.000000	1.222378
1336.000000	1.222466
1334.000000	1.222356
1332.000000	1.222478
1330.000000	1.222662
1328.000000	1.222517
1326.000000	1.222303
1324.000000	1.222353
1322.000000	1.222577
1320.000000	1.222701
1318.000000	1.222627
1316.000000	1.222404
1314.000000	1.222277
1312.000000	1.222291
1310.000000	1.222463
1308.000000	1.222513
1306.000000	1.222448
1304.000000	1.222449
1302.000000	1.222440
1300.000000	1.222477
1298.000000	1.222635
1296.000000	1.222715
1294.000000	1.222680
1292.000000	1.222621
1290.000000	1.222523
1288.000000	1.222508
1286.000000	1.222685
1284.000000	1.222789
1282.000000	1.222721
1280.000000	1.222712
1278.000000	1.222872
1276.000000	1.223003
1274.000000	1.223160
1272.000000	1.223417
1270.000000	1.223750
1268.000000	1.224117
1266.000000	1.224974
1264.000000	1.226005
1262.000000	1.226318
1260.000000	1.226004
1258.000000	1.225396
1256.000000	1.224557
1254.000000	1.223758
1252.000000	1.223384
1250.000000	1.223274
1248.000000	1.223217
1246.000000	1.223187
1244.000000	1.223142
1242.000000	1.223137
1240.000000	1.223109
1238.000000	1.223022
1236.000000	1.222951
1234.000000	1.222814
1232.000000	1.222584
1230.000000	1.222446
1228.000000	1.222435
1226.000000	1.222374
1224.000000	1.222284
1222.000000	1.222351
1220.000000	1.222311
1218.000000	1.222293
1216.000000	1.222227
1214.000000	1.222085
1212.000000	1.222028
1210.000000	1.222127
1208.000000	1.222248
1206.000000	1.222111
1204.000000	1.221964
1202.000000	1.221665
1200.000000	1.221334
1198.000000	1.221445
1196.000000	1.221839
1194.000000	1.221946
1192.000000	1.221897
1190.000000	1.221939
1188.000000	1.221926
1186.000000	1.222036
1184.000000	1.222560
1182.000000	1.222629
1180.000000	1.222150
1178.000000	1.221827
1176.000000	1.222008
1174.000000	1.222446
1172.000000	1.222572
1170.000000	1.222369
1168.000000	1.222357
1166.000000	1.222381
1164.000000	1.222450
1162.000000	1.222406
1160.000000	1.222348
1158.000000	1.222828
1156.000000	1.222941
1154.000000	1.222788
1152.000000	1.223002
1150.000000	1.222749
1148.000000	1.222230
1146.000000	1.222222
1144.000000	1.222474
1142.000000	1.222184
1140.000000	1.221540
1138.000000	1.220867
1136.000000	1.220717
1134.000000	1.220984
1132.000000	1.220782
1130.000000	1.220955
1128.000000	1.221115
1126.000000	1.220892
1124.000000	1.220681
1122.000000	1.220592
1120.000000	1.220760
1118.000000	1.221061
1116.000000	1.221177
1114.000000	1.221226
1112.000000	1.220918
1110.000000	1.221302
1108.000000	1.221872
1106.000000	1.221532
1104.000000	1.221565
1102.000000	1.222141
1100.000000	1.222231
1098.000000	1.222400
1096.000000	1.223043
1094.000000	1.222853
1092.000000	1.221853
1090.000000	1.221598
1088.000000	1.221591
1086.000000	1.221165
1084.000000	1.221132
1082.000000	1.221240
1080.000000	1.220867
1078.000000	1.219870
1076.000000	1.219112
1074.000000	1.218457
1072.000000	1.217727
1070.000000	1.217468
1068.000000	1.217468
1066.000000	1.216917
1064.000000	1.216497
1062.000000	1.216130
1060.000000	1.216253
1058.000000	1.216237
1056.000000	1.216162
1054.000000	1.215274
1052.000000	1.213722
1050.000000	1.212667
1048.000000	1.212219
1046.000000	1.211244
1044.000000	1.210400
1042.000000	1.210570
1040.000000	1.210513
1038.000000	1.210088
1036.000000	1.209756
1034.000000	1.209717
1032.000000	1.209431
1030.000000	1.208436
1028.000000	1.207830
1026.000000	1.207716
1024.000000	1.207790
1022.000000	1.207218
1020.000000	1.207657
1018.000000	1.207330
1016.000000	1.205636
1014.000000	1.204612
1012.000000	1.205417
1010.000000	1.206895
1008.000000	1.206783
1006.000000	1.205048
1004.000000	1.204992
1002.000000	1.205293
1000.000000	1.204932
