PE IR       SUBTECH     SPECTRUM    ASCII       PEDS        4.00        
   -1
TE109A_029_80K_after_100K.ASC
20/04/21
13:52:49.00
20/04/21
13:52:49.00
Administrator
TE109A, Tuesday, April 21 2020, 029.
1000.000000
#HDR
-1
-1
#GR
cm-1
A
1.0
0.0
6000.000000
-2.000000
2501
8
1.223243
1.088865
#DATA
6000.000000	1.101925
5998.000000	1.101949
5996.000000	1.101320
5994.000000	1.100777
5992.000000	1.100364
5990.000000	1.100578
5988.000000	1.101045
5986.000000	1.101179
5984.000000	1.100996
5982.000000	1.100609
5980.000000	1.100448
5978.000000	1.100325
5976.000000	1.100297
5974.000000	1.100297
5972.000000	1.100635
5970.000000	1.100780
5968.000000	1.100941
5966.000000	1.101175
5964.000000	1.101267
5962.000000	1.101081
5960.000000	1.100870
5958.000000	1.101201
5956.000000	1.101353
5954.000000	1.101332
5952.000000	1.100935
5950.000000	1.100496
5948.000000	1.100433
5946.000000	1.100144
5944.000000	1.100161
5942.000000	1.100099
5940.000000	1.099721
5938.000000	1.099738
5936.000000	1.099944
5934.000000	1.100195
5932.000000	1.100368
5930.000000	1.100634
5928.000000	1.100527
5926.000000	1.100230
5924.000000	1.099412
5922.000000	1.099272
5920.000000	1.099863
5918.000000	1.100476
5916.000000	1.100824
5914.000000	1.101024
5912.000000	1.101242
5910.000000	1.101289
5908.000000	1.101199
5906.000000	1.100728
5904.000000	1.100484
5902.000000	1.100543
5900.000000	1.100744
5898.000000	1.100705
5896.000000	1.100185
5894.000000	1.099580
5892.000000	1.099188
5890.000000	1.099177
5888.000000	1.099126
5886.000000	1.099186
5884.000000	1.099147
5882.000000	1.099145
5880.000000	1.099249
5878.000000	1.099405
5876.000000	1.099859
5874.000000	1.100201
5872.000000	1.099959
5870.000000	1.099650
5868.000000	1.099791
5866.000000	1.099877
5864.000000	1.099941
5862.000000	1.099839
5860.000000	1.100096
5858.000000	1.100306
5856.000000	1.099529
5854.000000	1.098752
5852.000000	1.098801
5850.000000	1.099397
5848.000000	1.099295
5846.000000	1.099019
5844.000000	1.099505
5842.000000	1.100412
5840.000000	1.100827
5838.000000	1.100034
5836.000000	1.099451
5834.000000	1.099577
5832.000000	1.099828
5830.000000	1.099898
5828.000000	1.099842
5826.000000	1.099716
5824.000000	1.099624
5822.000000	1.099283
5820.000000	1.099291
5818.000000	1.099417
5816.000000	1.099377
5814.000000	1.099167
5812.000000	1.099165
5810.000000	1.099908
5808.000000	1.100549
5806.000000	1.100644
5804.000000	1.100205
5802.000000	1.099784
5800.000000	1.099967
5798.000000	1.100424
5796.000000	1.100690
5794.000000	1.100437
5792.000000	1.099624
5790.000000	1.099444
5788.000000	1.099551
5786.000000	1.099192
5784.000000	1.098609
5782.000000	1.098580
5780.000000	1.099129
5778.000000	1.099636
5776.000000	1.099720
5774.000000	1.099723
5772.000000	1.099547
5770.000000	1.098750
5768.000000	1.098447
5766.000000	1.099153
5764.000000	1.099734
5762.000000	1.099862
5760.000000	1.099432
5758.000000	1.099183
5756.000000	1.099275
5754.000000	1.099380
5752.000000	1.099485
5750.000000	1.099367
5748.000000	1.099091
5746.000000	1.099075
5744.000000	1.099222
5742.000000	1.099144
5740.000000	1.099188
5738.000000	1.099593
5736.000000	1.100134
5734.000000	1.099979
5732.000000	1.099636
5730.000000	1.099633
5728.000000	1.099792
5726.000000	1.099755
5724.000000	1.099522
5722.000000	1.099281
5720.000000	1.099012
5718.000000	1.099139
5716.000000	1.099657
5714.000000	1.099944
5712.000000	1.099772
5710.000000	1.099350
5708.000000	1.099272
5706.000000	1.099594
5704.000000	1.099829
5702.000000	1.100054
5700.000000	1.099940
5698.000000	1.099923
5696.000000	1.099856
5694.000000	1.099750
5692.000000	1.099758
5690.000000	1.099828
5688.000000	1.099902
5686.000000	1.099928
5684.000000	1.100117
5682.000000	1.100289
5680.000000	1.100305
5678.000000	1.100004
5676.000000	1.099851
5674.000000	1.099832
5672.000000	1.099814
5670.000000	1.099882
5668.000000	1.100100
5666.000000	1.100335
5664.000000	1.100369
5662.000000	1.099990
5660.000000	1.099448
5658.000000	1.099486
5656.000000	1.099709
5654.000000	1.099940
5652.000000	1.099669
5650.000000	1.099488
5648.000000	1.099813
5646.000000	1.100301
5644.000000	1.100142
5642.000000	1.099689
5640.000000	1.099511
5638.000000	1.099627
5636.000000	1.099977
5634.000000	1.100171
5632.000000	1.100205
5630.000000	1.100155
5628.000000	1.099734
5626.000000	1.099432
5624.000000	1.099310
5622.000000	1.099566
5620.000000	1.099958
5618.000000	1.099990
5616.000000	1.099874
5614.000000	1.099792
5612.000000	1.099703
5610.000000	1.099692
5608.000000	1.099589
5606.000000	1.099688
5604.000000	1.099778
5602.000000	1.099778
5600.000000	1.099512
5598.000000	1.099075
5596.000000	1.099354
5594.000000	1.099952
5592.000000	1.100040
5590.000000	1.099589
5588.000000	1.099299
5586.000000	1.099513
5584.000000	1.099774
5582.000000	1.099814
5580.000000	1.100093
5578.000000	1.100143
5576.000000	1.100170
5574.000000	1.100290
5572.000000	1.100315
5570.000000	1.100282
5568.000000	1.100007
5566.000000	1.100045
5564.000000	1.100296
5562.000000	1.100381
5560.000000	1.100204
5558.000000	1.099716
5556.000000	1.099386
5554.000000	1.099290
5552.000000	1.099539
5550.000000	1.099671
5548.000000	1.099667
5546.000000	1.099653
5544.000000	1.099484
5542.000000	1.099243
5540.000000	1.099018
5538.000000	1.099138
5536.000000	1.099789
5534.000000	1.100221
5532.000000	1.100127
5530.000000	1.099765
5528.000000	1.099634
5526.000000	1.099787
5524.000000	1.099653
5522.000000	1.099532
5520.000000	1.099674
5518.000000	1.099855
5516.000000	1.099553
5514.000000	1.098870
5512.000000	1.098756
5510.000000	1.099295
5508.000000	1.099659
5506.000000	1.099369
5504.000000	1.099141
5502.000000	1.099450
5500.000000	1.100013
5498.000000	1.100144
5496.000000	1.099747
5494.000000	1.099329
5492.000000	1.099212
5490.000000	1.099728
5488.000000	1.100256
5486.000000	1.100188
5484.000000	1.099845
5482.000000	1.099410
5480.000000	1.099328
5478.000000	1.099243
5476.000000	1.099222
5474.000000	1.099284
5472.000000	1.099371
5470.000000	1.099384
5468.000000	1.099291
5466.000000	1.099219
5464.000000	1.099162
5462.000000	1.099340
5460.000000	1.099689
5458.000000	1.099839
5456.000000	1.099561
5454.000000	1.099516
5452.000000	1.099809
5450.000000	1.099962
5448.000000	1.099674
5446.000000	1.099222
5444.000000	1.099089
5442.000000	1.099436
5440.000000	1.099798
5438.000000	1.099673
5436.000000	1.099334
5434.000000	1.099123
5432.000000	1.099145
5430.000000	1.098844
5428.000000	1.098505
5426.000000	1.098707
5424.000000	1.098832
5422.000000	1.098992
5420.000000	1.098828
5418.000000	1.098571
5416.000000	1.098553
5414.000000	1.098850
5412.000000	1.099518
5410.000000	1.099824
5408.000000	1.099716
5406.000000	1.099536
5404.000000	1.099580
5402.000000	1.100009
5400.000000	1.100235
5398.000000	1.099732
5396.000000	1.098950
5394.000000	1.098627
5392.000000	1.098857
5390.000000	1.099219
5388.000000	1.099315
5386.000000	1.099409
5384.000000	1.099502
5382.000000	1.099734
5380.000000	1.099814
5378.000000	1.099595
5376.000000	1.099488
5374.000000	1.099652
5372.000000	1.099873
5370.000000	1.099766
5368.000000	1.099667
5366.000000	1.099634
5364.000000	1.099713
5362.000000	1.099671
5360.000000	1.099616
5358.000000	1.099656
5356.000000	1.099824
5354.000000	1.100057
5352.000000	1.100008
5350.000000	1.099777
5348.000000	1.099818
5346.000000	1.099970
5344.000000	1.099949
5342.000000	1.099643
5340.000000	1.099606
5338.000000	1.099960
5336.000000	1.100325
5334.000000	1.100613
5332.000000	1.100564
5330.000000	1.100408
5328.000000	1.100329
5326.000000	1.100540
5324.000000	1.100828
5322.000000	1.100938
5320.000000	1.100786
5318.000000	1.100654
5316.000000	1.100522
5314.000000	1.100737
5312.000000	1.101028
5310.000000	1.101219
5308.000000	1.101324
5306.000000	1.101428
5304.000000	1.101555
5302.000000	1.101824
5300.000000	1.102095
5298.000000	1.102248
5296.000000	1.102349
5294.000000	1.102527
5292.000000	1.102742
5290.000000	1.102822
5288.000000	1.102829
5286.000000	1.102785
5284.000000	1.102737
5282.000000	1.102800
5280.000000	1.103162
5278.000000	1.103744
5276.000000	1.104319
5274.000000	1.104402
5272.000000	1.104175
5270.000000	1.104339
5268.000000	1.104699
5266.000000	1.104868
5264.000000	1.104992
5262.000000	1.105441
5260.000000	1.106077
5258.000000	1.106402
5256.000000	1.106619
5254.000000	1.106934
5252.000000	1.107324
5250.000000	1.107498
5248.000000	1.107664
5246.000000	1.107748
5244.000000	1.108082
5242.000000	1.108634
5240.000000	1.109139
5238.000000	1.109274
5236.000000	1.109315
5234.000000	1.109736
5232.000000	1.110173
5230.000000	1.110564
5228.000000	1.110913
5226.000000	1.111241
5224.000000	1.111591
5222.000000	1.111880
5220.000000	1.111985
5218.000000	1.112290
5216.000000	1.112920
5214.000000	1.113587
5212.000000	1.113868
5210.000000	1.114281
5208.000000	1.114733
5206.000000	1.115039
5204.000000	1.115195
5202.000000	1.115646
5200.000000	1.116213
5198.000000	1.116751
5196.000000	1.117225
5194.000000	1.117656
5192.000000	1.118145
5190.000000	1.118545
5188.000000	1.118871
5186.000000	1.119214
5184.000000	1.119785
5182.000000	1.120390
5180.000000	1.120714
5178.000000	1.121049
5176.000000	1.121399
5174.000000	1.121706
5172.000000	1.122168
5170.000000	1.122686
5168.000000	1.123169
5166.000000	1.123578
5164.000000	1.123997
5162.000000	1.124271
5160.000000	1.124463
5158.000000	1.124633
5156.000000	1.124830
5154.000000	1.125296
5152.000000	1.126055
5150.000000	1.126920
5148.000000	1.127440
5146.000000	1.127387
5144.000000	1.127135
5142.000000	1.127245
5140.000000	1.127645
5138.000000	1.127919
5136.000000	1.128175
5134.000000	1.128330
5132.000000	1.128411
5130.000000	1.128733
5128.000000	1.129201
5126.000000	1.129476
5124.000000	1.129642
5122.000000	1.130043
5120.000000	1.130273
5118.000000	1.130458
5116.000000	1.130685
5114.000000	1.130815
5112.000000	1.130620
5110.000000	1.130492
5108.000000	1.130639
5106.000000	1.130990
5104.000000	1.131393
5102.000000	1.131764
5100.000000	1.131891
5098.000000	1.131869
5096.000000	1.131772
5094.000000	1.131909
5092.000000	1.131956
5090.000000	1.132021
5088.000000	1.132164
5086.000000	1.132242
5084.000000	1.132107
5082.000000	1.131990
5080.000000	1.132155
5078.000000	1.132431
5076.000000	1.132626
5074.000000	1.132583
5072.000000	1.132394
5070.000000	1.132417
5068.000000	1.132468
5066.000000	1.132461
5064.000000	1.132445
5062.000000	1.132464
5060.000000	1.132356
5058.000000	1.132479
5056.000000	1.132590
5054.000000	1.132416
5052.000000	1.132138
5050.000000	1.132100
5048.000000	1.132300
5046.000000	1.132523
5044.000000	1.132531
5042.000000	1.132390
5040.000000	1.132454
5038.000000	1.132681
5036.000000	1.132579
5034.000000	1.132359
5032.000000	1.132451
5030.000000	1.132606
5028.000000	1.132611
5026.000000	1.132397
5024.000000	1.132090
5022.000000	1.131888
5020.000000	1.132002
5018.000000	1.132274
5016.000000	1.132584
5014.000000	1.132703
5012.000000	1.132613
5010.000000	1.132511
5008.000000	1.132582
5006.000000	1.132547
5004.000000	1.132402
5002.000000	1.132286
5000.000000	1.132081
4998.000000	1.131913
4996.000000	1.132088
4994.000000	1.132277
4992.000000	1.132010
4990.000000	1.131695
4988.000000	1.131644
4986.000000	1.131619
4984.000000	1.131503
4982.000000	1.131449
4980.000000	1.131494
4978.000000	1.131569
4976.000000	1.131640
4974.000000	1.131451
4972.000000	1.131273
4970.000000	1.131352
4968.000000	1.131373
4966.000000	1.131147
4964.000000	1.130997
4962.000000	1.130945
4960.000000	1.130712
4958.000000	1.130521
4956.000000	1.130528
4954.000000	1.130523
4952.000000	1.130397
4950.000000	1.130147
4948.000000	1.129891
4946.000000	1.129838
4944.000000	1.129968
4942.000000	1.129945
4940.000000	1.129576
4938.000000	1.129237
4936.000000	1.129213
4934.000000	1.129290
4932.000000	1.129148
4930.000000	1.129063
4928.000000	1.129146
4926.000000	1.129010
4924.000000	1.128730
4922.000000	1.128754
4920.000000	1.128821
4918.000000	1.128586
4916.000000	1.127962
4914.000000	1.127520
4912.000000	1.127240
4910.000000	1.127099
4908.000000	1.126978
4906.000000	1.127160
4904.000000	1.127394
4902.000000	1.127349
4900.000000	1.127029
4898.000000	1.126710
4896.000000	1.126660
4894.000000	1.126660
4892.000000	1.126440
4890.000000	1.126079
4888.000000	1.126058
4886.000000	1.126081
4884.000000	1.125741
4882.000000	1.125295
4880.000000	1.125227
4878.000000	1.125362
4876.000000	1.125142
4874.000000	1.124692
4872.000000	1.124386
4870.000000	1.124396
4868.000000	1.124286
4866.000000	1.124065
4864.000000	1.123726
4862.000000	1.123389
4860.000000	1.123199
4858.000000	1.123242
4856.000000	1.123161
4854.000000	1.122872
4852.000000	1.122622
4850.000000	1.122486
4848.000000	1.122391
4846.000000	1.122345
4844.000000	1.122133
4842.000000	1.121811
4840.000000	1.121596
4838.000000	1.121580
4836.000000	1.121282
4834.000000	1.120799
4832.000000	1.120482
4830.000000	1.120491
4828.000000	1.120493
4826.000000	1.120293
4824.000000	1.120009
4822.000000	1.119820
4820.000000	1.119682
4818.000000	1.119420
4816.000000	1.119047
4814.000000	1.118742
4812.000000	1.118674
4810.000000	1.118806
4808.000000	1.118718
4806.000000	1.118209
4804.000000	1.117718
4802.000000	1.117554
4800.000000	1.117600
4798.000000	1.117562
4796.000000	1.117271
4794.000000	1.116901
4792.000000	1.116558
4790.000000	1.116214
4788.000000	1.115945
4786.000000	1.115889
4784.000000	1.115773
4782.000000	1.115473
4780.000000	1.115049
4778.000000	1.114567
4776.000000	1.114306
4774.000000	1.114349
4772.000000	1.114312
4770.000000	1.113997
4768.000000	1.113625
4766.000000	1.113503
4764.000000	1.113609
4762.000000	1.113535
4760.000000	1.113279
4758.000000	1.112985
4756.000000	1.112717
4754.000000	1.112459
4752.000000	1.112263
4750.000000	1.112013
4748.000000	1.111766
4746.000000	1.111578
4744.000000	1.111442
4742.000000	1.111349
4740.000000	1.111191
4738.000000	1.110934
4736.000000	1.110761
4734.000000	1.110589
4732.000000	1.110240
4730.000000	1.109951
4728.000000	1.109828
4726.000000	1.109750
4724.000000	1.109523
4722.000000	1.109259
4720.000000	1.108969
4718.000000	1.108952
4716.000000	1.109048
4714.000000	1.108945
4712.000000	1.108559
4710.000000	1.108209
4708.000000	1.107925
4706.000000	1.107765
4704.000000	1.107720
4702.000000	1.107769
4700.000000	1.107752
4698.000000	1.107574
4696.000000	1.107297
4694.000000	1.107013
4692.000000	1.106748
4690.000000	1.106454
4688.000000	1.106293
4686.000000	1.106296
4684.000000	1.106291
4682.000000	1.106197
4680.000000	1.106098
4678.000000	1.105939
4676.000000	1.105712
4674.000000	1.105568
4672.000000	1.105419
4670.000000	1.105359
4668.000000	1.105328
4666.000000	1.105226
4664.000000	1.105094
4662.000000	1.105072
4660.000000	1.104967
4658.000000	1.104801
4656.000000	1.104635
4654.000000	1.104532
4652.000000	1.104489
4650.000000	1.104466
4648.000000	1.104373
4646.000000	1.104164
4644.000000	1.103975
4642.000000	1.103891
4640.000000	1.103817
4638.000000	1.103632
4636.000000	1.103474
4634.000000	1.103427
4632.000000	1.103426
4630.000000	1.103418
4628.000000	1.103379
4626.000000	1.103271
4624.000000	1.103122
4622.000000	1.102959
4620.000000	1.102771
4618.000000	1.102766
4616.000000	1.102849
4614.000000	1.102793
4612.000000	1.102609
4610.000000	1.102474
4608.000000	1.102429
4606.000000	1.102338
4604.000000	1.102144
4602.000000	1.101935
4600.000000	1.101756
4598.000000	1.101613
4596.000000	1.101713
4594.000000	1.101963
4592.000000	1.101963
4590.000000	1.101656
4588.000000	1.101300
4586.000000	1.101102
4584.000000	1.101089
4582.000000	1.101288
4580.000000	1.101436
4578.000000	1.101384
4576.000000	1.101226
4574.000000	1.101031
4572.000000	1.100714
4570.000000	1.100548
4568.000000	1.100507
4566.000000	1.100514
4564.000000	1.100501
4562.000000	1.100558
4560.000000	1.100553
4558.000000	1.100468
4556.000000	1.100387
4554.000000	1.100423
4552.000000	1.100377
4550.000000	1.100243
4548.000000	1.100290
4546.000000	1.100352
4544.000000	1.100119
4542.000000	1.099857
4540.000000	1.099883
4538.000000	1.099998
4536.000000	1.099971
4534.000000	1.099912
4532.000000	1.099921
4530.000000	1.100016
4528.000000	1.099998
4526.000000	1.099902
4524.000000	1.099746
4522.000000	1.099624
4520.000000	1.099530
4518.000000	1.099436
4516.000000	1.099318
4514.000000	1.099350
4512.000000	1.099321
4510.000000	1.099218
4508.000000	1.099130
4506.000000	1.099128
4504.000000	1.099200
4502.000000	1.099141
4500.000000	1.098929
4498.000000	1.098909
4496.000000	1.098990
4494.000000	1.098943
4492.000000	1.098885
4490.000000	1.098964
4488.000000	1.099130
4486.000000	1.099173
4484.000000	1.099001
4482.000000	1.098801
4480.000000	1.098650
4478.000000	1.098599
4476.000000	1.098690
4474.000000	1.098824
4472.000000	1.098885
4470.000000	1.098871
4468.000000	1.098781
4466.000000	1.098672
4464.000000	1.098613
4462.000000	1.098584
4460.000000	1.098613
4458.000000	1.098707
4456.000000	1.098630
4454.000000	1.098436
4452.000000	1.098460
4450.000000	1.098536
4448.000000	1.098513
4446.000000	1.098614
4444.000000	1.098639
4442.000000	1.098529
4440.000000	1.098541
4438.000000	1.098626
4436.000000	1.098652
4434.000000	1.098647
4432.000000	1.098441
4430.000000	1.098254
4428.000000	1.098360
4426.000000	1.098496
4424.000000	1.098409
4422.000000	1.098407
4420.000000	1.098621
4418.000000	1.098722
4416.000000	1.098650
4414.000000	1.098670
4412.000000	1.098842
4410.000000	1.098866
4408.000000	1.098703
4406.000000	1.098566
4404.000000	1.098606
4402.000000	1.098687
4400.000000	1.098570
4398.000000	1.098264
4396.000000	1.098238
4394.000000	1.098528
4392.000000	1.098721
4390.000000	1.098718
4388.000000	1.098658
4386.000000	1.098623
4384.000000	1.098710
4382.000000	1.098709
4380.000000	1.098647
4378.000000	1.098875
4376.000000	1.099095
4374.000000	1.099031
4372.000000	1.099074
4370.000000	1.099282
4368.000000	1.099382
4366.000000	1.099442
4364.000000	1.099567
4362.000000	1.099649
4360.000000	1.099580
4358.000000	1.099575
4356.000000	1.099823
4354.000000	1.100038
4352.000000	1.100064
4350.000000	1.100157
4348.000000	1.100214
4346.000000	1.100173
4344.000000	1.100242
4342.000000	1.100468
4340.000000	1.100645
4338.000000	1.100739
4336.000000	1.100776
4334.000000	1.100878
4332.000000	1.101035
4330.000000	1.101168
4328.000000	1.101335
4326.000000	1.101499
4324.000000	1.101528
4322.000000	1.101526
4320.000000	1.101506
4318.000000	1.101479
4316.000000	1.101546
4314.000000	1.101697
4312.000000	1.101882
4310.000000	1.102039
4308.000000	1.102044
4306.000000	1.102114
4304.000000	1.102320
4302.000000	1.102398
4300.000000	1.102329
4298.000000	1.102485
4296.000000	1.102786
4294.000000	1.102854
4292.000000	1.102799
4290.000000	1.102956
4288.000000	1.103220
4286.000000	1.103302
4284.000000	1.103225
4282.000000	1.103199
4280.000000	1.103256
4278.000000	1.103363
4276.000000	1.103477
4274.000000	1.103585
4272.000000	1.103796
4270.000000	1.103971
4268.000000	1.103937
4266.000000	1.103944
4264.000000	1.104100
4262.000000	1.104279
4260.000000	1.104439
4258.000000	1.104554
4256.000000	1.104624
4254.000000	1.104691
4252.000000	1.104816
4250.000000	1.104963
4248.000000	1.105079
4246.000000	1.105205
4244.000000	1.105287
4242.000000	1.105323
4240.000000	1.105383
4238.000000	1.105442
4236.000000	1.105517
4234.000000	1.105549
4232.000000	1.105539
4230.000000	1.105640
4228.000000	1.105721
4226.000000	1.105758
4224.000000	1.105985
4222.000000	1.106203
4220.000000	1.106131
4218.000000	1.105972
4216.000000	1.105938
4214.000000	1.105977
4212.000000	1.106056
4210.000000	1.106217
4208.000000	1.106383
4206.000000	1.106491
4204.000000	1.106478
4202.000000	1.106368
4200.000000	1.106410
4198.000000	1.106599
4196.000000	1.106595
4194.000000	1.106510
4192.000000	1.106605
4190.000000	1.106774
4188.000000	1.106812
4186.000000	1.106747
4184.000000	1.106632
4182.000000	1.106531
4180.000000	1.106650
4178.000000	1.106946
4176.000000	1.106962
4174.000000	1.106840
4172.000000	1.106952
4170.000000	1.107041
4168.000000	1.107016
4166.000000	1.107145
4164.000000	1.107272
4162.000000	1.107165
4160.000000	1.107050
4158.000000	1.107140
4156.000000	1.107200
4154.000000	1.107210
4152.000000	1.107353
4150.000000	1.107584
4148.000000	1.107714
4146.000000	1.107609
4144.000000	1.107470
4142.000000	1.107484
4140.000000	1.107454
4138.000000	1.107405
4136.000000	1.107465
4134.000000	1.107458
4132.000000	1.107363
4130.000000	1.107434
4128.000000	1.107624
4126.000000	1.107737
4124.000000	1.107860
4122.000000	1.108054
4120.000000	1.108103
4118.000000	1.107955
4116.000000	1.107801
4114.000000	1.107743
4112.000000	1.107747
4110.000000	1.107800
4108.000000	1.107883
4106.000000	1.107958
4104.000000	1.107921
4102.000000	1.107905
4100.000000	1.108052
4098.000000	1.108138
4096.000000	1.108062
4094.000000	1.108121
4092.000000	1.108198
4090.000000	1.108128
4088.000000	1.108074
4086.000000	1.108084
4084.000000	1.108200
4082.000000	1.108427
4080.000000	1.108520
4078.000000	1.108441
4076.000000	1.108370
4074.000000	1.108401
4072.000000	1.108492
4070.000000	1.108536
4068.000000	1.108583
4066.000000	1.108704
4064.000000	1.108757
4062.000000	1.108785
4060.000000	1.108874
4058.000000	1.108991
4056.000000	1.109105
4054.000000	1.109093
4052.000000	1.108973
4050.000000	1.108987
4048.000000	1.109155
4046.000000	1.109291
4044.000000	1.109269
4042.000000	1.109265
4040.000000	1.109278
4038.000000	1.109210
4036.000000	1.109228
4034.000000	1.109368
4032.000000	1.109416
4030.000000	1.109392
4028.000000	1.109323
4026.000000	1.109278
4024.000000	1.109295
4022.000000	1.109382
4020.000000	1.109514
4018.000000	1.109502
4016.000000	1.109379
4014.000000	1.109398
4012.000000	1.109499
4010.000000	1.109549
4008.000000	1.109460
4006.000000	1.109432
4004.000000	1.109557
4002.000000	1.109501
4000.000000	1.109348
3998.000000	1.109416
3996.000000	1.109423
3994.000000	1.109266
3992.000000	1.109184
3990.000000	1.109196
3988.000000	1.109245
3986.000000	1.109297
3984.000000	1.109267
3982.000000	1.109148
3980.000000	1.108954
3978.000000	1.108836
3976.000000	1.108857
3974.000000	1.108836
3972.000000	1.108637
3970.000000	1.108434
3968.000000	1.108348
3966.000000	1.108244
3964.000000	1.108031
3962.000000	1.107858
3960.000000	1.107774
3958.000000	1.107681
3956.000000	1.107537
3954.000000	1.107443
3952.000000	1.107232
3950.000000	1.106783
3948.000000	1.106436
3946.000000	1.106250
3944.000000	1.105960
3942.000000	1.105687
3940.000000	1.105590
3938.000000	1.105581
3936.000000	1.105441
3934.000000	1.105144
3932.000000	1.104781
3930.000000	1.104466
3928.000000	1.104219
3926.000000	1.103906
3924.000000	1.103591
3922.000000	1.103311
3920.000000	1.102859
3918.000000	1.102310
3916.000000	1.102045
3914.000000	1.102152
3912.000000	1.102169
3910.000000	1.101933
3908.000000	1.101503
3906.000000	1.100677
3904.000000	1.099692
3902.000000	1.099149
3900.000000	1.099014
3898.000000	1.099178
3896.000000	1.099519
3894.000000	1.099368
3892.000000	1.098614
3890.000000	1.098200
3888.000000	1.098002
3886.000000	1.097406
3884.000000	1.097155
3882.000000	1.097080
3880.000000	1.096757
3878.000000	1.096867
3876.000000	1.096828
3874.000000	1.096344
3872.000000	1.095686
3870.000000	1.094912
3868.000000	1.094862
3866.000000	1.094987
3864.000000	1.094644
3862.000000	1.094662
3860.000000	1.095025
3858.000000	1.095009
3856.000000	1.093277
3854.000000	1.090483
3852.000000	1.090151
3850.000000	1.092293
3848.000000	1.093898
3846.000000	1.094082
3844.000000	1.093678
3842.000000	1.093230
3840.000000	1.092269
3838.000000	1.091069
3836.000000	1.091069
3834.000000	1.091841
3832.000000	1.092222
3830.000000	1.092466
3828.000000	1.092616
3826.000000	1.092575
3824.000000	1.092195
3822.000000	1.091131
3820.000000	1.090687
3818.000000	1.090735
3816.000000	1.090158
3814.000000	1.090477
3812.000000	1.091593
3810.000000	1.091918
3808.000000	1.091214
3806.000000	1.090714
3804.000000	1.090591
3802.000000	1.089740
3800.000000	1.089705
3798.000000	1.090687
3796.000000	1.091185
3794.000000	1.091619
3792.000000	1.091982
3790.000000	1.091912
3788.000000	1.091829
3786.000000	1.091894
3784.000000	1.091947
3782.000000	1.091877
3780.000000	1.091719
3778.000000	1.091811
3776.000000	1.092123
3774.000000	1.092315
3772.000000	1.092095
3770.000000	1.091629
3768.000000	1.091684
3766.000000	1.091890
3764.000000	1.091932
3762.000000	1.092023
3760.000000	1.091975
3758.000000	1.092015
3756.000000	1.092136
3754.000000	1.091361
3752.000000	1.089629
3750.000000	1.088865
3748.000000	1.089816
3746.000000	1.089839
3744.000000	1.089096
3742.000000	1.090633
3740.000000	1.092421
3738.000000	1.092234
3736.000000	1.091518
3734.000000	1.091468
3732.000000	1.091954
3730.000000	1.092976
3728.000000	1.093779
3726.000000	1.093756
3724.000000	1.093771
3722.000000	1.094155
3720.000000	1.094698
3718.000000	1.095271
3716.000000	1.095690
3714.000000	1.095461
3712.000000	1.094907
3710.000000	1.095304
3708.000000	1.096682
3706.000000	1.098091
3704.000000	1.098980
3702.000000	1.099422
3700.000000	1.100131
3698.000000	1.101290
3696.000000	1.102382
3694.000000	1.103240
3692.000000	1.103742
3690.000000	1.103604
3688.000000	1.104031
3686.000000	1.106232
3684.000000	1.108659
3682.000000	1.110208
3680.000000	1.111531
3678.000000	1.112422
3676.000000	1.112646
3674.000000	1.114214
3672.000000	1.116566
3670.000000	1.118254
3668.000000	1.120847
3666.000000	1.123970
3664.000000	1.126372
3662.000000	1.128294
3660.000000	1.130241
3658.000000	1.131766
3656.000000	1.133077
3654.000000	1.135227
3652.000000	1.136841
3650.000000	1.137264
3648.000000	1.138690
3646.000000	1.141596
3644.000000	1.144415
3642.000000	1.146397
3640.000000	1.147956
3638.000000	1.149504
3636.000000	1.150970
3634.000000	1.152351
3632.000000	1.153479
3630.000000	1.153641
3628.000000	1.154328
3626.000000	1.156726
3624.000000	1.159045
3622.000000	1.160254
3620.000000	1.160749
3618.000000	1.161616
3616.000000	1.163007
3614.000000	1.164097
3612.000000	1.164833
3610.000000	1.165487
3608.000000	1.166527
3606.000000	1.168047
3604.000000	1.169346
3602.000000	1.170240
3600.000000	1.170921
3598.000000	1.171528
3596.000000	1.172019
3594.000000	1.172588
3592.000000	1.173469
3590.000000	1.174037
3588.000000	1.174068
3586.000000	1.174477
3584.000000	1.175389
3582.000000	1.176254
3580.000000	1.176885
3578.000000	1.177372
3576.000000	1.177796
3574.000000	1.178264
3572.000000	1.178794
3570.000000	1.178985
3568.000000	1.178679
3566.000000	1.178642
3564.000000	1.179362
3562.000000	1.180162
3560.000000	1.180608
3558.000000	1.180967
3556.000000	1.181327
3554.000000	1.181646
3552.000000	1.181923
3550.000000	1.182159
3548.000000	1.182278
3546.000000	1.182354
3544.000000	1.182588
3542.000000	1.182910
3540.000000	1.183241
3538.000000	1.183592
3536.000000	1.183915
3534.000000	1.184129
3532.000000	1.184190
3530.000000	1.184272
3528.000000	1.184410
3526.000000	1.184548
3524.000000	1.184770
3522.000000	1.185150
3520.000000	1.185619
3518.000000	1.185982
3516.000000	1.186131
3514.000000	1.186157
3512.000000	1.186281
3510.000000	1.186558
3508.000000	1.186835
3506.000000	1.186984
3504.000000	1.187168
3502.000000	1.187588
3500.000000	1.188043
3498.000000	1.188271
3496.000000	1.188397
3494.000000	1.188578
3492.000000	1.188854
3490.000000	1.189087
3488.000000	1.189199
3486.000000	1.189421
3484.000000	1.189772
3482.000000	1.189945
3480.000000	1.190187
3478.000000	1.190558
3476.000000	1.190759
3474.000000	1.190965
3472.000000	1.191286
3470.000000	1.191563
3468.000000	1.191701
3466.000000	1.191828
3464.000000	1.192226
3462.000000	1.192745
3460.000000	1.193033
3458.000000	1.193150
3456.000000	1.193322
3454.000000	1.193561
3452.000000	1.193823
3450.000000	1.193972
3448.000000	1.194004
3446.000000	1.194127
3444.000000	1.194554
3442.000000	1.194964
3440.000000	1.195078
3438.000000	1.195298
3436.000000	1.195616
3434.000000	1.195697
3432.000000	1.195679
3430.000000	1.195818
3428.000000	1.196054
3426.000000	1.196182
3424.000000	1.196331
3422.000000	1.196521
3420.000000	1.196674
3418.000000	1.196967
3416.000000	1.197320
3414.000000	1.197518
3412.000000	1.197704
3410.000000	1.197880
3408.000000	1.197942
3406.000000	1.198007
3404.000000	1.198049
3402.000000	1.198110
3400.000000	1.198249
3398.000000	1.198407
3396.000000	1.198628
3394.000000	1.198822
3392.000000	1.198866
3390.000000	1.199055
3388.000000	1.199384
3386.000000	1.199399
3384.000000	1.199199
3382.000000	1.199195
3380.000000	1.199419
3378.000000	1.199613
3376.000000	1.199726
3374.000000	1.199868
3372.000000	1.199794
3370.000000	1.199702
3368.000000	1.199885
3366.000000	1.199968
3364.000000	1.199973
3362.000000	1.200137
3360.000000	1.200297
3358.000000	1.200310
3356.000000	1.200318
3354.000000	1.200457
3352.000000	1.200707
3350.000000	1.200748
3348.000000	1.200665
3346.000000	1.200892
3344.000000	1.201139
3342.000000	1.201009
3340.000000	1.200943
3338.000000	1.201029
3336.000000	1.201029
3334.000000	1.201122
3332.000000	1.201383
3330.000000	1.201504
3328.000000	1.201397
3326.000000	1.201364
3324.000000	1.201511
3322.000000	1.201615
3320.000000	1.201750
3318.000000	1.201880
3316.000000	1.201887
3314.000000	1.201970
3312.000000	1.202214
3310.000000	1.202315
3308.000000	1.202147
3306.000000	1.202140
3304.000000	1.202399
3302.000000	1.202611
3300.000000	1.202756
3298.000000	1.202871
3296.000000	1.202877
3294.000000	1.202835
3292.000000	1.202837
3290.000000	1.202919
3288.000000	1.203169
3286.000000	1.203382
3284.000000	1.203415
3282.000000	1.203459
3280.000000	1.203584
3278.000000	1.203773
3276.000000	1.203905
3274.000000	1.203886
3272.000000	1.203852
3270.000000	1.204019
3268.000000	1.204161
3266.000000	1.204139
3264.000000	1.204240
3262.000000	1.204425
3260.000000	1.204457
3258.000000	1.204538
3256.000000	1.204632
3254.000000	1.204656
3252.000000	1.204768
3250.000000	1.204865
3248.000000	1.204855
3246.000000	1.204846
3244.000000	1.205017
3242.000000	1.205162
3240.000000	1.205169
3238.000000	1.205285
3236.000000	1.205363
3234.000000	1.205348
3232.000000	1.205368
3230.000000	1.205521
3228.000000	1.205581
3226.000000	1.205556
3224.000000	1.205658
3222.000000	1.205719
3220.000000	1.205735
3218.000000	1.205849
3216.000000	1.205871
3214.000000	1.205808
3212.000000	1.205896
3210.000000	1.206095
3208.000000	1.206212
3206.000000	1.206199
3204.000000	1.206239
3202.000000	1.206276
3200.000000	1.206233
3198.000000	1.206193
3196.000000	1.206284
3194.000000	1.206465
3192.000000	1.206572
3190.000000	1.206712
3188.000000	1.206751
3186.000000	1.206618
3184.000000	1.206532
3182.000000	1.206496
3180.000000	1.206551
3178.000000	1.206586
3176.000000	1.206719
3174.000000	1.206880
3172.000000	1.206832
3170.000000	1.206767
3168.000000	1.206717
3166.000000	1.206764
3164.000000	1.206833
3162.000000	1.206737
3160.000000	1.206711
3158.000000	1.206793
3156.000000	1.206883
3154.000000	1.206965
3152.000000	1.207000
3150.000000	1.207189
3148.000000	1.207328
3146.000000	1.207131
3144.000000	1.206984
3142.000000	1.206982
3140.000000	1.206997
3138.000000	1.207029
3136.000000	1.207074
3134.000000	1.207123
3132.000000	1.207145
3130.000000	1.207233
3128.000000	1.207315
3126.000000	1.207399
3124.000000	1.207325
3122.000000	1.207177
3120.000000	1.207335
3118.000000	1.207566
3116.000000	1.207558
3114.000000	1.207489
3112.000000	1.207447
3110.000000	1.207491
3108.000000	1.207649
3106.000000	1.207714
3104.000000	1.207709
3102.000000	1.207669
3100.000000	1.207585
3098.000000	1.207591
3096.000000	1.207711
3094.000000	1.207808
3092.000000	1.207735
3090.000000	1.207689
3088.000000	1.207795
3086.000000	1.207890
3084.000000	1.207950
3082.000000	1.207894
3080.000000	1.207885
3078.000000	1.207943
3076.000000	1.207880
3074.000000	1.207902
3072.000000	1.208065
3070.000000	1.208105
3068.000000	1.207938
3066.000000	1.207765
3064.000000	1.207699
3062.000000	1.207668
3060.000000	1.207587
3058.000000	1.207503
3056.000000	1.207402
3054.000000	1.207333
3052.000000	1.207328
3050.000000	1.207328
3048.000000	1.207356
3046.000000	1.207441
3044.000000	1.207433
3042.000000	1.207291
3040.000000	1.207138
3038.000000	1.206971
3036.000000	1.206819
3034.000000	1.206793
3032.000000	1.206680
3030.000000	1.206501
3028.000000	1.206500
3026.000000	1.206430
3024.000000	1.206293
3022.000000	1.206175
3020.000000	1.205947
3018.000000	1.205587
3016.000000	1.205344
3014.000000	1.205183
3012.000000	1.204958
3010.000000	1.204869
3008.000000	1.204814
3006.000000	1.204685
3004.000000	1.204492
3002.000000	1.204209
3000.000000	1.203935
2998.000000	1.203747
2996.000000	1.203584
2994.000000	1.203392
2992.000000	1.203176
2990.000000	1.202854
2988.000000	1.202559
2986.000000	1.202365
2984.000000	1.202162
2982.000000	1.201906
2980.000000	1.201635
2978.000000	1.201635
2976.000000	1.201633
2974.000000	1.201381
2972.000000	1.201235
2970.000000	1.201181
2968.000000	1.200966
2966.000000	1.200633
2964.000000	1.200243
2962.000000	1.199748
2960.000000	1.199173
2958.000000	1.198696
2956.000000	1.198191
2954.000000	1.197596
2952.000000	1.197060
2950.000000	1.196755
2948.000000	1.196726
2946.000000	1.196583
2944.000000	1.196218
2942.000000	1.195765
2940.000000	1.195412
2938.000000	1.195151
2936.000000	1.194760
2934.000000	1.194322
2932.000000	1.193997
2930.000000	1.193595
2928.000000	1.193069
2926.000000	1.192520
2924.000000	1.191789
2922.000000	1.191085
2920.000000	1.190583
2918.000000	1.190137
2916.000000	1.189740
2914.000000	1.189596
2912.000000	1.189517
2910.000000	1.189374
2908.000000	1.189219
2906.000000	1.189024
2904.000000	1.188722
2902.000000	1.188308
2900.000000	1.187976
2898.000000	1.187725
2896.000000	1.187420
2894.000000	1.187010
2892.000000	1.186673
2890.000000	1.186487
2888.000000	1.186266
2886.000000	1.185928
2884.000000	1.185606
2882.000000	1.185344
2880.000000	1.185165
2878.000000	1.185004
2876.000000	1.184788
2874.000000	1.184542
2872.000000	1.184276
2870.000000	1.184113
2868.000000	1.184127
2866.000000	1.183907
2864.000000	1.183450
2862.000000	1.182956
2860.000000	1.182358
2858.000000	1.181904
2856.000000	1.181609
2854.000000	1.181324
2852.000000	1.181047
2850.000000	1.180721
2848.000000	1.180466
2846.000000	1.180314
2844.000000	1.180178
2842.000000	1.180035
2840.000000	1.179851
2838.000000	1.179762
2836.000000	1.179697
2834.000000	1.179558
2832.000000	1.179407
2830.000000	1.179258
2828.000000	1.179181
2826.000000	1.179026
2824.000000	1.178752
2822.000000	1.178635
2820.000000	1.178590
2818.000000	1.178254
2816.000000	1.177925
2814.000000	1.177884
2812.000000	1.177853
2810.000000	1.177623
2808.000000	1.177454
2806.000000	1.177359
2804.000000	1.177230
2802.000000	1.177171
2800.000000	1.177076
2798.000000	1.176913
2796.000000	1.176821
2794.000000	1.176741
2792.000000	1.176681
2790.000000	1.176495
2788.000000	1.176224
2786.000000	1.176099
2784.000000	1.176011
2782.000000	1.175813
2780.000000	1.175669
2778.000000	1.175632
2776.000000	1.175600
2774.000000	1.175597
2772.000000	1.175546
2770.000000	1.175409
2768.000000	1.175298
2766.000000	1.175286
2764.000000	1.175293
2762.000000	1.175224
2760.000000	1.175115
2758.000000	1.174977
2756.000000	1.174907
2754.000000	1.174787
2752.000000	1.174663
2750.000000	1.174710
2748.000000	1.174661
2746.000000	1.174615
2744.000000	1.174704
2742.000000	1.174615
2740.000000	1.174570
2738.000000	1.174606
2736.000000	1.174529
2734.000000	1.174438
2732.000000	1.174477
2730.000000	1.174507
2728.000000	1.174470
2726.000000	1.174514
2724.000000	1.174494
2722.000000	1.174358
2720.000000	1.174488
2718.000000	1.174722
2716.000000	1.174726
2714.000000	1.174749
2712.000000	1.174804
2710.000000	1.174702
2708.000000	1.174712
2706.000000	1.174711
2704.000000	1.174684
2702.000000	1.174785
2700.000000	1.174872
2698.000000	1.174936
2696.000000	1.175057
2694.000000	1.175190
2692.000000	1.175202
2690.000000	1.175188
2688.000000	1.175259
2686.000000	1.175384
2684.000000	1.175519
2682.000000	1.175610
2680.000000	1.175770
2678.000000	1.175960
2676.000000	1.176031
2674.000000	1.176098
2672.000000	1.176247
2670.000000	1.176336
2668.000000	1.176354
2666.000000	1.176518
2664.000000	1.176743
2662.000000	1.176884
2660.000000	1.177100
2658.000000	1.177308
2656.000000	1.177369
2654.000000	1.177515
2652.000000	1.177635
2650.000000	1.177696
2648.000000	1.177940
2646.000000	1.178220
2644.000000	1.178353
2642.000000	1.178412
2640.000000	1.178603
2638.000000	1.178884
2636.000000	1.179204
2634.000000	1.179405
2632.000000	1.179483
2630.000000	1.179635
2628.000000	1.179854
2626.000000	1.180031
2624.000000	1.180171
2622.000000	1.180371
2620.000000	1.180630
2618.000000	1.180932
2616.000000	1.181245
2614.000000	1.181470
2612.000000	1.181694
2610.000000	1.181954
2608.000000	1.182229
2606.000000	1.182417
2604.000000	1.182544
2602.000000	1.182710
2600.000000	1.183025
2598.000000	1.183371
2596.000000	1.183559
2594.000000	1.183642
2592.000000	1.183847
2590.000000	1.184153
2588.000000	1.184413
2586.000000	1.184730
2584.000000	1.185005
2582.000000	1.185264
2580.000000	1.185504
2578.000000	1.185800
2576.000000	1.186094
2574.000000	1.186230
2572.000000	1.186446
2570.000000	1.186790
2568.000000	1.187082
2566.000000	1.187313
2564.000000	1.187659
2562.000000	1.188002
2560.000000	1.188296
2558.000000	1.188551
2556.000000	1.188802
2554.000000	1.189241
2552.000000	1.189590
2550.000000	1.189807
2548.000000	1.190119
2546.000000	1.190426
2544.000000	1.190786
2542.000000	1.191168
2540.000000	1.191539
2538.000000	1.191897
2536.000000	1.192318
2534.000000	1.192754
2532.000000	1.193073
2530.000000	1.193359
2528.000000	1.193798
2526.000000	1.194184
2524.000000	1.194434
2522.000000	1.194812
2520.000000	1.195257
2518.000000	1.195584
2516.000000	1.195795
2514.000000	1.196081
2512.000000	1.196565
2510.000000	1.196960
2508.000000	1.197270
2506.000000	1.197596
2504.000000	1.197831
2502.000000	1.198115
2500.000000	1.198513
2498.000000	1.198876
2496.000000	1.199255
2494.000000	1.199625
2492.000000	1.199867
2490.000000	1.200052
2488.000000	1.200316
2486.000000	1.200694
2484.000000	1.200981
2482.000000	1.201138
2480.000000	1.201339
2478.000000	1.201639
2476.000000	1.202018
2474.000000	1.202308
2472.000000	1.202543
2470.000000	1.202730
2468.000000	1.202878
2466.000000	1.203036
2464.000000	1.203196
2462.000000	1.203410
2460.000000	1.203689
2458.000000	1.203964
2456.000000	1.204078
2454.000000	1.204067
2452.000000	1.204079
2450.000000	1.204229
2448.000000	1.204400
2446.000000	1.204473
2444.000000	1.204511
2442.000000	1.204454
2440.000000	1.204379
2438.000000	1.204397
2436.000000	1.204448
2434.000000	1.204492
2432.000000	1.204568
2430.000000	1.204560
2428.000000	1.204455
2426.000000	1.204352
2424.000000	1.204311
2422.000000	1.204233
2420.000000	1.204019
2418.000000	1.203804
2416.000000	1.203697
2414.000000	1.203638
2412.000000	1.203513
2410.000000	1.203405
2408.000000	1.203259
2406.000000	1.203080
2404.000000	1.202915
2402.000000	1.202716
2400.000000	1.202633
2398.000000	1.202690
2396.000000	1.202684
2394.000000	1.202491
2392.000000	1.202431
2390.000000	1.202411
2388.000000	1.202493
2386.000000	1.202673
2384.000000	1.202643
2382.000000	1.202475
2380.000000	1.202386
2378.000000	1.202261
2376.000000	1.201967
2374.000000	1.201796
2372.000000	1.201640
2370.000000	1.201335
2368.000000	1.201113
2366.000000	1.200974
2364.000000	1.200882
2362.000000	1.200766
2360.000000	1.200681
2358.000000	1.200933
2356.000000	1.201427
2354.000000	1.201932
2352.000000	1.202529
2350.000000	1.203261
2348.000000	1.203774
2346.000000	1.203926
2344.000000	1.204251
2342.000000	1.205039
2340.000000	1.205534
2338.000000	1.205108
2336.000000	1.204268
2334.000000	1.203789
2332.000000	1.203695
2330.000000	1.203875
2328.000000	1.204229
2326.000000	1.204421
2324.000000	1.204581
2322.000000	1.204842
2320.000000	1.205179
2318.000000	1.205525
2316.000000	1.205798
2314.000000	1.206091
2312.000000	1.206401
2310.000000	1.206604
2308.000000	1.206799
2306.000000	1.207038
2304.000000	1.207165
2302.000000	1.207270
2300.000000	1.207442
2298.000000	1.207640
2296.000000	1.207801
2294.000000	1.207899
2292.000000	1.208106
2290.000000	1.208346
2288.000000	1.208424
2286.000000	1.208550
2284.000000	1.208778
2282.000000	1.208860
2280.000000	1.209029
2278.000000	1.209259
2276.000000	1.209371
2274.000000	1.209499
2272.000000	1.209643
2270.000000	1.209666
2268.000000	1.209736
2266.000000	1.209862
2264.000000	1.210017
2262.000000	1.210307
2260.000000	1.210536
2258.000000	1.210563
2256.000000	1.210679
2254.000000	1.210908
2252.000000	1.210950
2250.000000	1.210909
2248.000000	1.210987
2246.000000	1.211103
2244.000000	1.211291
2242.000000	1.211495
2240.000000	1.211637
2238.000000	1.211691
2236.000000	1.211694
2234.000000	1.211789
2232.000000	1.211864
2230.000000	1.211882
2228.000000	1.211967
2226.000000	1.211988
2224.000000	1.212004
2222.000000	1.212101
2220.000000	1.212209
2218.000000	1.212288
2216.000000	1.212292
2214.000000	1.212367
2212.000000	1.212445
2210.000000	1.212428
2208.000000	1.212502
2206.000000	1.212583
2204.000000	1.212570
2202.000000	1.212524
2200.000000	1.212448
2198.000000	1.212455
2196.000000	1.212524
2194.000000	1.212567
2192.000000	1.212546
2190.000000	1.212504
2188.000000	1.212467
2186.000000	1.212422
2184.000000	1.212432
2182.000000	1.212399
2180.000000	1.212272
2178.000000	1.212197
2176.000000	1.212183
2174.000000	1.212161
2172.000000	1.212158
2170.000000	1.212109
2168.000000	1.212003
2166.000000	1.211943
2164.000000	1.211898
2162.000000	1.211803
2160.000000	1.211719
2158.000000	1.211517
2156.000000	1.211453
2154.000000	1.211364
2152.000000	1.211203
2150.000000	1.211151
2148.000000	1.211025
2146.000000	1.210799
2144.000000	1.210675
2142.000000	1.210517
2140.000000	1.210286
2138.000000	1.210159
2136.000000	1.210112
2134.000000	1.209950
2132.000000	1.209694
2130.000000	1.209531
2128.000000	1.209365
2126.000000	1.209129
2124.000000	1.208915
2122.000000	1.208616
2120.000000	1.208316
2118.000000	1.208187
2116.000000	1.208062
2114.000000	1.207776
2112.000000	1.207479
2110.000000	1.207318
2108.000000	1.207141
2106.000000	1.206864
2104.000000	1.206598
2102.000000	1.206308
2100.000000	1.206088
2098.000000	1.205766
2096.000000	1.205348
2094.000000	1.205081
2092.000000	1.205041
2090.000000	1.204904
2088.000000	1.204396
2086.000000	1.203934
2084.000000	1.203689
2082.000000	1.203407
2080.000000	1.203121
2078.000000	1.202822
2076.000000	1.202543
2074.000000	1.202264
2072.000000	1.201956
2070.000000	1.201620
2068.000000	1.201334
2066.000000	1.200961
2064.000000	1.200585
2062.000000	1.200312
2060.000000	1.200000
2058.000000	1.199722
2056.000000	1.199497
2054.000000	1.199122
2052.000000	1.198795
2050.000000	1.198594
2048.000000	1.198261
2046.000000	1.197898
2044.000000	1.197592
2042.000000	1.197313
2040.000000	1.197111
2038.000000	1.196785
2036.000000	1.196355
2034.000000	1.196075
2032.000000	1.195770
2030.000000	1.195389
2028.000000	1.195144
2026.000000	1.194917
2024.000000	1.194692
2022.000000	1.194496
2020.000000	1.194224
2018.000000	1.193846
2016.000000	1.193565
2014.000000	1.193429
2012.000000	1.193233
2010.000000	1.192949
2008.000000	1.192699
2006.000000	1.192624
2004.000000	1.192436
2002.000000	1.192162
2000.000000	1.192089
1998.000000	1.191951
1996.000000	1.191604
1994.000000	1.191254
1992.000000	1.190956
1990.000000	1.190897
1988.000000	1.190923
1986.000000	1.190750
1984.000000	1.190480
1982.000000	1.190285
1980.000000	1.190189
1978.000000	1.190016
1976.000000	1.189837
1974.000000	1.189779
1972.000000	1.189781
1970.000000	1.189640
1968.000000	1.189430
1966.000000	1.189346
1964.000000	1.189349
1962.000000	1.189370
1960.000000	1.189351
1958.000000	1.189089
1956.000000	1.188913
1954.000000	1.188974
1952.000000	1.189057
1950.000000	1.188982
1948.000000	1.188871
1946.000000	1.188829
1944.000000	1.188711
1942.000000	1.188572
1940.000000	1.188728
1938.000000	1.188783
1936.000000	1.188756
1934.000000	1.188821
1932.000000	1.188954
1930.000000	1.189030
1928.000000	1.189014
1926.000000	1.188977
1924.000000	1.188934
1922.000000	1.188925
1920.000000	1.188855
1918.000000	1.188594
1916.000000	1.188775
1914.000000	1.189115
1912.000000	1.189274
1910.000000	1.189269
1908.000000	1.189372
1906.000000	1.189543
1904.000000	1.189646
1902.000000	1.189797
1900.000000	1.189887
1898.000000	1.189892
1896.000000	1.189919
1894.000000	1.189941
1892.000000	1.190027
1890.000000	1.189939
1888.000000	1.190056
1886.000000	1.190341
1884.000000	1.190439
1882.000000	1.190515
1880.000000	1.190660
1878.000000	1.190787
1876.000000	1.191023
1874.000000	1.191235
1872.000000	1.191192
1870.000000	1.190820
1868.000000	1.190811
1866.000000	1.191374
1864.000000	1.191723
1862.000000	1.191845
1860.000000	1.192003
1858.000000	1.192148
1856.000000	1.192466
1854.000000	1.192807
1852.000000	1.192961
1850.000000	1.193011
1848.000000	1.193160
1846.000000	1.192871
1844.000000	1.192277
1842.000000	1.193013
1840.000000	1.194026
1838.000000	1.194358
1836.000000	1.194540
1834.000000	1.194865
1832.000000	1.194904
1830.000000	1.194576
1828.000000	1.194921
1826.000000	1.195384
1824.000000	1.195821
1822.000000	1.196477
1820.000000	1.196759
1818.000000	1.196961
1816.000000	1.197313
1814.000000	1.197780
1812.000000	1.198061
1810.000000	1.198177
1808.000000	1.198555
1806.000000	1.199059
1804.000000	1.199389
1802.000000	1.199425
1800.000000	1.199654
1798.000000	1.200309
1796.000000	1.200802
1794.000000	1.200462
1792.000000	1.200131
1790.000000	1.201213
1788.000000	1.202367
1786.000000	1.202732
1784.000000	1.203118
1782.000000	1.203677
1780.000000	1.204026
1778.000000	1.204594
1776.000000	1.205065
1774.000000	1.204526
1772.000000	1.203996
1770.000000	1.205136
1768.000000	1.206148
1766.000000	1.207067
1764.000000	1.207782
1762.000000	1.207875
1760.000000	1.208535
1758.000000	1.209166
1756.000000	1.209656
1754.000000	1.210486
1752.000000	1.210127
1750.000000	1.210030
1748.000000	1.211166
1746.000000	1.212197
1744.000000	1.212680
1742.000000	1.212951
1740.000000	1.213011
1738.000000	1.213557
1736.000000	1.213214
1734.000000	1.211496
1732.000000	1.212777
1730.000000	1.214971
1728.000000	1.215956
1726.000000	1.216357
1724.000000	1.216611
1722.000000	1.217028
1720.000000	1.216498
1718.000000	1.214573
1716.000000	1.214493
1714.000000	1.216332
1712.000000	1.217641
1710.000000	1.218118
1708.000000	1.218002
1706.000000	1.217589
1704.000000	1.217588
1702.000000	1.216550
1700.000000	1.214589
1698.000000	1.215447
1696.000000	1.215324
1694.000000	1.216592
1692.000000	1.218862
1690.000000	1.219201
1688.000000	1.219126
1686.000000	1.217202
1684.000000	1.215214
1682.000000	1.217340
1680.000000	1.219320
1678.000000	1.219520
1676.000000	1.218568
1674.000000	1.218356
1672.000000	1.219181
1670.000000	1.218798
1668.000000	1.218965
1666.000000	1.219969
1664.000000	1.219938
1662.000000	1.219535
1660.000000	1.220145
1658.000000	1.220561
1656.000000	1.219743
1654.000000	1.215789
1652.000000	1.214442
1650.000000	1.218196
1648.000000	1.219068
1646.000000	1.218241
1644.000000	1.219488
1642.000000	1.220771
1640.000000	1.220860
1638.000000	1.220032
1636.000000	1.218116
1634.000000	1.218361
1632.000000	1.220175
1630.000000	1.220638
1628.000000	1.220455
1626.000000	1.220443
1624.000000	1.220077
1622.000000	1.220133
1620.000000	1.220674
1618.000000	1.219439
1616.000000	1.218456
1614.000000	1.220024
1612.000000	1.220987
1610.000000	1.220814
1608.000000	1.220731
1606.000000	1.220775
1604.000000	1.220749
1602.000000	1.220870
1600.000000	1.220962
1598.000000	1.220866
1596.000000	1.220786
1594.000000	1.220792
1592.000000	1.220801
1590.000000	1.220791
1588.000000	1.220853
1586.000000	1.220917
1584.000000	1.220940
1582.000000	1.220961
1580.000000	1.221044
1578.000000	1.219910
1576.000000	1.218108
1574.000000	1.219385
1572.000000	1.220573
1570.000000	1.219729
1568.000000	1.220084
1566.000000	1.221038
1564.000000	1.221152
1562.000000	1.220029
1560.000000	1.216409
1558.000000	1.215336
1556.000000	1.218016
1554.000000	1.219441
1552.000000	1.220500
1550.000000	1.220947
1548.000000	1.221027
1546.000000	1.220580
1544.000000	1.219555
1542.000000	1.217964
1540.000000	1.216238
1538.000000	1.217461
1536.000000	1.220205
1534.000000	1.220463
1532.000000	1.220643
1530.000000	1.221289
1528.000000	1.221109
1526.000000	1.220430
1524.000000	1.220031
1522.000000	1.218809
1520.000000	1.218777
1518.000000	1.220152
1516.000000	1.220805
1514.000000	1.221420
1512.000000	1.221395
1510.000000	1.220938
1508.000000	1.218898
1506.000000	1.217542
1504.000000	1.220076
1502.000000	1.222618
1500.000000	1.223243
1498.000000	1.222611
1496.000000	1.221296
1494.000000	1.221064
1492.000000	1.220455
1490.000000	1.219473
1488.000000	1.219845
1486.000000	1.220753
1484.000000	1.221421
1482.000000	1.221772
1480.000000	1.221941
1478.000000	1.221758
1476.000000	1.221104
1474.000000	1.220066
1472.000000	1.219791
1470.000000	1.221220
1468.000000	1.222017
1466.000000	1.221485
1464.000000	1.221287
1462.000000	1.221964
1460.000000	1.221619
1458.000000	1.219719
1456.000000	1.219229
1454.000000	1.221303
1452.000000	1.221954
1450.000000	1.221032
1448.000000	1.220501
1446.000000	1.221182
1444.000000	1.221786
1442.000000	1.222012
1440.000000	1.221830
1438.000000	1.220547
1436.000000	1.219793
1434.000000	1.221009
1432.000000	1.221541
1430.000000	1.221395
1428.000000	1.221436
1426.000000	1.221489
1424.000000	1.221377
1422.000000	1.221235
1420.000000	1.220032
1418.000000	1.219753
1416.000000	1.220945
1414.000000	1.221501
1412.000000	1.221571
1410.000000	1.221684
1408.000000	1.221590
1406.000000	1.221253
1404.000000	1.220892
1402.000000	1.220657
1400.000000	1.219903
1398.000000	1.219644
1396.000000	1.219889
1394.000000	1.219820
1392.000000	1.220261
1390.000000	1.220491
1388.000000	1.220163
1386.000000	1.220154
1384.000000	1.220326
1382.000000	1.220203
1380.000000	1.220219
1378.000000	1.220303
1376.000000	1.220019
1374.000000	1.219700
1372.000000	1.219912
1370.000000	1.220122
1368.000000	1.220017
1366.000000	1.219721
1364.000000	1.219367
1362.000000	1.219283
1360.000000	1.219457
1358.000000	1.219580
1356.000000	1.219540
1354.000000	1.219376
1352.000000	1.219402
1350.000000	1.219352
1348.000000	1.219199
1346.000000	1.219285
1344.000000	1.219300
1342.000000	1.219053
1340.000000	1.218979
1338.000000	1.219082
1336.000000	1.218972
1334.000000	1.218886
1332.000000	1.218990
1330.000000	1.218989
1328.000000	1.219004
1326.000000	1.219116
1324.000000	1.219099
1322.000000	1.218983
1320.000000	1.218825
1318.000000	1.218814
1316.000000	1.218798
1314.000000	1.218769
1312.000000	1.218768
1310.000000	1.218898
1308.000000	1.218946
1306.000000	1.218814
1304.000000	1.218733
1302.000000	1.218736
1300.000000	1.218806
1298.000000	1.218820
1296.000000	1.218758
1294.000000	1.218658
1292.000000	1.218719
1290.000000	1.218817
1288.000000	1.218890
1286.000000	1.218930
1284.000000	1.218826
1282.000000	1.218791
1280.000000	1.218801
1278.000000	1.218878
1276.000000	1.218922
1274.000000	1.219037
1272.000000	1.219263
1270.000000	1.219775
1268.000000	1.220383
1266.000000	1.221112
1264.000000	1.221840
1262.000000	1.222138
1260.000000	1.221884
1258.000000	1.221242
1256.000000	1.220651
1254.000000	1.219939
1252.000000	1.219417
1250.000000	1.219301
1248.000000	1.219073
1246.000000	1.218800
1244.000000	1.218765
1242.000000	1.218842
1240.000000	1.219081
1238.000000	1.219027
1236.000000	1.218688
1234.000000	1.218452
1232.000000	1.218354
1230.000000	1.218363
1228.000000	1.218421
1226.000000	1.218309
1224.000000	1.218165
1222.000000	1.218149
1220.000000	1.218154
1218.000000	1.218032
1216.000000	1.217886
1214.000000	1.217843
1212.000000	1.217721
1210.000000	1.217533
1208.000000	1.217784
1206.000000	1.217908
1204.000000	1.217869
1202.000000	1.217827
1200.000000	1.217611
1198.000000	1.217367
1196.000000	1.217520
1194.000000	1.217739
1192.000000	1.217742
1190.000000	1.217841
1188.000000	1.218021
1186.000000	1.217896
1184.000000	1.217734
1182.000000	1.217661
1180.000000	1.217398
1178.000000	1.217562
1176.000000	1.218043
1174.000000	1.218334
1172.000000	1.218641
1170.000000	1.218710
1168.000000	1.218205
1166.000000	1.217860
1164.000000	1.218314
1162.000000	1.218577
1160.000000	1.218521
1158.000000	1.218784
1156.000000	1.218859
1154.000000	1.218476
1152.000000	1.218490
1150.000000	1.218716
1148.000000	1.218748
1146.000000	1.218555
1144.000000	1.218271
1142.000000	1.218225
1140.000000	1.218343
1138.000000	1.218209
1136.000000	1.218265
1134.000000	1.218161
1132.000000	1.217970
1130.000000	1.217926
1128.000000	1.217675
1126.000000	1.217556
1124.000000	1.217676
1122.000000	1.217883
1120.000000	1.217699
1118.000000	1.217610
1116.000000	1.217644
1114.000000	1.218028
1112.000000	1.218298
1110.000000	1.218339
1108.000000	1.218504
1106.000000	1.218695
1104.000000	1.218971
1102.000000	1.219046
1100.000000	1.219264
1098.000000	1.219929
1096.000000	1.220544
1094.000000	1.220329
1092.000000	1.219863
1090.000000	1.219576
1088.000000	1.219314
1086.000000	1.218857
1084.000000	1.217912
1082.000000	1.217120
1080.000000	1.217270
1078.000000	1.217264
1076.000000	1.216333
1074.000000	1.215387
1072.000000	1.215269
1070.000000	1.215389
1068.000000	1.214958
1066.000000	1.213984
1064.000000	1.213531
1062.000000	1.213098
1060.000000	1.212594
1058.000000	1.212563
1056.000000	1.212137
1054.000000	1.212143
1052.000000	1.211840
1050.000000	1.209849
1048.000000	1.208432
1046.000000	1.208502
1044.000000	1.207942
1042.000000	1.207062
1040.000000	1.207300
1038.000000	1.207508
1036.000000	1.206644
1034.000000	1.206134
1032.000000	1.205899
1030.000000	1.205288
1028.000000	1.205674
1026.000000	1.206102
1024.000000	1.205542
1022.000000	1.204556
1020.000000	1.203630
1018.000000	1.203289
1016.000000	1.203626
1014.000000	1.203249
1012.000000	1.202768
1010.000000	1.202674
1008.000000	1.201237
1006.000000	1.200782
1004.000000	1.202533
1002.000000	1.204277
1000.000000	1.203738
