PE IR       SUBTECH     SPECTRUM    ASCII       PEDS        4.00        
   -1
TE109A_036_80K_after_105K.ASC
20/04/21
14:46:37.00
20/04/21
14:46:38.00
Administrator
TE109A, Tuesday, April 21 2020, 036.
1000.000000
#HDR
-1
-1
#GR
cm-1
A
1.0
0.0
6000.000000
-2.000000
2501
8
1.210831
1.079697
#DATA
6000.000000	1.093444
5998.000000	1.093133
5996.000000	1.093054
5994.000000	1.092948
5992.000000	1.092692
5990.000000	1.092456
5988.000000	1.092200
5986.000000	1.091880
5984.000000	1.092032
5982.000000	1.092398
5980.000000	1.092642
5978.000000	1.092601
5976.000000	1.092289
5974.000000	1.092421
5972.000000	1.092714
5970.000000	1.092979
5968.000000	1.093112
5966.000000	1.093201
5964.000000	1.093268
5962.000000	1.093216
5960.000000	1.092972
5958.000000	1.092647
5956.000000	1.092752
5954.000000	1.092896
5952.000000	1.092454
5950.000000	1.092619
5948.000000	1.093175
5946.000000	1.093375
5944.000000	1.092677
5942.000000	1.091669
5940.000000	1.091598
5938.000000	1.091901
5936.000000	1.091723
5934.000000	1.091220
5932.000000	1.091184
5930.000000	1.091443
5928.000000	1.091907
5926.000000	1.091888
5924.000000	1.091533
5922.000000	1.091363
5920.000000	1.091240
5918.000000	1.091540
5916.000000	1.091879
5914.000000	1.092266
5912.000000	1.092662
5910.000000	1.092651
5908.000000	1.092312
5906.000000	1.091938
5904.000000	1.091348
5902.000000	1.091133
5900.000000	1.091322
5898.000000	1.091593
5896.000000	1.092193
5894.000000	1.092407
5892.000000	1.092384
5890.000000	1.092206
5888.000000	1.091841
5886.000000	1.091480
5884.000000	1.091441
5882.000000	1.091897
5880.000000	1.092565
5878.000000	1.092706
5876.000000	1.092020
5874.000000	1.091248
5872.000000	1.090915
5870.000000	1.090927
5868.000000	1.091066
5866.000000	1.090908
5864.000000	1.090996
5862.000000	1.090977
5860.000000	1.091116
5858.000000	1.091552
5856.000000	1.092175
5854.000000	1.092568
5852.000000	1.092562
5850.000000	1.092285
5848.000000	1.091886
5846.000000	1.091696
5844.000000	1.091776
5842.000000	1.091930
5840.000000	1.091673
5838.000000	1.091411
5836.000000	1.090998
5834.000000	1.090541
5832.000000	1.090011
5830.000000	1.090119
5828.000000	1.090345
5826.000000	1.090441
5824.000000	1.090720
5822.000000	1.091139
5820.000000	1.091349
5818.000000	1.091120
5816.000000	1.091002
5814.000000	1.091189
5812.000000	1.091278
5810.000000	1.091358
5808.000000	1.091490
5806.000000	1.091645
5804.000000	1.091901
5802.000000	1.091987
5800.000000	1.091970
5798.000000	1.092091
5796.000000	1.092076
5794.000000	1.092281
5792.000000	1.092060
5790.000000	1.091901
5788.000000	1.091756
5786.000000	1.091675
5784.000000	1.091615
5782.000000	1.091480
5780.000000	1.091256
5778.000000	1.091325
5776.000000	1.091243
5774.000000	1.091083
5772.000000	1.090740
5770.000000	1.090855
5768.000000	1.091572
5766.000000	1.091962
5764.000000	1.091991
5762.000000	1.091808
5760.000000	1.091504
5758.000000	1.091410
5756.000000	1.090997
5754.000000	1.091149
5752.000000	1.091354
5750.000000	1.091271
5748.000000	1.091160
5746.000000	1.090989
5744.000000	1.091224
5742.000000	1.091131
5740.000000	1.090697
5738.000000	1.090272
5736.000000	1.090291
5734.000000	1.090685
5732.000000	1.090910
5730.000000	1.090974
5728.000000	1.090937
5726.000000	1.090979
5724.000000	1.091203
5722.000000	1.091503
5720.000000	1.091694
5718.000000	1.091477
5716.000000	1.091212
5714.000000	1.091286
5712.000000	1.091207
5710.000000	1.090991
5708.000000	1.090815
5706.000000	1.090784
5704.000000	1.090770
5702.000000	1.090642
5700.000000	1.090725
5698.000000	1.090872
5696.000000	1.091119
5694.000000	1.091448
5692.000000	1.091694
5690.000000	1.091594
5688.000000	1.091029
5686.000000	1.090994
5684.000000	1.091609
5682.000000	1.092166
5680.000000	1.091992
5678.000000	1.091460
5676.000000	1.091371
5674.000000	1.091670
5672.000000	1.091839
5670.000000	1.091807
5668.000000	1.091682
5666.000000	1.091364
5664.000000	1.090864
5662.000000	1.090629
5660.000000	1.090886
5658.000000	1.091284
5656.000000	1.091454
5654.000000	1.091418
5652.000000	1.091509
5650.000000	1.091443
5648.000000	1.091127
5646.000000	1.090857
5644.000000	1.091252
5642.000000	1.091893
5640.000000	1.092355
5638.000000	1.092345
5636.000000	1.092049
5634.000000	1.091594
5632.000000	1.091202
5630.000000	1.091294
5628.000000	1.091688
5626.000000	1.091683
5624.000000	1.091223
5622.000000	1.090841
5620.000000	1.090978
5618.000000	1.091215
5616.000000	1.091242
5614.000000	1.091122
5612.000000	1.091085
5610.000000	1.090976
5608.000000	1.091027
5606.000000	1.091233
5604.000000	1.091433
5602.000000	1.091649
5600.000000	1.091551
5598.000000	1.091219
5596.000000	1.091103
5594.000000	1.091389
5592.000000	1.091846
5590.000000	1.091931
5588.000000	1.091726
5586.000000	1.091673
5584.000000	1.091637
5582.000000	1.091411
5580.000000	1.091336
5578.000000	1.091466
5576.000000	1.091483
5574.000000	1.091419
5572.000000	1.091170
5570.000000	1.091100
5568.000000	1.091082
5566.000000	1.091286
5564.000000	1.091575
5562.000000	1.091542
5560.000000	1.091316
5558.000000	1.091227
5556.000000	1.091199
5554.000000	1.091166
5552.000000	1.091095
5550.000000	1.091068
5548.000000	1.091012
5546.000000	1.090980
5544.000000	1.090915
5542.000000	1.090919
5540.000000	1.091054
5538.000000	1.091170
5536.000000	1.091500
5534.000000	1.091499
5532.000000	1.091431
5530.000000	1.091285
5528.000000	1.090979
5526.000000	1.090678
5524.000000	1.090545
5522.000000	1.090966
5520.000000	1.091425
5518.000000	1.091316
5516.000000	1.091336
5514.000000	1.091665
5512.000000	1.091643
5510.000000	1.091187
5508.000000	1.090869
5506.000000	1.091011
5504.000000	1.091244
5502.000000	1.091298
5500.000000	1.091512
5498.000000	1.091603
5496.000000	1.091315
5494.000000	1.090853
5492.000000	1.090609
5490.000000	1.090861
5488.000000	1.091332
5486.000000	1.091579
5484.000000	1.091464
5482.000000	1.091162
5480.000000	1.090987
5478.000000	1.090912
5476.000000	1.090826
5474.000000	1.090715
5472.000000	1.090773
5470.000000	1.090949
5468.000000	1.090757
5466.000000	1.090463
5464.000000	1.090450
5462.000000	1.090799
5460.000000	1.090948
5458.000000	1.091037
5456.000000	1.091031
5454.000000	1.090762
5452.000000	1.090385
5450.000000	1.090487
5448.000000	1.090688
5446.000000	1.090436
5444.000000	1.089993
5442.000000	1.089802
5440.000000	1.090075
5438.000000	1.090418
5436.000000	1.090561
5434.000000	1.090367
5432.000000	1.090175
5430.000000	1.090196
5428.000000	1.090070
5426.000000	1.089871
5424.000000	1.090179
5422.000000	1.090810
5420.000000	1.090973
5418.000000	1.090716
5416.000000	1.090324
5414.000000	1.090196
5412.000000	1.090239
5410.000000	1.090402
5408.000000	1.090568
5406.000000	1.090415
5404.000000	1.090296
5402.000000	1.090374
5400.000000	1.090480
5398.000000	1.090659
5396.000000	1.090669
5394.000000	1.090860
5392.000000	1.090954
5390.000000	1.091034
5388.000000	1.090896
5386.000000	1.090749
5384.000000	1.090674
5382.000000	1.090620
5380.000000	1.090508
5378.000000	1.090231
5376.000000	1.090061
5374.000000	1.090195
5372.000000	1.090470
5370.000000	1.090699
5368.000000	1.090744
5366.000000	1.090589
5364.000000	1.090563
5362.000000	1.090815
5360.000000	1.091149
5358.000000	1.091254
5356.000000	1.091065
5354.000000	1.090989
5352.000000	1.090961
5350.000000	1.091015
5348.000000	1.091280
5346.000000	1.091263
5344.000000	1.091227
5342.000000	1.090899
5340.000000	1.090823
5338.000000	1.091026
5336.000000	1.091338
5334.000000	1.091503
5332.000000	1.091402
5330.000000	1.091355
5328.000000	1.091535
5326.000000	1.091795
5324.000000	1.092168
5322.000000	1.092295
5320.000000	1.092050
5318.000000	1.091812
5316.000000	1.091935
5314.000000	1.092280
5312.000000	1.092508
5310.000000	1.092676
5308.000000	1.092913
5306.000000	1.093186
5304.000000	1.093225
5302.000000	1.093137
5300.000000	1.093028
5298.000000	1.093200
5296.000000	1.093513
5294.000000	1.093738
5292.000000	1.093979
5290.000000	1.094153
5288.000000	1.094144
5286.000000	1.093877
5284.000000	1.093822
5282.000000	1.094063
5280.000000	1.094391
5278.000000	1.094704
5276.000000	1.094909
5274.000000	1.095037
5272.000000	1.095103
5270.000000	1.095244
5268.000000	1.095426
5266.000000	1.095503
5264.000000	1.095773
5262.000000	1.096090
5260.000000	1.096375
5258.000000	1.096722
5256.000000	1.097079
5254.000000	1.097333
5252.000000	1.097447
5250.000000	1.097754
5248.000000	1.098102
5246.000000	1.098211
5244.000000	1.098344
5242.000000	1.098823
5240.000000	1.099249
5238.000000	1.099630
5236.000000	1.099959
5234.000000	1.100258
5232.000000	1.100409
5230.000000	1.100648
5228.000000	1.101164
5226.000000	1.101691
5224.000000	1.102024
5222.000000	1.102262
5220.000000	1.102559
5218.000000	1.102904
5216.000000	1.103231
5214.000000	1.103585
5212.000000	1.104124
5210.000000	1.104622
5208.000000	1.104989
5206.000000	1.105452
5204.000000	1.106000
5202.000000	1.106482
5200.000000	1.106759
5198.000000	1.107000
5196.000000	1.107193
5194.000000	1.107560
5192.000000	1.108043
5190.000000	1.108649
5188.000000	1.108981
5186.000000	1.109158
5184.000000	1.109472
5182.000000	1.110181
5180.000000	1.110874
5178.000000	1.111094
5176.000000	1.111000
5174.000000	1.111135
5172.000000	1.111741
5170.000000	1.112658
5168.000000	1.113424
5166.000000	1.113665
5164.000000	1.113571
5162.000000	1.113665
5160.000000	1.114098
5158.000000	1.114417
5156.000000	1.114555
5154.000000	1.114873
5152.000000	1.115292
5150.000000	1.115671
5148.000000	1.115997
5146.000000	1.116346
5144.000000	1.116565
5142.000000	1.116852
5140.000000	1.117265
5138.000000	1.117522
5136.000000	1.117774
5134.000000	1.118140
5132.000000	1.118398
5130.000000	1.118464
5128.000000	1.118553
5126.000000	1.118646
5124.000000	1.118865
5122.000000	1.119191
5120.000000	1.119541
5118.000000	1.119825
5116.000000	1.119925
5114.000000	1.119853
5112.000000	1.119785
5110.000000	1.119951
5108.000000	1.120185
5106.000000	1.120429
5104.000000	1.120620
5102.000000	1.120777
5100.000000	1.120901
5098.000000	1.121070
5096.000000	1.121131
5094.000000	1.121114
5092.000000	1.120988
5090.000000	1.120816
5088.000000	1.120786
5086.000000	1.121070
5084.000000	1.121342
5082.000000	1.121516
5080.000000	1.121612
5078.000000	1.121785
5076.000000	1.121863
5074.000000	1.121900
5072.000000	1.121765
5070.000000	1.121418
5068.000000	1.121231
5066.000000	1.121628
5064.000000	1.122139
5062.000000	1.122105
5060.000000	1.121677
5058.000000	1.121383
5056.000000	1.121605
5054.000000	1.121896
5052.000000	1.121926
5050.000000	1.121734
5048.000000	1.121543
5046.000000	1.121597
5044.000000	1.121705
5042.000000	1.121817
5040.000000	1.121800
5038.000000	1.121751
5036.000000	1.121731
5034.000000	1.121679
5032.000000	1.121724
5030.000000	1.121660
5028.000000	1.121570
5026.000000	1.121637
5024.000000	1.121867
5022.000000	1.121901
5020.000000	1.121836
5018.000000	1.121852
5016.000000	1.121955
5014.000000	1.121921
5012.000000	1.121840
5010.000000	1.121690
5008.000000	1.121533
5006.000000	1.121383
5004.000000	1.121398
5002.000000	1.121535
5000.000000	1.121531
4998.000000	1.121488
4996.000000	1.121491
4994.000000	1.121462
4992.000000	1.121190
4990.000000	1.121013
4988.000000	1.121059
4986.000000	1.121065
4984.000000	1.120931
4982.000000	1.120834
4980.000000	1.120809
4978.000000	1.120613
4976.000000	1.120352
4974.000000	1.120387
4972.000000	1.120693
4970.000000	1.120815
4968.000000	1.120561
4966.000000	1.120290
4964.000000	1.120204
4962.000000	1.120209
4960.000000	1.119954
4958.000000	1.119645
4956.000000	1.119517
4954.000000	1.119620
4952.000000	1.119692
4950.000000	1.119540
4948.000000	1.119285
4946.000000	1.119107
4944.000000	1.119068
4942.000000	1.119099
4940.000000	1.119243
4938.000000	1.119386
4936.000000	1.119412
4934.000000	1.119124
4932.000000	1.118587
4930.000000	1.118126
4928.000000	1.118213
4926.000000	1.118488
4924.000000	1.118439
4922.000000	1.118229
4920.000000	1.118053
4918.000000	1.117921
4916.000000	1.117653
4914.000000	1.117448
4912.000000	1.117354
4910.000000	1.117226
4908.000000	1.117034
4906.000000	1.116833
4904.000000	1.116697
4902.000000	1.116583
4900.000000	1.116462
4898.000000	1.116443
4896.000000	1.116557
4894.000000	1.116584
4892.000000	1.116172
4890.000000	1.115753
4888.000000	1.115731
4886.000000	1.115543
4884.000000	1.115002
4882.000000	1.114793
4880.000000	1.114861
4878.000000	1.114677
4876.000000	1.114332
4874.000000	1.114404
4872.000000	1.114563
4870.000000	1.114429
4868.000000	1.113994
4866.000000	1.113746
4864.000000	1.113771
4862.000000	1.113659
4860.000000	1.113291
4858.000000	1.113051
4856.000000	1.113093
4854.000000	1.113098
4852.000000	1.112930
4850.000000	1.112705
4848.000000	1.112344
4846.000000	1.111952
4844.000000	1.111834
4842.000000	1.111951
4840.000000	1.111942
4838.000000	1.111648
4836.000000	1.111204
4834.000000	1.110950
4832.000000	1.110975
4830.000000	1.110991
4828.000000	1.110680
4826.000000	1.110338
4824.000000	1.110128
4822.000000	1.109923
4820.000000	1.109704
4818.000000	1.109643
4816.000000	1.109595
4814.000000	1.109314
4812.000000	1.108784
4810.000000	1.108391
4808.000000	1.108354
4806.000000	1.108536
4804.000000	1.108562
4802.000000	1.108313
4800.000000	1.107944
4798.000000	1.107583
4796.000000	1.107301
4794.000000	1.107178
4792.000000	1.107058
4790.000000	1.106778
4788.000000	1.106524
4786.000000	1.106414
4784.000000	1.106190
4782.000000	1.105717
4780.000000	1.105314
4778.000000	1.105141
4776.000000	1.105108
4774.000000	1.104947
4772.000000	1.104653
4770.000000	1.104465
4768.000000	1.104347
4766.000000	1.104080
4764.000000	1.103726
4762.000000	1.103571
4760.000000	1.103605
4758.000000	1.103642
4756.000000	1.103518
4754.000000	1.103150
4752.000000	1.102697
4750.000000	1.102434
4748.000000	1.102435
4746.000000	1.102429
4744.000000	1.102149
4742.000000	1.101721
4740.000000	1.101533
4738.000000	1.101613
4736.000000	1.101601
4734.000000	1.101329
4732.000000	1.100914
4730.000000	1.100627
4728.000000	1.100584
4726.000000	1.100613
4724.000000	1.100504
4722.000000	1.100229
4720.000000	1.099975
4718.000000	1.099791
4716.000000	1.099688
4714.000000	1.099545
4712.000000	1.099444
4710.000000	1.099371
4708.000000	1.099226
4706.000000	1.098929
4704.000000	1.098672
4702.000000	1.098523
4700.000000	1.098422
4698.000000	1.098273
4696.000000	1.098155
4694.000000	1.098021
4692.000000	1.097807
4690.000000	1.097561
4688.000000	1.097350
4686.000000	1.097288
4684.000000	1.097213
4682.000000	1.097012
4680.000000	1.096825
4678.000000	1.096815
4676.000000	1.096828
4674.000000	1.096805
4672.000000	1.096724
4670.000000	1.096573
4668.000000	1.096415
4666.000000	1.096322
4664.000000	1.096244
4662.000000	1.096192
4660.000000	1.096015
4658.000000	1.095767
4656.000000	1.095566
4654.000000	1.095384
4652.000000	1.095270
4650.000000	1.095326
4648.000000	1.095237
4646.000000	1.094857
4644.000000	1.094639
4642.000000	1.094644
4640.000000	1.094619
4638.000000	1.094594
4636.000000	1.094646
4634.000000	1.094650
4632.000000	1.094498
4630.000000	1.094304
4628.000000	1.094275
4626.000000	1.094332
4624.000000	1.094261
4622.000000	1.094097
4620.000000	1.093976
4618.000000	1.093846
4616.000000	1.093752
4614.000000	1.093771
4612.000000	1.093842
4610.000000	1.093772
4608.000000	1.093538
4606.000000	1.093293
4604.000000	1.093225
4602.000000	1.093207
4600.000000	1.093028
4598.000000	1.092880
4596.000000	1.092959
4594.000000	1.092995
4592.000000	1.092897
4590.000000	1.092837
4588.000000	1.092734
4586.000000	1.092543
4584.000000	1.092408
4582.000000	1.092364
4580.000000	1.092305
4578.000000	1.092171
4576.000000	1.092042
4574.000000	1.092014
4572.000000	1.091956
4570.000000	1.091892
4568.000000	1.091983
4566.000000	1.092160
4564.000000	1.092262
4562.000000	1.092148
4560.000000	1.091947
4558.000000	1.091863
4556.000000	1.091836
4554.000000	1.091738
4552.000000	1.091622
4550.000000	1.091441
4548.000000	1.091342
4546.000000	1.091493
4544.000000	1.091744
4542.000000	1.091737
4540.000000	1.091446
4538.000000	1.091134
4536.000000	1.090962
4534.000000	1.090997
4532.000000	1.091157
4530.000000	1.091235
4528.000000	1.091178
4526.000000	1.091037
4524.000000	1.090885
4522.000000	1.090776
4520.000000	1.090663
4518.000000	1.090583
4516.000000	1.090628
4514.000000	1.090716
4512.000000	1.090753
4510.000000	1.090733
4508.000000	1.090673
4506.000000	1.090603
4504.000000	1.090533
4502.000000	1.090529
4500.000000	1.090662
4498.000000	1.090839
4496.000000	1.090756
4494.000000	1.090339
4492.000000	1.090027
4490.000000	1.089967
4488.000000	1.089987
4486.000000	1.090167
4484.000000	1.090443
4482.000000	1.090565
4480.000000	1.090416
4478.000000	1.090122
4476.000000	1.090078
4474.000000	1.090349
4472.000000	1.090400
4470.000000	1.090086
4468.000000	1.089872
4466.000000	1.089932
4464.000000	1.090073
4462.000000	1.090058
4460.000000	1.089954
4458.000000	1.089982
4456.000000	1.090100
4454.000000	1.090076
4452.000000	1.090102
4450.000000	1.090244
4448.000000	1.090242
4446.000000	1.090041
4444.000000	1.089918
4442.000000	1.089956
4440.000000	1.090037
4438.000000	1.090011
4436.000000	1.089877
4434.000000	1.089789
4432.000000	1.089895
4430.000000	1.090051
4428.000000	1.090112
4426.000000	1.090139
4424.000000	1.089995
4422.000000	1.089861
4420.000000	1.089966
4418.000000	1.090132
4416.000000	1.090119
4414.000000	1.089999
4412.000000	1.089867
4410.000000	1.089888
4408.000000	1.089912
4406.000000	1.089844
4404.000000	1.089879
4402.000000	1.090028
4400.000000	1.090052
4398.000000	1.090054
4396.000000	1.090145
4394.000000	1.090240
4392.000000	1.090286
4390.000000	1.090235
4388.000000	1.090186
4386.000000	1.090252
4384.000000	1.090371
4382.000000	1.090522
4380.000000	1.090646
4378.000000	1.090605
4376.000000	1.090612
4374.000000	1.090758
4372.000000	1.090898
4370.000000	1.090922
4368.000000	1.090815
4366.000000	1.090857
4364.000000	1.091078
4362.000000	1.091183
4360.000000	1.091151
4358.000000	1.091129
4356.000000	1.091143
4354.000000	1.091131
4352.000000	1.090993
4350.000000	1.090960
4348.000000	1.091187
4346.000000	1.091468
4344.000000	1.091644
4342.000000	1.091659
4340.000000	1.091606
4338.000000	1.091683
4336.000000	1.091851
4334.000000	1.091931
4332.000000	1.092063
4330.000000	1.092300
4328.000000	1.092365
4326.000000	1.092333
4324.000000	1.092587
4322.000000	1.092873
4320.000000	1.092825
4318.000000	1.092737
4316.000000	1.092820
4314.000000	1.092956
4312.000000	1.093086
4310.000000	1.093190
4308.000000	1.093251
4306.000000	1.093292
4304.000000	1.093349
4302.000000	1.093511
4300.000000	1.093613
4298.000000	1.093610
4296.000000	1.093641
4294.000000	1.093702
4292.000000	1.093754
4290.000000	1.093857
4288.000000	1.094006
4286.000000	1.094157
4284.000000	1.094248
4282.000000	1.094438
4280.000000	1.094726
4278.000000	1.094793
4276.000000	1.094748
4274.000000	1.094888
4272.000000	1.095051
4270.000000	1.095138
4268.000000	1.095235
4266.000000	1.095228
4264.000000	1.095219
4262.000000	1.095393
4260.000000	1.095575
4258.000000	1.095569
4256.000000	1.095545
4254.000000	1.095581
4252.000000	1.095592
4250.000000	1.095599
4248.000000	1.095647
4246.000000	1.095833
4244.000000	1.096059
4242.000000	1.096102
4240.000000	1.096173
4238.000000	1.096289
4236.000000	1.096192
4234.000000	1.096141
4232.000000	1.096222
4230.000000	1.096282
4228.000000	1.096419
4226.000000	1.096611
4224.000000	1.096701
4222.000000	1.096742
4220.000000	1.096829
4218.000000	1.096937
4216.000000	1.097022
4214.000000	1.097165
4212.000000	1.097335
4210.000000	1.097315
4208.000000	1.097172
4206.000000	1.097204
4204.000000	1.097335
4202.000000	1.097348
4200.000000	1.097348
4198.000000	1.097407
4196.000000	1.097425
4194.000000	1.097409
4192.000000	1.097455
4190.000000	1.097608
4188.000000	1.097685
4186.000000	1.097641
4184.000000	1.097697
4182.000000	1.097822
4180.000000	1.097838
4178.000000	1.097815
4176.000000	1.097877
4174.000000	1.098029
4172.000000	1.098097
4170.000000	1.098061
4168.000000	1.098029
4166.000000	1.098036
4164.000000	1.098083
4162.000000	1.098143
4160.000000	1.098191
4158.000000	1.098228
4156.000000	1.098222
4154.000000	1.098149
4152.000000	1.098014
4150.000000	1.098022
4148.000000	1.098201
4146.000000	1.098225
4144.000000	1.098048
4142.000000	1.098060
4140.000000	1.098350
4138.000000	1.098571
4136.000000	1.098516
4134.000000	1.098402
4132.000000	1.098437
4130.000000	1.098486
4128.000000	1.098473
4126.000000	1.098567
4124.000000	1.098648
4122.000000	1.098561
4120.000000	1.098543
4118.000000	1.098680
4116.000000	1.098703
4114.000000	1.098527
4112.000000	1.098443
4110.000000	1.098673
4108.000000	1.098986
4106.000000	1.099072
4104.000000	1.098947
4102.000000	1.098801
4100.000000	1.098752
4098.000000	1.098785
4096.000000	1.098865
4094.000000	1.099007
4092.000000	1.099124
4090.000000	1.099111
4088.000000	1.099037
4086.000000	1.099005
4084.000000	1.098979
4082.000000	1.099004
4080.000000	1.099138
4078.000000	1.099292
4076.000000	1.099357
4074.000000	1.099315
4072.000000	1.099295
4070.000000	1.099394
4068.000000	1.099496
4066.000000	1.099517
4064.000000	1.099486
4062.000000	1.099427
4060.000000	1.099422
4058.000000	1.099573
4056.000000	1.099681
4054.000000	1.099646
4052.000000	1.099674
4050.000000	1.099728
4048.000000	1.099727
4046.000000	1.099752
4044.000000	1.099758
4042.000000	1.099722
4040.000000	1.099701
4038.000000	1.099759
4036.000000	1.099826
4034.000000	1.099876
4032.000000	1.100042
4030.000000	1.100190
4028.000000	1.100094
4026.000000	1.099982
4024.000000	1.100088
4022.000000	1.100310
4020.000000	1.100379
4018.000000	1.100237
4016.000000	1.100071
4014.000000	1.099978
4012.000000	1.099918
4010.000000	1.099923
4008.000000	1.100042
4006.000000	1.100179
4004.000000	1.100161
4002.000000	1.100047
4000.000000	1.100013
3998.000000	1.100072
3996.000000	1.099971
3994.000000	1.099801
3992.000000	1.099803
3990.000000	1.099785
3988.000000	1.099688
3986.000000	1.099597
3984.000000	1.099506
3982.000000	1.099595
3980.000000	1.099776
3978.000000	1.099745
3976.000000	1.099565
3974.000000	1.099405
3972.000000	1.099268
3970.000000	1.099170
3968.000000	1.099004
3966.000000	1.098750
3964.000000	1.098588
3962.000000	1.098560
3960.000000	1.098520
3958.000000	1.098430
3956.000000	1.098360
3954.000000	1.098157
3952.000000	1.097759
3950.000000	1.097417
3948.000000	1.097230
3946.000000	1.097087
3944.000000	1.096804
3942.000000	1.096512
3940.000000	1.096453
3938.000000	1.096445
3936.000000	1.096214
3934.000000	1.095720
3932.000000	1.095208
3930.000000	1.095010
3928.000000	1.094956
3926.000000	1.094734
3924.000000	1.094423
3922.000000	1.094180
3920.000000	1.093878
3918.000000	1.093437
3916.000000	1.093198
3914.000000	1.093197
3912.000000	1.092986
3910.000000	1.092705
3908.000000	1.092433
3906.000000	1.091621
3904.000000	1.090435
3902.000000	1.089782
3900.000000	1.089826
3898.000000	1.090277
3896.000000	1.090729
3894.000000	1.090497
3892.000000	1.089677
3890.000000	1.089294
3888.000000	1.089103
3886.000000	1.088389
3884.000000	1.088015
3882.000000	1.088172
3880.000000	1.088243
3878.000000	1.088341
3876.000000	1.088157
3874.000000	1.087658
3872.000000	1.086785
3870.000000	1.085721
3868.000000	1.085636
3866.000000	1.085888
3864.000000	1.085758
3862.000000	1.086039
3860.000000	1.086458
3858.000000	1.086140
3856.000000	1.084016
3854.000000	1.081071
3852.000000	1.080944
3850.000000	1.083456
3848.000000	1.085301
3846.000000	1.085534
3844.000000	1.084911
3842.000000	1.084206
3840.000000	1.083200
3838.000000	1.081989
3836.000000	1.082055
3834.000000	1.082965
3832.000000	1.083418
3830.000000	1.083691
3828.000000	1.083755
3826.000000	1.083600
3824.000000	1.083257
3822.000000	1.082283
3820.000000	1.081779
3818.000000	1.081699
3816.000000	1.081290
3814.000000	1.082035
3812.000000	1.083328
3810.000000	1.083320
3808.000000	1.082271
3806.000000	1.081765
3804.000000	1.081680
3802.000000	1.080878
3800.000000	1.080999
3798.000000	1.082143
3796.000000	1.082671
3794.000000	1.082990
3792.000000	1.083315
3790.000000	1.083411
3788.000000	1.083417
3786.000000	1.083330
3784.000000	1.083235
3782.000000	1.083101
3780.000000	1.082830
3778.000000	1.082919
3776.000000	1.083301
3774.000000	1.083394
3772.000000	1.083080
3770.000000	1.082674
3768.000000	1.082771
3766.000000	1.083020
3764.000000	1.083172
3762.000000	1.083178
3760.000000	1.082880
3758.000000	1.082826
3756.000000	1.082933
3754.000000	1.082128
3752.000000	1.080531
3750.000000	1.079927
3748.000000	1.080609
3746.000000	1.080304
3744.000000	1.079697
3742.000000	1.081373
3740.000000	1.083189
3738.000000	1.082972
3736.000000	1.081999
3734.000000	1.081884
3732.000000	1.082677
3730.000000	1.083810
3728.000000	1.084525
3726.000000	1.084684
3724.000000	1.084945
3722.000000	1.085361
3720.000000	1.085759
3718.000000	1.086107
3716.000000	1.086347
3714.000000	1.085928
3712.000000	1.085280
3710.000000	1.085808
3708.000000	1.087319
3706.000000	1.088699
3704.000000	1.089485
3702.000000	1.089909
3700.000000	1.090645
3698.000000	1.091748
3696.000000	1.092822
3694.000000	1.093572
3692.000000	1.093694
3690.000000	1.093297
3688.000000	1.093723
3686.000000	1.096028
3684.000000	1.098629
3682.000000	1.100248
3680.000000	1.101324
3678.000000	1.101758
3676.000000	1.101834
3674.000000	1.103405
3672.000000	1.105577
3670.000000	1.107136
3668.000000	1.109630
3666.000000	1.112654
3664.000000	1.114959
3662.000000	1.116834
3660.000000	1.118650
3658.000000	1.119917
3656.000000	1.121039
3654.000000	1.122888
3652.000000	1.124272
3650.000000	1.124715
3648.000000	1.126225
3646.000000	1.129229
3644.000000	1.132088
3642.000000	1.134181
3640.000000	1.135843
3638.000000	1.137271
3636.000000	1.138550
3634.000000	1.139662
3632.000000	1.140420
3630.000000	1.140411
3628.000000	1.141106
3626.000000	1.143552
3624.000000	1.145880
3622.000000	1.147013
3620.000000	1.147397
3618.000000	1.148082
3616.000000	1.149447
3614.000000	1.150627
3612.000000	1.151429
3610.000000	1.152124
3608.000000	1.152981
3606.000000	1.154302
3604.000000	1.155646
3602.000000	1.156544
3600.000000	1.157230
3598.000000	1.157932
3596.000000	1.158502
3594.000000	1.159087
3592.000000	1.159837
3590.000000	1.160324
3588.000000	1.160476
3586.000000	1.161019
3584.000000	1.162052
3582.000000	1.162939
3580.000000	1.163476
3578.000000	1.163893
3576.000000	1.164349
3574.000000	1.164825
3572.000000	1.165159
3570.000000	1.165268
3568.000000	1.165138
3566.000000	1.165204
3564.000000	1.165796
3562.000000	1.166519
3560.000000	1.167020
3558.000000	1.167385
3556.000000	1.167656
3554.000000	1.167816
3552.000000	1.168070
3550.000000	1.168438
3548.000000	1.168750
3546.000000	1.169000
3544.000000	1.169354
3542.000000	1.169774
3540.000000	1.170031
3538.000000	1.170116
3536.000000	1.170352
3534.000000	1.170796
3532.000000	1.171097
3530.000000	1.171185
3528.000000	1.171328
3526.000000	1.171616
3524.000000	1.171862
3522.000000	1.172103
3520.000000	1.172390
3518.000000	1.172614
3516.000000	1.172812
3514.000000	1.173112
3512.000000	1.173447
3510.000000	1.173598
3508.000000	1.173700
3506.000000	1.173948
3504.000000	1.174264
3502.000000	1.174564
3500.000000	1.174828
3498.000000	1.175055
3496.000000	1.175361
3494.000000	1.175670
3492.000000	1.175918
3490.000000	1.176264
3488.000000	1.176571
3486.000000	1.176790
3484.000000	1.177127
3482.000000	1.177496
3480.000000	1.177750
3478.000000	1.177916
3476.000000	1.178125
3474.000000	1.178481
3472.000000	1.178776
3470.000000	1.178939
3468.000000	1.179191
3466.000000	1.179588
3464.000000	1.179823
3462.000000	1.180052
3460.000000	1.180412
3458.000000	1.180633
3456.000000	1.180826
3454.000000	1.181158
3452.000000	1.181446
3450.000000	1.181650
3448.000000	1.181646
3446.000000	1.181660
3444.000000	1.181967
3442.000000	1.182424
3440.000000	1.182834
3438.000000	1.183111
3436.000000	1.183235
3434.000000	1.183274
3432.000000	1.183512
3430.000000	1.183763
3428.000000	1.183904
3426.000000	1.184118
3424.000000	1.184328
3422.000000	1.184332
3420.000000	1.184402
3418.000000	1.184704
3416.000000	1.184905
3414.000000	1.185078
3412.000000	1.185304
3410.000000	1.185436
3408.000000	1.185684
3406.000000	1.185977
3404.000000	1.186017
3402.000000	1.185956
3400.000000	1.186038
3398.000000	1.186211
3396.000000	1.186487
3394.000000	1.186643
3392.000000	1.186645
3390.000000	1.186705
3388.000000	1.186878
3386.000000	1.186947
3384.000000	1.186884
3382.000000	1.186949
3380.000000	1.187097
3378.000000	1.187292
3376.000000	1.187416
3374.000000	1.187458
3372.000000	1.187571
3370.000000	1.187745
3368.000000	1.187895
3366.000000	1.188023
3364.000000	1.188166
3362.000000	1.188094
3360.000000	1.187987
3358.000000	1.188023
3356.000000	1.188086
3354.000000	1.188262
3352.000000	1.188503
3350.000000	1.188615
3348.000000	1.188659
3346.000000	1.188771
3344.000000	1.189002
3342.000000	1.189218
3340.000000	1.189241
3338.000000	1.189160
3336.000000	1.189120
3334.000000	1.189149
3332.000000	1.189234
3330.000000	1.189316
3328.000000	1.189334
3326.000000	1.189384
3324.000000	1.189525
3322.000000	1.189653
3320.000000	1.189761
3318.000000	1.189728
3316.000000	1.189678
3314.000000	1.189816
3312.000000	1.190012
3310.000000	1.190028
3308.000000	1.189996
3306.000000	1.190111
3304.000000	1.190403
3302.000000	1.190602
3300.000000	1.190591
3298.000000	1.190587
3296.000000	1.190614
3294.000000	1.190664
3292.000000	1.190831
3290.000000	1.191050
3288.000000	1.191209
3286.000000	1.191266
3284.000000	1.191222
3282.000000	1.191219
3280.000000	1.191395
3278.000000	1.191636
3276.000000	1.191704
3274.000000	1.191768
3272.000000	1.191858
3270.000000	1.191995
3268.000000	1.192066
3266.000000	1.192090
3264.000000	1.192249
3262.000000	1.192330
3260.000000	1.192285
3258.000000	1.192301
3256.000000	1.192364
3254.000000	1.192438
3252.000000	1.192618
3250.000000	1.192708
3248.000000	1.192798
3246.000000	1.192919
3244.000000	1.192924
3242.000000	1.193030
3240.000000	1.193134
3238.000000	1.193091
3236.000000	1.193123
3234.000000	1.193185
3232.000000	1.193331
3230.000000	1.193516
3228.000000	1.193516
3226.000000	1.193475
3224.000000	1.193565
3222.000000	1.193700
3220.000000	1.193703
3218.000000	1.193736
3216.000000	1.193869
3214.000000	1.193872
3212.000000	1.193868
3210.000000	1.193988
3208.000000	1.194101
3206.000000	1.194119
3204.000000	1.194118
3202.000000	1.194138
3200.000000	1.194109
3198.000000	1.194141
3196.000000	1.194190
3194.000000	1.194284
3192.000000	1.194371
3190.000000	1.194479
3188.000000	1.194558
3186.000000	1.194484
3184.000000	1.194420
3182.000000	1.194533
3180.000000	1.194626
3178.000000	1.194594
3176.000000	1.194548
3174.000000	1.194589
3172.000000	1.194754
3170.000000	1.194863
3168.000000	1.194930
3166.000000	1.194992
3164.000000	1.195013
3162.000000	1.195048
3160.000000	1.195084
3158.000000	1.195035
3156.000000	1.194968
3154.000000	1.194982
3152.000000	1.195058
3150.000000	1.195048
3148.000000	1.195107
3146.000000	1.195228
3144.000000	1.195225
3142.000000	1.195241
3140.000000	1.195393
3138.000000	1.195394
3136.000000	1.195271
3134.000000	1.195210
3132.000000	1.195281
3130.000000	1.195407
3128.000000	1.195405
3126.000000	1.195366
3124.000000	1.195352
3122.000000	1.195333
3120.000000	1.195375
3118.000000	1.195444
3116.000000	1.195502
3114.000000	1.195610
3112.000000	1.195742
3110.000000	1.195764
3108.000000	1.195680
3106.000000	1.195730
3104.000000	1.195882
3102.000000	1.195876
3100.000000	1.195841
3098.000000	1.195851
3096.000000	1.195801
3094.000000	1.195781
3092.000000	1.195847
3090.000000	1.195927
3088.000000	1.195956
3086.000000	1.195961
3084.000000	1.195965
3082.000000	1.195953
3080.000000	1.195956
3078.000000	1.196053
3076.000000	1.196102
3074.000000	1.196068
3072.000000	1.196059
3070.000000	1.196103
3068.000000	1.196165
3066.000000	1.196118
3064.000000	1.195977
3062.000000	1.195853
3060.000000	1.195797
3058.000000	1.195856
3056.000000	1.195870
3054.000000	1.195842
3052.000000	1.195775
3050.000000	1.195651
3048.000000	1.195659
3046.000000	1.195619
3044.000000	1.195414
3042.000000	1.195320
3040.000000	1.195388
3038.000000	1.195371
3036.000000	1.195251
3034.000000	1.195134
3032.000000	1.195022
3030.000000	1.194969
3028.000000	1.194896
3026.000000	1.194777
3024.000000	1.194769
3022.000000	1.194680
3020.000000	1.194384
3018.000000	1.194035
3016.000000	1.193716
3014.000000	1.193494
3012.000000	1.193381
3010.000000	1.193273
3008.000000	1.193136
3006.000000	1.192972
3004.000000	1.192833
3002.000000	1.192710
3000.000000	1.192500
2998.000000	1.192184
2996.000000	1.191949
2994.000000	1.191837
2992.000000	1.191682
2990.000000	1.191491
2988.000000	1.191280
2986.000000	1.190979
2984.000000	1.190772
2982.000000	1.190652
2980.000000	1.190442
2978.000000	1.190192
2976.000000	1.190053
2974.000000	1.189897
2972.000000	1.189728
2970.000000	1.189651
2968.000000	1.189542
2966.000000	1.189385
2964.000000	1.189092
2962.000000	1.188508
2960.000000	1.187882
2958.000000	1.187333
2956.000000	1.186921
2954.000000	1.186586
2952.000000	1.186104
2950.000000	1.185607
2948.000000	1.185333
2946.000000	1.185156
2944.000000	1.184922
2942.000000	1.184627
2940.000000	1.184252
2938.000000	1.183840
2936.000000	1.183512
2934.000000	1.183368
2932.000000	1.183191
2930.000000	1.182755
2928.000000	1.182169
2926.000000	1.181401
2924.000000	1.180635
2922.000000	1.180076
2920.000000	1.179703
2918.000000	1.179395
2916.000000	1.179062
2914.000000	1.178696
2912.000000	1.178475
2910.000000	1.178416
2908.000000	1.178353
2906.000000	1.178149
2904.000000	1.177830
2902.000000	1.177543
2900.000000	1.177248
2898.000000	1.177024
2896.000000	1.176866
2894.000000	1.176566
2892.000000	1.176144
2890.000000	1.175721
2888.000000	1.175405
2886.000000	1.175115
2884.000000	1.174852
2882.000000	1.174628
2880.000000	1.174405
2878.000000	1.174197
2876.000000	1.174005
2874.000000	1.173903
2872.000000	1.173794
2870.000000	1.173613
2868.000000	1.173440
2866.000000	1.173336
2864.000000	1.173104
2862.000000	1.172558
2860.000000	1.171847
2858.000000	1.171240
2856.000000	1.170873
2854.000000	1.170714
2852.000000	1.170499
2850.000000	1.170192
2848.000000	1.169997
2846.000000	1.169832
2844.000000	1.169635
2842.000000	1.169473
2840.000000	1.169380
2838.000000	1.169328
2836.000000	1.169256
2834.000000	1.169049
2832.000000	1.168854
2830.000000	1.168741
2828.000000	1.168637
2826.000000	1.168470
2824.000000	1.168211
2822.000000	1.168023
2820.000000	1.167908
2818.000000	1.167777
2816.000000	1.167559
2814.000000	1.167447
2812.000000	1.167429
2810.000000	1.167362
2808.000000	1.167216
2806.000000	1.166957
2804.000000	1.166765
2802.000000	1.166618
2800.000000	1.166513
2798.000000	1.166470
2796.000000	1.166357
2794.000000	1.166184
2792.000000	1.166049
2790.000000	1.165916
2788.000000	1.165727
2786.000000	1.165537
2784.000000	1.165480
2782.000000	1.165521
2780.000000	1.165560
2778.000000	1.165536
2776.000000	1.165486
2774.000000	1.165390
2772.000000	1.165181
2770.000000	1.165003
2768.000000	1.164983
2766.000000	1.165027
2764.000000	1.164978
2762.000000	1.164817
2760.000000	1.164765
2758.000000	1.164781
2756.000000	1.164704
2754.000000	1.164576
2752.000000	1.164488
2750.000000	1.164523
2748.000000	1.164575
2746.000000	1.164501
2744.000000	1.164432
2742.000000	1.164393
2740.000000	1.164368
2738.000000	1.164403
2736.000000	1.164387
2734.000000	1.164306
2732.000000	1.164243
2730.000000	1.164173
2728.000000	1.164155
2726.000000	1.164119
2724.000000	1.164187
2722.000000	1.164182
2720.000000	1.164147
2718.000000	1.164295
2716.000000	1.164362
2714.000000	1.164246
2712.000000	1.164193
2710.000000	1.164231
2708.000000	1.164344
2706.000000	1.164484
2704.000000	1.164488
2702.000000	1.164441
2700.000000	1.164483
2698.000000	1.164604
2696.000000	1.164697
2694.000000	1.164796
2692.000000	1.164868
2690.000000	1.164792
2688.000000	1.164760
2686.000000	1.164914
2684.000000	1.165146
2682.000000	1.165309
2680.000000	1.165454
2678.000000	1.165607
2676.000000	1.165698
2674.000000	1.165763
2672.000000	1.165837
2670.000000	1.165883
2668.000000	1.165907
2666.000000	1.165955
2664.000000	1.166163
2662.000000	1.166341
2660.000000	1.166461
2658.000000	1.166582
2656.000000	1.166803
2654.000000	1.167010
2652.000000	1.167213
2650.000000	1.167399
2648.000000	1.167519
2646.000000	1.167668
2644.000000	1.167824
2642.000000	1.167985
2640.000000	1.168138
2638.000000	1.168224
2636.000000	1.168366
2634.000000	1.168670
2632.000000	1.168906
2630.000000	1.169058
2628.000000	1.169213
2626.000000	1.169319
2624.000000	1.169502
2622.000000	1.169805
2620.000000	1.170131
2618.000000	1.170418
2616.000000	1.170604
2614.000000	1.170730
2612.000000	1.170877
2610.000000	1.170979
2608.000000	1.171167
2606.000000	1.171440
2604.000000	1.171681
2602.000000	1.171963
2600.000000	1.172269
2598.000000	1.172513
2596.000000	1.172711
2594.000000	1.172857
2592.000000	1.173024
2590.000000	1.173256
2588.000000	1.173470
2586.000000	1.173757
2584.000000	1.174145
2582.000000	1.174509
2580.000000	1.174726
2578.000000	1.174876
2576.000000	1.175059
2574.000000	1.175223
2572.000000	1.175467
2570.000000	1.175811
2568.000000	1.176091
2566.000000	1.176354
2564.000000	1.176624
2562.000000	1.176909
2560.000000	1.177227
2558.000000	1.177489
2556.000000	1.177769
2554.000000	1.178114
2552.000000	1.178437
2550.000000	1.178704
2548.000000	1.178993
2546.000000	1.179386
2544.000000	1.179737
2542.000000	1.180025
2540.000000	1.180297
2538.000000	1.180601
2536.000000	1.180931
2534.000000	1.181237
2532.000000	1.181545
2530.000000	1.181911
2528.000000	1.182267
2526.000000	1.182629
2524.000000	1.182935
2522.000000	1.183173
2520.000000	1.183586
2518.000000	1.184088
2516.000000	1.184499
2514.000000	1.184874
2512.000000	1.185227
2510.000000	1.185540
2508.000000	1.185782
2506.000000	1.185929
2504.000000	1.186155
2502.000000	1.186493
2500.000000	1.186888
2498.000000	1.187206
2496.000000	1.187527
2494.000000	1.187884
2492.000000	1.188235
2490.000000	1.188519
2488.000000	1.188659
2486.000000	1.188836
2484.000000	1.189112
2482.000000	1.189422
2480.000000	1.189622
2478.000000	1.189827
2476.000000	1.190158
2474.000000	1.190401
2472.000000	1.190607
2470.000000	1.190815
2468.000000	1.190969
2466.000000	1.191206
2464.000000	1.191497
2462.000000	1.191641
2460.000000	1.191740
2458.000000	1.191821
2456.000000	1.191930
2454.000000	1.192118
2452.000000	1.192274
2450.000000	1.192332
2448.000000	1.192433
2446.000000	1.192528
2444.000000	1.192636
2442.000000	1.192776
2440.000000	1.192794
2438.000000	1.192684
2436.000000	1.192799
2434.000000	1.192976
2432.000000	1.192991
2430.000000	1.192886
2428.000000	1.192773
2426.000000	1.192714
2424.000000	1.192667
2422.000000	1.192562
2420.000000	1.192368
2418.000000	1.192186
2416.000000	1.192094
2414.000000	1.192039
2412.000000	1.191984
2410.000000	1.191774
2408.000000	1.191628
2406.000000	1.191497
2404.000000	1.191328
2402.000000	1.191233
2400.000000	1.191161
2398.000000	1.191117
2396.000000	1.191092
2394.000000	1.191117
2392.000000	1.191116
2390.000000	1.190996
2388.000000	1.190826
2386.000000	1.190690
2384.000000	1.190732
2382.000000	1.190745
2380.000000	1.190711
2378.000000	1.190660
2376.000000	1.190406
2374.000000	1.190027
2372.000000	1.189716
2370.000000	1.189440
2368.000000	1.189136
2366.000000	1.188868
2364.000000	1.188703
2362.000000	1.188603
2360.000000	1.188594
2358.000000	1.188859
2356.000000	1.189346
2354.000000	1.189978
2352.000000	1.190745
2350.000000	1.191395
2348.000000	1.191727
2346.000000	1.191872
2344.000000	1.192231
2342.000000	1.192962
2340.000000	1.193442
2338.000000	1.193023
2336.000000	1.192256
2334.000000	1.191777
2332.000000	1.191607
2330.000000	1.191810
2328.000000	1.192206
2326.000000	1.192541
2324.000000	1.192779
2322.000000	1.192936
2320.000000	1.193208
2318.000000	1.193603
2316.000000	1.193994
2314.000000	1.194242
2312.000000	1.194417
2310.000000	1.194619
2308.000000	1.194829
2306.000000	1.195138
2304.000000	1.195467
2302.000000	1.195637
2300.000000	1.195755
2298.000000	1.195835
2296.000000	1.195983
2294.000000	1.196195
2292.000000	1.196316
2290.000000	1.196416
2288.000000	1.196520
2286.000000	1.196680
2284.000000	1.196948
2282.000000	1.197145
2280.000000	1.197269
2278.000000	1.197386
2276.000000	1.197454
2274.000000	1.197488
2272.000000	1.197675
2270.000000	1.197880
2268.000000	1.198124
2266.000000	1.198294
2264.000000	1.198462
2262.000000	1.198592
2260.000000	1.198558
2258.000000	1.198675
2256.000000	1.198922
2254.000000	1.199091
2252.000000	1.199135
2250.000000	1.199208
2248.000000	1.199298
2246.000000	1.199355
2244.000000	1.199393
2242.000000	1.199524
2240.000000	1.199618
2238.000000	1.199612
2236.000000	1.199767
2234.000000	1.199915
2232.000000	1.199945
2230.000000	1.200056
2228.000000	1.200203
2226.000000	1.200264
2224.000000	1.200262
2222.000000	1.200205
2220.000000	1.200268
2218.000000	1.200324
2216.000000	1.200353
2214.000000	1.200357
2212.000000	1.200367
2210.000000	1.200434
2208.000000	1.200517
2206.000000	1.200588
2204.000000	1.200569
2202.000000	1.200653
2200.000000	1.200772
2198.000000	1.200712
2196.000000	1.200640
2194.000000	1.200589
2192.000000	1.200489
2190.000000	1.200442
2188.000000	1.200453
2186.000000	1.200456
2184.000000	1.200447
2182.000000	1.200448
2180.000000	1.200470
2178.000000	1.200448
2176.000000	1.200344
2174.000000	1.200236
2172.000000	1.200290
2170.000000	1.200308
2168.000000	1.200145
2166.000000	1.199910
2164.000000	1.199847
2162.000000	1.199824
2160.000000	1.199692
2158.000000	1.199553
2156.000000	1.199466
2154.000000	1.199320
2152.000000	1.199175
2150.000000	1.199171
2148.000000	1.199111
2146.000000	1.198934
2144.000000	1.198872
2142.000000	1.198783
2140.000000	1.198524
2138.000000	1.198226
2136.000000	1.198064
2134.000000	1.198045
2132.000000	1.197921
2130.000000	1.197703
2128.000000	1.197500
2126.000000	1.197330
2124.000000	1.197128
2122.000000	1.196970
2120.000000	1.196811
2118.000000	1.196549
2116.000000	1.196254
2114.000000	1.196011
2112.000000	1.195887
2110.000000	1.195645
2108.000000	1.195340
2106.000000	1.195079
2104.000000	1.194861
2102.000000	1.194651
2100.000000	1.194359
2098.000000	1.194095
2096.000000	1.193926
2094.000000	1.193655
2092.000000	1.193354
2090.000000	1.193065
2088.000000	1.192704
2086.000000	1.192374
2084.000000	1.192116
2082.000000	1.191882
2080.000000	1.191695
2078.000000	1.191428
2076.000000	1.191063
2074.000000	1.190763
2072.000000	1.190535
2070.000000	1.190211
2068.000000	1.189838
2066.000000	1.189423
2064.000000	1.189141
2062.000000	1.188956
2060.000000	1.188639
2058.000000	1.188286
2056.000000	1.187980
2054.000000	1.187751
2052.000000	1.187520
2050.000000	1.187230
2048.000000	1.186953
2046.000000	1.186679
2044.000000	1.186390
2042.000000	1.186136
2040.000000	1.185866
2038.000000	1.185533
2036.000000	1.185257
2034.000000	1.184991
2032.000000	1.184682
2030.000000	1.184400
2028.000000	1.184089
2026.000000	1.183811
2024.000000	1.183565
2022.000000	1.183356
2020.000000	1.183163
2018.000000	1.182882
2016.000000	1.182669
2014.000000	1.182490
2012.000000	1.182286
2010.000000	1.182038
2008.000000	1.181716
2006.000000	1.181501
2004.000000	1.181359
2002.000000	1.181133
2000.000000	1.180861
1998.000000	1.180586
1996.000000	1.180439
1994.000000	1.180219
1992.000000	1.179961
1990.000000	1.179870
1988.000000	1.179786
1986.000000	1.179642
1984.000000	1.179503
1982.000000	1.179392
1980.000000	1.179286
1978.000000	1.179188
1976.000000	1.179164
1974.000000	1.179059
1972.000000	1.178956
1970.000000	1.178844
1968.000000	1.178586
1966.000000	1.178401
1964.000000	1.178402
1962.000000	1.178361
1960.000000	1.178273
1958.000000	1.178157
1956.000000	1.178133
1954.000000	1.178189
1952.000000	1.178159
1950.000000	1.177995
1948.000000	1.178003
1946.000000	1.178051
1944.000000	1.177851
1942.000000	1.177725
1940.000000	1.177997
1938.000000	1.178178
1936.000000	1.178121
1934.000000	1.178036
1932.000000	1.178019
1930.000000	1.178022
1928.000000	1.178000
1926.000000	1.178057
1924.000000	1.178125
1922.000000	1.178138
1920.000000	1.178056
1918.000000	1.177786
1916.000000	1.177986
1914.000000	1.178360
1912.000000	1.178465
1910.000000	1.178483
1908.000000	1.178568
1906.000000	1.178679
1904.000000	1.178756
1902.000000	1.178841
1900.000000	1.179040
1898.000000	1.179223
1896.000000	1.179261
1894.000000	1.179269
1892.000000	1.179260
1890.000000	1.179174
1888.000000	1.179342
1886.000000	1.179567
1884.000000	1.179688
1882.000000	1.179797
1880.000000	1.179919
1878.000000	1.179992
1876.000000	1.180128
1874.000000	1.180315
1872.000000	1.180283
1870.000000	1.179935
1868.000000	1.179981
1866.000000	1.180496
1864.000000	1.180856
1862.000000	1.181082
1860.000000	1.181288
1858.000000	1.181388
1856.000000	1.181524
1854.000000	1.181749
1852.000000	1.181842
1850.000000	1.181967
1848.000000	1.182146
1846.000000	1.181740
1844.000000	1.181184
1842.000000	1.181986
1840.000000	1.182915
1838.000000	1.183189
1836.000000	1.183474
1834.000000	1.183853
1832.000000	1.183842
1830.000000	1.183481
1828.000000	1.183860
1826.000000	1.184246
1824.000000	1.184492
1822.000000	1.185110
1820.000000	1.185555
1818.000000	1.185777
1816.000000	1.186162
1814.000000	1.186557
1812.000000	1.186736
1810.000000	1.186970
1808.000000	1.187401
1806.000000	1.187750
1804.000000	1.188003
1802.000000	1.188128
1800.000000	1.188383
1798.000000	1.189003
1796.000000	1.189472
1794.000000	1.189114
1792.000000	1.188754
1790.000000	1.189802
1788.000000	1.190954
1786.000000	1.191204
1784.000000	1.191452
1782.000000	1.191987
1780.000000	1.192390
1778.000000	1.193003
1776.000000	1.193381
1774.000000	1.192641
1772.000000	1.191981
1770.000000	1.193311
1768.000000	1.194574
1766.000000	1.195559
1764.000000	1.196126
1762.000000	1.196038
1760.000000	1.196675
1758.000000	1.197256
1756.000000	1.197563
1754.000000	1.198202
1752.000000	1.197891
1750.000000	1.197930
1748.000000	1.199036
1746.000000	1.200093
1744.000000	1.200754
1742.000000	1.200838
1740.000000	1.200526
1738.000000	1.201051
1736.000000	1.200690
1734.000000	1.199029
1732.000000	1.200687
1730.000000	1.202937
1728.000000	1.203834
1726.000000	1.204411
1724.000000	1.204641
1722.000000	1.204747
1720.000000	1.203940
1718.000000	1.201815
1716.000000	1.201918
1714.000000	1.204021
1712.000000	1.205366
1710.000000	1.205758
1708.000000	1.205624
1706.000000	1.205178
1704.000000	1.205211
1702.000000	1.203966
1700.000000	1.201851
1698.000000	1.202749
1696.000000	1.202808
1694.000000	1.204378
1692.000000	1.206616
1690.000000	1.206939
1688.000000	1.206811
1686.000000	1.204568
1684.000000	1.202550
1682.000000	1.204833
1680.000000	1.206983
1678.000000	1.207333
1676.000000	1.206306
1674.000000	1.206077
1672.000000	1.206747
1670.000000	1.206170
1668.000000	1.206558
1666.000000	1.207754
1664.000000	1.207519
1662.000000	1.207114
1660.000000	1.207847
1658.000000	1.208212
1656.000000	1.207038
1654.000000	1.202708
1652.000000	1.201632
1650.000000	1.205771
1648.000000	1.206584
1646.000000	1.205698
1644.000000	1.207133
1642.000000	1.208472
1640.000000	1.208450
1638.000000	1.207442
1636.000000	1.205381
1634.000000	1.206023
1632.000000	1.208116
1630.000000	1.208441
1628.000000	1.208120
1626.000000	1.208055
1624.000000	1.207675
1622.000000	1.207786
1620.000000	1.208287
1618.000000	1.206842
1616.000000	1.205947
1614.000000	1.207900
1612.000000	1.209042
1610.000000	1.208906
1608.000000	1.208777
1606.000000	1.208735
1604.000000	1.208668
1602.000000	1.208555
1600.000000	1.208635
1598.000000	1.208878
1596.000000	1.208856
1594.000000	1.208736
1592.000000	1.208894
1590.000000	1.208988
1588.000000	1.209046
1586.000000	1.208995
1584.000000	1.209010
1582.000000	1.209140
1580.000000	1.209167
1578.000000	1.207759
1576.000000	1.205843
1574.000000	1.207402
1572.000000	1.208758
1570.000000	1.207809
1568.000000	1.208057
1566.000000	1.208868
1564.000000	1.208953
1562.000000	1.207657
1560.000000	1.203609
1558.000000	1.202679
1556.000000	1.205757
1554.000000	1.207247
1552.000000	1.208294
1550.000000	1.208818
1548.000000	1.208865
1546.000000	1.208338
1544.000000	1.207277
1542.000000	1.205456
1540.000000	1.203572
1538.000000	1.205282
1536.000000	1.208206
1534.000000	1.208171
1532.000000	1.208455
1530.000000	1.209314
1528.000000	1.209058
1526.000000	1.208376
1524.000000	1.207865
1522.000000	1.206416
1520.000000	1.206485
1518.000000	1.208020
1516.000000	1.208485
1514.000000	1.208995
1512.000000	1.209211
1510.000000	1.208844
1508.000000	1.206397
1506.000000	1.204930
1504.000000	1.207939
1502.000000	1.210581
1500.000000	1.210831
1498.000000	1.210024
1496.000000	1.208867
1494.000000	1.208795
1492.000000	1.208180
1490.000000	1.207177
1488.000000	1.207618
1486.000000	1.208684
1484.000000	1.209509
1482.000000	1.209707
1480.000000	1.209881
1478.000000	1.209788
1476.000000	1.209109
1474.000000	1.207927
1472.000000	1.207566
1470.000000	1.209215
1468.000000	1.210069
1466.000000	1.209328
1464.000000	1.209220
1462.000000	1.210024
1460.000000	1.209458
1458.000000	1.207138
1456.000000	1.206674
1454.000000	1.209086
1452.000000	1.209912
1450.000000	1.209220
1448.000000	1.208638
1446.000000	1.209183
1444.000000	1.209891
1442.000000	1.210041
1440.000000	1.209715
1438.000000	1.208351
1436.000000	1.207530
1434.000000	1.208851
1432.000000	1.209559
1430.000000	1.209310
1428.000000	1.209172
1426.000000	1.209349
1424.000000	1.209342
1422.000000	1.209112
1420.000000	1.207802
1418.000000	1.207681
1416.000000	1.208870
1414.000000	1.209549
1412.000000	1.209727
1410.000000	1.209631
1408.000000	1.209518
1406.000000	1.209134
1404.000000	1.208779
1402.000000	1.208681
1400.000000	1.208149
1398.000000	1.207873
1396.000000	1.207829
1394.000000	1.207789
1392.000000	1.208289
1390.000000	1.208427
1388.000000	1.207891
1386.000000	1.207916
1384.000000	1.208228
1382.000000	1.208165
1380.000000	1.208129
1378.000000	1.208009
1376.000000	1.207763
1374.000000	1.207443
1372.000000	1.207620
1370.000000	1.207753
1368.000000	1.207795
1366.000000	1.207821
1364.000000	1.207315
1362.000000	1.207057
1360.000000	1.207351
1358.000000	1.207460
1356.000000	1.207348
1354.000000	1.207292
1352.000000	1.207205
1350.000000	1.207067
1348.000000	1.206999
1346.000000	1.207021
1344.000000	1.207084
1342.000000	1.206894
1340.000000	1.206466
1338.000000	1.206373
1336.000000	1.206531
1334.000000	1.206539
1332.000000	1.206494
1330.000000	1.206507
1328.000000	1.206471
1326.000000	1.206400
1324.000000	1.206377
1322.000000	1.206296
1320.000000	1.206129
1318.000000	1.205958
1316.000000	1.205922
1314.000000	1.206029
1312.000000	1.206093
1310.000000	1.206137
1308.000000	1.206179
1306.000000	1.206177
1304.000000	1.206188
1302.000000	1.206200
1300.000000	1.206223
1298.000000	1.206193
1296.000000	1.206085
1294.000000	1.205998
1292.000000	1.206014
1290.000000	1.206021
1288.000000	1.205804
1286.000000	1.205696
1284.000000	1.205791
1282.000000	1.205802
1280.000000	1.205799
1278.000000	1.206001
1276.000000	1.206014
1274.000000	1.206055
1272.000000	1.206386
1270.000000	1.206716
1268.000000	1.207348
1266.000000	1.208291
1264.000000	1.209155
1262.000000	1.209416
1260.000000	1.209004
1258.000000	1.208305
1256.000000	1.207491
1254.000000	1.206775
1252.000000	1.206425
1250.000000	1.206331
1248.000000	1.206290
1246.000000	1.206240
1244.000000	1.206111
1242.000000	1.205968
1240.000000	1.205843
1238.000000	1.205905
1236.000000	1.205983
1234.000000	1.205720
1232.000000	1.205570
1230.000000	1.205545
1228.000000	1.205585
1226.000000	1.205525
1224.000000	1.205286
1222.000000	1.205464
1220.000000	1.205755
1218.000000	1.205608
1216.000000	1.205436
1214.000000	1.205274
1212.000000	1.204986
1210.000000	1.204797
1208.000000	1.204708
1206.000000	1.204677
1204.000000	1.204971
1202.000000	1.205328
1200.000000	1.205290
1198.000000	1.205099
1196.000000	1.205099
1194.000000	1.205085
1192.000000	1.205211
1190.000000	1.205520
1188.000000	1.205772
1186.000000	1.205746
1184.000000	1.205729
1182.000000	1.206078
1180.000000	1.205943
1178.000000	1.205699
1176.000000	1.205642
1174.000000	1.205871
1172.000000	1.206298
1170.000000	1.206470
1168.000000	1.206326
1166.000000	1.206240
1164.000000	1.206321
1162.000000	1.206258
1160.000000	1.206322
1158.000000	1.206694
1156.000000	1.207124
1154.000000	1.207196
1152.000000	1.206905
1150.000000	1.206763
1148.000000	1.206765
1146.000000	1.206795
1144.000000	1.206743
1142.000000	1.206555
1140.000000	1.206370
1138.000000	1.206299
1136.000000	1.206224
1134.000000	1.206104
1132.000000	1.205931
1130.000000	1.206155
1128.000000	1.206127
1126.000000	1.206069
1124.000000	1.206106
1122.000000	1.206185
1120.000000	1.206193
1118.000000	1.206139
1116.000000	1.206292
1114.000000	1.206245
1112.000000	1.206306
1110.000000	1.207071
1108.000000	1.207620
1106.000000	1.207284
1104.000000	1.207018
1102.000000	1.207417
1100.000000	1.207709
1098.000000	1.207603
1096.000000	1.207746
1094.000000	1.207785
1092.000000	1.207359
1090.000000	1.207572
1088.000000	1.208075
1086.000000	1.207600
1084.000000	1.206822
1082.000000	1.206152
1080.000000	1.205963
1078.000000	1.205811
1076.000000	1.205386
1074.000000	1.204826
1072.000000	1.204697
1070.000000	1.203790
1068.000000	1.202874
1066.000000	1.202765
1064.000000	1.202254
1062.000000	1.201609
1060.000000	1.201088
1058.000000	1.200815
1056.000000	1.201122
1054.000000	1.200657
1052.000000	1.199020
1050.000000	1.197682
1048.000000	1.197362
1046.000000	1.197655
1044.000000	1.197072
1042.000000	1.195998
1040.000000	1.195365
1038.000000	1.194952
1036.000000	1.195017
1034.000000	1.195100
1032.000000	1.194745
1030.000000	1.194440
1028.000000	1.193518
1026.000000	1.192574
1024.000000	1.192725
1022.000000	1.192903
1020.000000	1.193000
1018.000000	1.192785
1016.000000	1.192222
1014.000000	1.190316
1012.000000	1.188991
1010.000000	1.189846
1008.000000	1.190331
1006.000000	1.189875
1004.000000	1.190420
1002.000000	1.190321
1000.000000	1.189232
