PE IR       SUBTECH     SPECTRUM    ASCII       PEDS        4.00        
   -1
TE109A_062_80K_after_125K.ASC
20/04/21
18:19:54.00
20/04/21
18:20:03.00
Administrator
TE109A, Tuesday, April 21 2020, 062.
1000.000000
#HDR
-1
-1
#GR
cm-1
A
1.0
0.0
6000.000000
-2.000000
2501
8
0.999082
0.923103
#DATA
6000.000000	0.935203
5998.000000	0.935226
5996.000000	0.935458
5994.000000	0.935790
5992.000000	0.935815
5990.000000	0.935978
5988.000000	0.936364
5986.000000	0.936521
5984.000000	0.936389
5982.000000	0.935936
5980.000000	0.935539
5978.000000	0.935285
5976.000000	0.935222
5974.000000	0.935198
5972.000000	0.935419
5970.000000	0.935576
5968.000000	0.935631
5966.000000	0.935892
5964.000000	0.936009
5962.000000	0.935872
5960.000000	0.935736
5958.000000	0.935674
5956.000000	0.935805
5954.000000	0.935751
5952.000000	0.935461
5950.000000	0.935291
5948.000000	0.935442
5946.000000	0.935567
5944.000000	0.935643
5942.000000	0.935756
5940.000000	0.935674
5938.000000	0.935555
5936.000000	0.935516
5934.000000	0.935619
5932.000000	0.935760
5930.000000	0.935792
5928.000000	0.935611
5926.000000	0.935650
5924.000000	0.935692
5922.000000	0.935721
5920.000000	0.935781
5918.000000	0.935809
5916.000000	0.935883
5914.000000	0.935849
5912.000000	0.935705
5910.000000	0.935387
5908.000000	0.935349
5906.000000	0.935270
5904.000000	0.935474
5902.000000	0.935602
5900.000000	0.935664
5898.000000	0.935934
5896.000000	0.935740
5894.000000	0.935540
5892.000000	0.935564
5890.000000	0.935472
5888.000000	0.935349
5886.000000	0.935337
5884.000000	0.935433
5882.000000	0.935532
5880.000000	0.935398
5878.000000	0.935457
5876.000000	0.935916
5874.000000	0.935920
5872.000000	0.935638
5870.000000	0.935364
5868.000000	0.935342
5866.000000	0.935484
5864.000000	0.935402
5862.000000	0.935331
5860.000000	0.935262
5858.000000	0.935377
5856.000000	0.935841
5854.000000	0.936070
5852.000000	0.935707
5850.000000	0.935218
5848.000000	0.934875
5846.000000	0.934913
5844.000000	0.934903
5842.000000	0.934822
5840.000000	0.934915
5838.000000	0.935050
5836.000000	0.935166
5834.000000	0.935307
5832.000000	0.935609
5830.000000	0.935586
5828.000000	0.935496
5826.000000	0.935306
5824.000000	0.935067
5822.000000	0.935049
5820.000000	0.935239
5818.000000	0.935382
5816.000000	0.935345
5814.000000	0.935364
5812.000000	0.935368
5810.000000	0.935450
5808.000000	0.935465
5806.000000	0.935757
5804.000000	0.936013
5802.000000	0.936040
5800.000000	0.935900
5798.000000	0.935728
5796.000000	0.935662
5794.000000	0.935753
5792.000000	0.935802
5790.000000	0.935634
5788.000000	0.935389
5786.000000	0.935359
5784.000000	0.935671
5782.000000	0.935742
5780.000000	0.935605
5778.000000	0.935517
5776.000000	0.935589
5774.000000	0.935747
5772.000000	0.935712
5770.000000	0.935666
5768.000000	0.935693
5766.000000	0.935796
5764.000000	0.935845
5762.000000	0.936004
5760.000000	0.936022
5758.000000	0.935972
5756.000000	0.935880
5754.000000	0.936084
5752.000000	0.936225
5750.000000	0.936128
5748.000000	0.935925
5746.000000	0.935926
5744.000000	0.936135
5742.000000	0.936246
5740.000000	0.935841
5738.000000	0.935603
5736.000000	0.935588
5734.000000	0.935813
5732.000000	0.935876
5730.000000	0.935787
5728.000000	0.935703
5726.000000	0.935546
5724.000000	0.935496
5722.000000	0.935560
5720.000000	0.935611
5718.000000	0.935670
5716.000000	0.935862
5714.000000	0.936049
5712.000000	0.936076
5710.000000	0.935989
5708.000000	0.936040
5706.000000	0.935978
5704.000000	0.935756
5702.000000	0.935650
5700.000000	0.935883
5698.000000	0.936135
5696.000000	0.936058
5694.000000	0.935828
5692.000000	0.935520
5690.000000	0.935506
5688.000000	0.935589
5686.000000	0.935775
5684.000000	0.935894
5682.000000	0.935832
5680.000000	0.935912
5678.000000	0.935861
5676.000000	0.935676
5674.000000	0.935599
5672.000000	0.935660
5670.000000	0.935867
5668.000000	0.936106
5666.000000	0.936013
5664.000000	0.935948
5662.000000	0.935814
5660.000000	0.935848
5658.000000	0.935859
5656.000000	0.935739
5654.000000	0.935643
5652.000000	0.935669
5650.000000	0.935608
5648.000000	0.935725
5646.000000	0.935838
5644.000000	0.935840
5642.000000	0.935615
5640.000000	0.935396
5638.000000	0.935405
5636.000000	0.935517
5634.000000	0.935654
5632.000000	0.935644
5630.000000	0.935525
5628.000000	0.935389
5626.000000	0.935301
5624.000000	0.935550
5622.000000	0.935776
5620.000000	0.935887
5618.000000	0.935787
5616.000000	0.935750
5614.000000	0.935939
5612.000000	0.936147
5610.000000	0.936199
5608.000000	0.935951
5606.000000	0.935826
5604.000000	0.936053
5602.000000	0.936384
5600.000000	0.936467
5598.000000	0.936183
5596.000000	0.936100
5594.000000	0.936113
5592.000000	0.936149
5590.000000	0.936177
5588.000000	0.936403
5586.000000	0.936702
5584.000000	0.936738
5582.000000	0.936223
5580.000000	0.935856
5578.000000	0.935853
5576.000000	0.935999
5574.000000	0.936053
5572.000000	0.936096
5570.000000	0.936233
5568.000000	0.936210
5566.000000	0.936124
5564.000000	0.936205
5562.000000	0.936263
5560.000000	0.936192
5558.000000	0.936112
5556.000000	0.936019
5554.000000	0.935886
5552.000000	0.935976
5550.000000	0.936310
5548.000000	0.936323
5546.000000	0.935891
5544.000000	0.935627
5542.000000	0.935730
5540.000000	0.935806
5538.000000	0.935837
5536.000000	0.936014
5534.000000	0.936051
5532.000000	0.935883
5530.000000	0.935810
5528.000000	0.936095
5526.000000	0.936254
5524.000000	0.936065
5522.000000	0.935917
5520.000000	0.935863
5518.000000	0.935906
5516.000000	0.935997
5514.000000	0.936222
5512.000000	0.936425
5510.000000	0.936454
5508.000000	0.936523
5506.000000	0.936662
5504.000000	0.936700
5502.000000	0.936549
5500.000000	0.936392
5498.000000	0.936387
5496.000000	0.936288
5494.000000	0.936106
5492.000000	0.936112
5490.000000	0.936354
5488.000000	0.936543
5486.000000	0.936466
5484.000000	0.936294
5482.000000	0.936230
5480.000000	0.936150
5478.000000	0.936037
5476.000000	0.936072
5474.000000	0.936154
5472.000000	0.936396
5470.000000	0.936397
5468.000000	0.936400
5466.000000	0.936348
5464.000000	0.936131
5462.000000	0.935801
5460.000000	0.935669
5458.000000	0.935825
5456.000000	0.936042
5454.000000	0.936107
5452.000000	0.936119
5450.000000	0.936046
5448.000000	0.935899
5446.000000	0.935850
5444.000000	0.936050
5442.000000	0.936318
5440.000000	0.936294
5438.000000	0.935915
5436.000000	0.935813
5434.000000	0.936155
5432.000000	0.936435
5430.000000	0.936230
5428.000000	0.935915
5426.000000	0.935851
5424.000000	0.935930
5422.000000	0.935950
5420.000000	0.936056
5418.000000	0.936166
5416.000000	0.936040
5414.000000	0.935847
5412.000000	0.935732
5410.000000	0.935704
5408.000000	0.935582
5406.000000	0.935664
5404.000000	0.935948
5402.000000	0.936114
5400.000000	0.936055
5398.000000	0.935924
5396.000000	0.936050
5394.000000	0.936216
5392.000000	0.936290
5390.000000	0.936091
5388.000000	0.936050
5386.000000	0.936251
5384.000000	0.936373
5382.000000	0.936218
5380.000000	0.936049
5378.000000	0.936113
5376.000000	0.936223
5374.000000	0.936223
5372.000000	0.936121
5370.000000	0.936086
5368.000000	0.936067
5366.000000	0.936049
5364.000000	0.936093
5362.000000	0.936070
5360.000000	0.936035
5358.000000	0.936180
5356.000000	0.936310
5354.000000	0.936168
5352.000000	0.935853
5350.000000	0.935883
5348.000000	0.936137
5346.000000	0.936330
5344.000000	0.936394
5342.000000	0.936389
5340.000000	0.936204
5338.000000	0.936052
5336.000000	0.935970
5334.000000	0.936000
5332.000000	0.936157
5330.000000	0.936320
5328.000000	0.936415
5326.000000	0.936382
5324.000000	0.936471
5322.000000	0.936541
5320.000000	0.936500
5318.000000	0.936424
5316.000000	0.936440
5314.000000	0.936578
5312.000000	0.936609
5310.000000	0.936536
5308.000000	0.936477
5306.000000	0.936540
5304.000000	0.936541
5302.000000	0.936510
5300.000000	0.936615
5298.000000	0.936821
5296.000000	0.936821
5294.000000	0.936890
5292.000000	0.937046
5290.000000	0.937068
5288.000000	0.936936
5286.000000	0.936901
5284.000000	0.937230
5282.000000	0.937408
5280.000000	0.937342
5278.000000	0.937223
5276.000000	0.937180
5274.000000	0.937293
5272.000000	0.937332
5270.000000	0.937329
5268.000000	0.937406
5266.000000	0.937668
5264.000000	0.937849
5262.000000	0.937754
5260.000000	0.937503
5258.000000	0.937394
5256.000000	0.937422
5254.000000	0.937475
5252.000000	0.937495
5250.000000	0.937583
5248.000000	0.937877
5246.000000	0.938151
5244.000000	0.938167
5242.000000	0.938030
5240.000000	0.938019
5238.000000	0.938215
5236.000000	0.938403
5234.000000	0.938512
5232.000000	0.938603
5230.000000	0.938831
5228.000000	0.939015
5226.000000	0.939104
5224.000000	0.939277
5222.000000	0.939423
5220.000000	0.939330
5218.000000	0.939234
5216.000000	0.939361
5214.000000	0.939749
5212.000000	0.940012
5210.000000	0.940145
5208.000000	0.940148
5206.000000	0.940284
5204.000000	0.940601
5202.000000	0.940862
5200.000000	0.940827
5198.000000	0.940768
5196.000000	0.940883
5194.000000	0.940920
5192.000000	0.940841
5190.000000	0.940963
5188.000000	0.941221
5186.000000	0.941214
5184.000000	0.941149
5182.000000	0.941336
5180.000000	0.941685
5178.000000	0.941847
5176.000000	0.941806
5174.000000	0.941779
5172.000000	0.941866
5170.000000	0.942170
5168.000000	0.942348
5166.000000	0.942279
5164.000000	0.942263
5162.000000	0.942484
5160.000000	0.942831
5158.000000	0.943062
5156.000000	0.943240
5154.000000	0.943357
5152.000000	0.943279
5150.000000	0.943333
5148.000000	0.943429
5146.000000	0.943530
5144.000000	0.943612
5142.000000	0.943782
5140.000000	0.943966
5138.000000	0.944150
5136.000000	0.944402
5134.000000	0.944697
5132.000000	0.944891
5130.000000	0.944994
5128.000000	0.944882
5126.000000	0.944771
5124.000000	0.944830
5122.000000	0.945125
5120.000000	0.945455
5118.000000	0.945601
5116.000000	0.945631
5114.000000	0.945631
5112.000000	0.945685
5110.000000	0.945709
5108.000000	0.945663
5106.000000	0.945730
5104.000000	0.945877
5102.000000	0.946130
5100.000000	0.946170
5098.000000	0.946101
5096.000000	0.946245
5094.000000	0.946589
5092.000000	0.946864
5090.000000	0.946864
5088.000000	0.946805
5086.000000	0.946864
5084.000000	0.946895
5082.000000	0.946887
5080.000000	0.946895
5078.000000	0.946911
5076.000000	0.946873
5074.000000	0.946837
5072.000000	0.947015
5070.000000	0.947179
5068.000000	0.947226
5066.000000	0.947245
5064.000000	0.947243
5062.000000	0.947176
5060.000000	0.947120
5058.000000	0.947223
5056.000000	0.947419
5054.000000	0.947530
5052.000000	0.947582
5050.000000	0.947660
5048.000000	0.947696
5046.000000	0.947648
5044.000000	0.947648
5042.000000	0.947715
5040.000000	0.947835
5038.000000	0.947984
5036.000000	0.948082
5034.000000	0.948070
5032.000000	0.947931
5030.000000	0.947770
5028.000000	0.947690
5026.000000	0.947811
5024.000000	0.947938
5022.000000	0.947945
5020.000000	0.947998
5018.000000	0.948094
5016.000000	0.948207
5014.000000	0.948246
5012.000000	0.948248
5010.000000	0.948202
5008.000000	0.948234
5006.000000	0.948287
5004.000000	0.948310
5002.000000	0.948300
5000.000000	0.948277
4998.000000	0.948262
4996.000000	0.948240
4994.000000	0.948265
4992.000000	0.948348
4990.000000	0.948548
4988.000000	0.948615
4986.000000	0.948456
4984.000000	0.948284
4982.000000	0.948359
4980.000000	0.948514
4978.000000	0.948480
4976.000000	0.948396
4974.000000	0.948431
4972.000000	0.948500
4970.000000	0.948444
4968.000000	0.948420
4966.000000	0.948375
4964.000000	0.948276
4962.000000	0.948137
4960.000000	0.948047
4958.000000	0.947934
4956.000000	0.947911
4954.000000	0.948080
4952.000000	0.948226
4950.000000	0.948253
4948.000000	0.948207
4946.000000	0.948231
4944.000000	0.948348
4942.000000	0.948452
4940.000000	0.948319
4938.000000	0.948083
4936.000000	0.948071
4934.000000	0.948144
4932.000000	0.948131
4930.000000	0.948058
4928.000000	0.948045
4926.000000	0.948091
4924.000000	0.948223
4922.000000	0.948266
4920.000000	0.948200
4918.000000	0.948065
4916.000000	0.947912
4914.000000	0.947832
4912.000000	0.947797
4910.000000	0.947645
4908.000000	0.947488
4906.000000	0.947390
4904.000000	0.947463
4902.000000	0.947757
4900.000000	0.948018
4898.000000	0.947904
4896.000000	0.947702
4894.000000	0.947592
4892.000000	0.947434
4890.000000	0.947352
4888.000000	0.947487
4886.000000	0.947566
4884.000000	0.947477
4882.000000	0.947467
4880.000000	0.947499
4878.000000	0.947371
4876.000000	0.947013
4874.000000	0.946710
4872.000000	0.946679
4870.000000	0.946828
4868.000000	0.946804
4866.000000	0.946588
4864.000000	0.946426
4862.000000	0.946413
4860.000000	0.946403
4858.000000	0.946318
4856.000000	0.946269
4854.000000	0.946349
4852.000000	0.946417
4850.000000	0.946314
4848.000000	0.946075
4846.000000	0.945917
4844.000000	0.945978
4842.000000	0.946122
4840.000000	0.946089
4838.000000	0.945921
4836.000000	0.945771
4834.000000	0.945692
4832.000000	0.945650
4830.000000	0.945607
4828.000000	0.945563
4826.000000	0.945523
4824.000000	0.945447
4822.000000	0.945297
4820.000000	0.945057
4818.000000	0.944839
4816.000000	0.944676
4814.000000	0.944630
4812.000000	0.944583
4810.000000	0.944464
4808.000000	0.944299
4806.000000	0.944218
4804.000000	0.944202
4802.000000	0.944141
4800.000000	0.944028
4798.000000	0.943881
4796.000000	0.943745
4794.000000	0.943658
4792.000000	0.943519
4790.000000	0.943431
4788.000000	0.943360
4786.000000	0.943224
4784.000000	0.943005
4782.000000	0.942912
4780.000000	0.942751
4778.000000	0.942485
4776.000000	0.942328
4774.000000	0.942272
4772.000000	0.942183
4770.000000	0.942194
4768.000000	0.942171
4766.000000	0.941902
4764.000000	0.941619
4762.000000	0.941568
4760.000000	0.941564
4758.000000	0.941421
4756.000000	0.941266
4754.000000	0.941220
4752.000000	0.941164
4750.000000	0.940960
4748.000000	0.940764
4746.000000	0.940688
4744.000000	0.940638
4742.000000	0.940529
4740.000000	0.940306
4738.000000	0.940092
4736.000000	0.940050
4734.000000	0.940165
4732.000000	0.940206
4730.000000	0.940008
4728.000000	0.939624
4726.000000	0.939374
4724.000000	0.939356
4722.000000	0.939421
4720.000000	0.939473
4718.000000	0.939413
4716.000000	0.939168
4714.000000	0.939036
4712.000000	0.939138
4710.000000	0.939052
4708.000000	0.938724
4706.000000	0.938540
4704.000000	0.938550
4702.000000	0.938481
4700.000000	0.938374
4698.000000	0.938320
4696.000000	0.938243
4694.000000	0.938118
4692.000000	0.938041
4690.000000	0.938013
4688.000000	0.937957
4686.000000	0.937848
4684.000000	0.937738
4682.000000	0.937560
4680.000000	0.937320
4678.000000	0.937268
4676.000000	0.937426
4674.000000	0.937398
4672.000000	0.937163
4670.000000	0.937015
4668.000000	0.937001
4666.000000	0.936962
4664.000000	0.936914
4662.000000	0.936801
4660.000000	0.936668
4658.000000	0.936589
4656.000000	0.936537
4654.000000	0.936497
4652.000000	0.936540
4650.000000	0.936569
4648.000000	0.936484
4646.000000	0.936383
4644.000000	0.936350
4642.000000	0.936277
4640.000000	0.936201
4638.000000	0.936206
4636.000000	0.936253
4634.000000	0.936187
4632.000000	0.936064
4630.000000	0.935947
4628.000000	0.935846
4626.000000	0.935829
4624.000000	0.935886
4622.000000	0.935872
4620.000000	0.935719
4618.000000	0.935629
4616.000000	0.935660
4614.000000	0.935639
4612.000000	0.935521
4610.000000	0.935517
4608.000000	0.935617
4606.000000	0.935541
4604.000000	0.935370
4602.000000	0.935310
4600.000000	0.935338
4598.000000	0.935319
4596.000000	0.935238
4594.000000	0.935101
4592.000000	0.935030
4590.000000	0.935021
4588.000000	0.934983
4586.000000	0.934911
4584.000000	0.934845
4582.000000	0.934870
4580.000000	0.934841
4578.000000	0.934739
4576.000000	0.934734
4574.000000	0.934785
4572.000000	0.934755
4570.000000	0.934767
4568.000000	0.934759
4566.000000	0.934603
4564.000000	0.934478
4562.000000	0.934492
4560.000000	0.934595
4558.000000	0.934653
4556.000000	0.934564
4554.000000	0.934454
4552.000000	0.934461
4550.000000	0.934507
4548.000000	0.934483
4546.000000	0.934494
4544.000000	0.934454
4542.000000	0.934345
4540.000000	0.934342
4538.000000	0.934365
4536.000000	0.934212
4534.000000	0.934139
4532.000000	0.934234
4530.000000	0.934194
4528.000000	0.934085
4526.000000	0.934146
4524.000000	0.934164
4522.000000	0.934011
4520.000000	0.933898
4518.000000	0.933919
4516.000000	0.933992
4514.000000	0.934052
4512.000000	0.933997
4510.000000	0.933887
4508.000000	0.933857
4506.000000	0.933883
4504.000000	0.933885
4502.000000	0.933893
4500.000000	0.933848
4498.000000	0.933731
4496.000000	0.933588
4494.000000	0.933466
4492.000000	0.933466
4490.000000	0.933556
4488.000000	0.933624
4486.000000	0.933657
4484.000000	0.933565
4482.000000	0.933419
4480.000000	0.933369
4478.000000	0.933323
4476.000000	0.933250
4474.000000	0.933308
4472.000000	0.933396
4470.000000	0.933451
4468.000000	0.933495
4466.000000	0.933526
4464.000000	0.933387
4462.000000	0.933180
4460.000000	0.933114
4458.000000	0.933202
4456.000000	0.933318
4454.000000	0.933389
4452.000000	0.933333
4450.000000	0.933255
4448.000000	0.933203
4446.000000	0.933181
4444.000000	0.933252
4442.000000	0.933293
4440.000000	0.933213
4438.000000	0.933208
4436.000000	0.933257
4434.000000	0.933225
4432.000000	0.933195
4430.000000	0.933235
4428.000000	0.933263
4426.000000	0.933192
4424.000000	0.933036
4422.000000	0.933039
4420.000000	0.933183
4418.000000	0.933187
4416.000000	0.932981
4414.000000	0.932865
4412.000000	0.932982
4410.000000	0.933173
4408.000000	0.933165
4406.000000	0.933171
4404.000000	0.933301
4402.000000	0.933314
4400.000000	0.933194
4398.000000	0.933140
4396.000000	0.933100
4394.000000	0.933119
4392.000000	0.933209
4390.000000	0.933211
4388.000000	0.933167
4386.000000	0.933200
4384.000000	0.933219
4382.000000	0.933205
4380.000000	0.933226
4378.000000	0.933211
4376.000000	0.933154
4374.000000	0.933106
4372.000000	0.933137
4370.000000	0.933292
4368.000000	0.933405
4366.000000	0.933354
4364.000000	0.933338
4362.000000	0.933368
4360.000000	0.933404
4358.000000	0.933497
4356.000000	0.933583
4354.000000	0.933583
4352.000000	0.933612
4350.000000	0.933594
4348.000000	0.933455
4346.000000	0.933386
4344.000000	0.933466
4342.000000	0.933547
4340.000000	0.933626
4338.000000	0.933732
4336.000000	0.933795
4334.000000	0.933779
4332.000000	0.933779
4330.000000	0.933811
4328.000000	0.933820
4326.000000	0.933835
4324.000000	0.933834
4322.000000	0.933812
4320.000000	0.933883
4318.000000	0.934017
4316.000000	0.934117
4314.000000	0.934176
4312.000000	0.934151
4310.000000	0.934106
4308.000000	0.934160
4306.000000	0.934293
4304.000000	0.934363
4302.000000	0.934327
4300.000000	0.934213
4298.000000	0.934091
4296.000000	0.934073
4294.000000	0.934121
4292.000000	0.934077
4290.000000	0.934074
4288.000000	0.934215
4286.000000	0.934300
4284.000000	0.934315
4282.000000	0.934369
4280.000000	0.934348
4278.000000	0.934305
4276.000000	0.934346
4274.000000	0.934351
4272.000000	0.934397
4270.000000	0.934589
4268.000000	0.934735
4266.000000	0.934754
4264.000000	0.934728
4262.000000	0.934710
4260.000000	0.934743
4258.000000	0.934769
4256.000000	0.934710
4254.000000	0.934656
4252.000000	0.934640
4250.000000	0.934718
4248.000000	0.934863
4246.000000	0.934856
4244.000000	0.934710
4242.000000	0.934657
4240.000000	0.934763
4238.000000	0.934916
4236.000000	0.934942
4234.000000	0.934813
4232.000000	0.934732
4230.000000	0.934795
4228.000000	0.934925
4226.000000	0.934992
4224.000000	0.934966
4222.000000	0.934882
4220.000000	0.934857
4218.000000	0.934954
4216.000000	0.935075
4214.000000	0.935091
4212.000000	0.935008
4210.000000	0.934928
4208.000000	0.934991
4206.000000	0.935041
4204.000000	0.934919
4202.000000	0.934829
4200.000000	0.934884
4198.000000	0.934900
4196.000000	0.934803
4194.000000	0.934762
4192.000000	0.934857
4190.000000	0.934867
4188.000000	0.934766
4186.000000	0.934754
4184.000000	0.934797
4182.000000	0.934773
4180.000000	0.934737
4178.000000	0.934796
4176.000000	0.934874
4174.000000	0.934868
4172.000000	0.934856
4170.000000	0.934861
4168.000000	0.934808
4166.000000	0.934682
4164.000000	0.934609
4162.000000	0.934701
4160.000000	0.934794
4158.000000	0.934755
4156.000000	0.934724
4154.000000	0.934730
4152.000000	0.934741
4150.000000	0.934754
4148.000000	0.934776
4146.000000	0.934829
4144.000000	0.934829
4142.000000	0.934749
4140.000000	0.934741
4138.000000	0.934779
4136.000000	0.934746
4134.000000	0.934664
4132.000000	0.934586
4130.000000	0.934595
4128.000000	0.934645
4126.000000	0.934568
4124.000000	0.934494
4122.000000	0.934550
4120.000000	0.934590
4118.000000	0.934602
4116.000000	0.934602
4114.000000	0.934552
4112.000000	0.934521
4110.000000	0.934492
4108.000000	0.934422
4106.000000	0.934373
4104.000000	0.934368
4102.000000	0.934426
4100.000000	0.934471
4098.000000	0.934380
4096.000000	0.934206
4094.000000	0.934123
4092.000000	0.934150
4090.000000	0.934189
4088.000000	0.934168
4086.000000	0.934174
4084.000000	0.934299
4082.000000	0.934344
4080.000000	0.934204
4078.000000	0.934156
4076.000000	0.934181
4074.000000	0.934180
4072.000000	0.934185
4070.000000	0.934170
4068.000000	0.934169
4066.000000	0.934164
4064.000000	0.934086
4062.000000	0.934077
4060.000000	0.934111
4058.000000	0.934065
4056.000000	0.934023
4054.000000	0.934021
4052.000000	0.933990
4050.000000	0.933964
4048.000000	0.933963
4046.000000	0.933968
4044.000000	0.933913
4042.000000	0.933927
4040.000000	0.934015
4038.000000	0.933961
4036.000000	0.933877
4034.000000	0.933865
4032.000000	0.933770
4030.000000	0.933714
4028.000000	0.933795
4026.000000	0.933783
4024.000000	0.933678
4022.000000	0.933672
4020.000000	0.933713
4018.000000	0.933739
4016.000000	0.933688
4014.000000	0.933578
4012.000000	0.933518
4010.000000	0.933488
4008.000000	0.933469
4006.000000	0.933398
4004.000000	0.933266
4002.000000	0.933227
4000.000000	0.933217
3998.000000	0.933160
3996.000000	0.933138
3994.000000	0.933119
3992.000000	0.933125
3990.000000	0.933168
3988.000000	0.933124
3986.000000	0.933045
3984.000000	0.932977
3982.000000	0.932851
3980.000000	0.932774
3978.000000	0.932795
3976.000000	0.932837
3974.000000	0.932893
3972.000000	0.932874
3970.000000	0.932738
3968.000000	0.932562
3966.000000	0.932454
3964.000000	0.932486
3962.000000	0.932581
3960.000000	0.932553
3958.000000	0.932333
3956.000000	0.932149
3954.000000	0.932161
3952.000000	0.932161
3950.000000	0.932069
3948.000000	0.932003
3946.000000	0.932004
3944.000000	0.931972
3942.000000	0.931815
3940.000000	0.931672
3938.000000	0.931663
3936.000000	0.931681
3934.000000	0.931586
3932.000000	0.931380
3930.000000	0.931192
3928.000000	0.931151
3926.000000	0.931146
3924.000000	0.930994
3922.000000	0.930880
3920.000000	0.930852
3918.000000	0.930751
3916.000000	0.930655
3914.000000	0.930580
3912.000000	0.930468
3910.000000	0.930374
3908.000000	0.930352
3906.000000	0.930334
3904.000000	0.930180
3902.000000	0.929933
3900.000000	0.929717
3898.000000	0.929552
3896.000000	0.929513
3894.000000	0.929563
3892.000000	0.929426
3890.000000	0.929303
3888.000000	0.929405
3886.000000	0.929290
3884.000000	0.929013
3882.000000	0.928877
3880.000000	0.928743
3878.000000	0.928735
3876.000000	0.928821
3874.000000	0.928790
3872.000000	0.928699
3870.000000	0.928374
3868.000000	0.928021
3866.000000	0.927973
3864.000000	0.927894
3862.000000	0.927738
3860.000000	0.927778
3858.000000	0.928041
3856.000000	0.928210
3854.000000	0.927611
3852.000000	0.926745
3850.000000	0.926739
3848.000000	0.927141
3846.000000	0.927247
3844.000000	0.927146
3842.000000	0.927109
3840.000000	0.927174
3838.000000	0.926900
3836.000000	0.926463
3834.000000	0.926357
3832.000000	0.926336
3830.000000	0.926305
3828.000000	0.926359
3826.000000	0.926358
3824.000000	0.926305
3822.000000	0.926064
3820.000000	0.925798
3818.000000	0.925800
3816.000000	0.925586
3814.000000	0.925307
3812.000000	0.925438
3810.000000	0.925627
3808.000000	0.925531
3806.000000	0.925296
3804.000000	0.925283
3802.000000	0.925110
3800.000000	0.924730
3798.000000	0.924702
3796.000000	0.924807
3794.000000	0.924819
3792.000000	0.924793
3790.000000	0.924744
3788.000000	0.924734
3786.000000	0.924627
3784.000000	0.924471
3782.000000	0.924495
3780.000000	0.924482
3778.000000	0.924327
3776.000000	0.924311
3774.000000	0.924374
3772.000000	0.924340
3770.000000	0.924169
3768.000000	0.923981
3766.000000	0.923919
3764.000000	0.923989
3762.000000	0.924098
3760.000000	0.923999
3758.000000	0.923833
3756.000000	0.923948
3754.000000	0.924109
3752.000000	0.923869
3750.000000	0.923423
3748.000000	0.923482
3746.000000	0.923702
3744.000000	0.923267
3742.000000	0.923103
3740.000000	0.923669
3738.000000	0.923944
3736.000000	0.923771
3734.000000	0.923701
3732.000000	0.923759
3730.000000	0.923871
3728.000000	0.924053
3726.000000	0.924103
3724.000000	0.924116
3722.000000	0.924181
3720.000000	0.924290
3718.000000	0.924440
3716.000000	0.924586
3714.000000	0.924679
3712.000000	0.924613
3710.000000	0.924479
3708.000000	0.924593
3706.000000	0.925005
3704.000000	0.925349
3702.000000	0.925502
3700.000000	0.925668
3698.000000	0.925866
3696.000000	0.926139
3694.000000	0.926519
3692.000000	0.926803
3690.000000	0.926848
3688.000000	0.926679
3686.000000	0.926807
3684.000000	0.927333
3682.000000	0.927794
3680.000000	0.928195
3678.000000	0.928608
3676.000000	0.928710
3674.000000	0.928806
3672.000000	0.929294
3670.000000	0.929596
3668.000000	0.929869
3666.000000	0.930560
3664.000000	0.931307
3662.000000	0.931846
3660.000000	0.932405
3658.000000	0.933095
3656.000000	0.933629
3654.000000	0.934192
3652.000000	0.934938
3650.000000	0.935361
3648.000000	0.935606
3646.000000	0.936305
3644.000000	0.937309
3642.000000	0.938141
3640.000000	0.938913
3638.000000	0.939732
3636.000000	0.940491
3634.000000	0.941278
3632.000000	0.942213
3630.000000	0.942898
3628.000000	0.943233
3626.000000	0.943925
3624.000000	0.944995
3622.000000	0.946059
3620.000000	0.946857
3618.000000	0.947468
3616.000000	0.948270
3614.000000	0.949154
3612.000000	0.949982
3610.000000	0.950772
3608.000000	0.951438
3606.000000	0.952185
3604.000000	0.953141
3602.000000	0.954047
3600.000000	0.954834
3598.000000	0.955596
3596.000000	0.956255
3594.000000	0.956838
3592.000000	0.957569
3590.000000	0.958307
3588.000000	0.958807
3586.000000	0.959308
3584.000000	0.960008
3582.000000	0.960696
3580.000000	0.961266
3578.000000	0.961806
3576.000000	0.962266
3574.000000	0.962718
3572.000000	0.963331
3570.000000	0.963899
3568.000000	0.964145
3566.000000	0.964275
3564.000000	0.964634
3562.000000	0.965046
3560.000000	0.965399
3558.000000	0.965815
3556.000000	0.966171
3554.000000	0.966366
3552.000000	0.966534
3550.000000	0.966886
3548.000000	0.967328
3546.000000	0.967599
3544.000000	0.967706
3542.000000	0.967798
3540.000000	0.968013
3538.000000	0.968314
3536.000000	0.968512
3534.000000	0.968608
3532.000000	0.968801
3530.000000	0.969025
3528.000000	0.969177
3526.000000	0.969349
3524.000000	0.969484
3522.000000	0.969616
3520.000000	0.969768
3518.000000	0.969867
3516.000000	0.970015
3514.000000	0.970269
3512.000000	0.970599
3510.000000	0.970856
3508.000000	0.971071
3506.000000	0.971409
3504.000000	0.971642
3502.000000	0.971803
3500.000000	0.972140
3498.000000	0.972459
3496.000000	0.972702
3494.000000	0.973003
3492.000000	0.973379
3490.000000	0.973731
3488.000000	0.974001
3486.000000	0.974268
3484.000000	0.974481
3482.000000	0.974703
3480.000000	0.974983
3478.000000	0.975305
3476.000000	0.975653
3474.000000	0.975938
3472.000000	0.976241
3470.000000	0.976573
3468.000000	0.976864
3466.000000	0.977125
3464.000000	0.977376
3462.000000	0.977641
3460.000000	0.977975
3458.000000	0.978353
3456.000000	0.978651
3454.000000	0.978834
3452.000000	0.978999
3450.000000	0.979232
3448.000000	0.979455
3446.000000	0.979635
3444.000000	0.979923
3442.000000	0.980193
3440.000000	0.980362
3438.000000	0.980473
3436.000000	0.980572
3434.000000	0.980801
3432.000000	0.981027
3430.000000	0.981191
3428.000000	0.981313
3426.000000	0.981388
3424.000000	0.981553
3422.000000	0.981759
3420.000000	0.981928
3418.000000	0.982076
3416.000000	0.982165
3414.000000	0.982258
3412.000000	0.982395
3410.000000	0.982580
3408.000000	0.982823
3406.000000	0.983026
3404.000000	0.983108
3402.000000	0.983120
3400.000000	0.983220
3398.000000	0.983289
3396.000000	0.983265
3394.000000	0.983301
3392.000000	0.983421
3390.000000	0.983563
3388.000000	0.983641
3386.000000	0.983594
3384.000000	0.983548
3382.000000	0.983685
3380.000000	0.983832
3378.000000	0.983833
3376.000000	0.983865
3374.000000	0.983984
3372.000000	0.984055
3370.000000	0.984049
3368.000000	0.984053
3366.000000	0.984131
3364.000000	0.984229
3362.000000	0.984230
3360.000000	0.984256
3358.000000	0.984304
3356.000000	0.984407
3354.000000	0.984532
3352.000000	0.984595
3350.000000	0.984586
3348.000000	0.984542
3346.000000	0.984557
3344.000000	0.984615
3342.000000	0.984639
3340.000000	0.984638
3338.000000	0.984724
3336.000000	0.984797
3334.000000	0.984778
3332.000000	0.984752
3330.000000	0.984729
3328.000000	0.984776
3326.000000	0.984890
3324.000000	0.984938
3322.000000	0.984896
3320.000000	0.984908
3318.000000	0.985078
3316.000000	0.985181
3314.000000	0.985154
3312.000000	0.985216
3310.000000	0.985270
3308.000000	0.985238
3306.000000	0.985274
3304.000000	0.985415
3302.000000	0.985534
3300.000000	0.985543
3298.000000	0.985487
3296.000000	0.985541
3294.000000	0.985671
3292.000000	0.985781
3290.000000	0.985796
3288.000000	0.985755
3286.000000	0.985842
3284.000000	0.985956
3282.000000	0.985982
3280.000000	0.986060
3278.000000	0.986194
3276.000000	0.986238
3274.000000	0.986191
3272.000000	0.986204
3270.000000	0.986237
3268.000000	0.986268
3266.000000	0.986328
3264.000000	0.986374
3262.000000	0.986469
3260.000000	0.986571
3258.000000	0.986625
3256.000000	0.986683
3254.000000	0.986719
3252.000000	0.986744
3250.000000	0.986782
3248.000000	0.986809
3246.000000	0.986876
3244.000000	0.986897
3242.000000	0.986858
3240.000000	0.986915
3238.000000	0.986970
3236.000000	0.986984
3234.000000	0.986974
3232.000000	0.986996
3230.000000	0.987077
3228.000000	0.987126
3226.000000	0.987210
3224.000000	0.987299
3222.000000	0.987232
3220.000000	0.987204
3218.000000	0.987309
3216.000000	0.987363
3214.000000	0.987376
3212.000000	0.987427
3210.000000	0.987433
3208.000000	0.987351
3206.000000	0.987331
3204.000000	0.987373
3202.000000	0.987444
3200.000000	0.987525
3198.000000	0.987569
3196.000000	0.987594
3194.000000	0.987629
3192.000000	0.987662
3190.000000	0.987667
3188.000000	0.987655
3186.000000	0.987602
3184.000000	0.987548
3182.000000	0.987635
3180.000000	0.987725
3178.000000	0.987764
3176.000000	0.987825
3174.000000	0.987841
3172.000000	0.987830
3170.000000	0.987822
3168.000000	0.987824
3166.000000	0.987831
3164.000000	0.987827
3162.000000	0.987858
3160.000000	0.987918
3158.000000	0.987984
3156.000000	0.987987
3154.000000	0.987950
3152.000000	0.987917
3150.000000	0.987935
3148.000000	0.988039
3146.000000	0.988110
3144.000000	0.988088
3142.000000	0.988074
3140.000000	0.988124
3138.000000	0.988058
3136.000000	0.987907
3134.000000	0.987948
3132.000000	0.988104
3130.000000	0.988148
3128.000000	0.988120
3126.000000	0.988118
3124.000000	0.988134
3122.000000	0.988077
3120.000000	0.988122
3118.000000	0.988275
3116.000000	0.988290
3114.000000	0.988272
3112.000000	0.988397
3110.000000	0.988553
3108.000000	0.988549
3106.000000	0.988463
3104.000000	0.988432
3102.000000	0.988422
3100.000000	0.988416
3098.000000	0.988405
3096.000000	0.988464
3094.000000	0.988568
3092.000000	0.988593
3090.000000	0.988598
3088.000000	0.988635
3086.000000	0.988625
3084.000000	0.988594
3082.000000	0.988614
3080.000000	0.988622
3078.000000	0.988563
3076.000000	0.988534
3074.000000	0.988642
3072.000000	0.988715
3070.000000	0.988698
3068.000000	0.988729
3066.000000	0.988727
3064.000000	0.988658
3062.000000	0.988619
3060.000000	0.988661
3058.000000	0.988690
3056.000000	0.988721
3054.000000	0.988763
3052.000000	0.988741
3050.000000	0.988666
3048.000000	0.988632
3046.000000	0.988600
3044.000000	0.988494
3042.000000	0.988395
3040.000000	0.988431
3038.000000	0.988513
3036.000000	0.988533
3034.000000	0.988477
3032.000000	0.988342
3030.000000	0.988243
3028.000000	0.988276
3026.000000	0.988340
3024.000000	0.988323
3022.000000	0.988235
3020.000000	0.988163
3018.000000	0.988091
3016.000000	0.987929
3014.000000	0.987741
3012.000000	0.987700
3010.000000	0.987707
3008.000000	0.987730
3006.000000	0.987743
3004.000000	0.987743
3002.000000	0.987728
3000.000000	0.987617
2998.000000	0.987521
2996.000000	0.987483
2994.000000	0.987407
2992.000000	0.987268
2990.000000	0.987172
2988.000000	0.987146
2986.000000	0.987167
2984.000000	0.987181
2982.000000	0.987118
2980.000000	0.987035
2978.000000	0.987003
2976.000000	0.987124
2974.000000	0.987255
2972.000000	0.987324
2970.000000	0.987450
2968.000000	0.987563
2966.000000	0.987615
2964.000000	0.987505
2962.000000	0.987216
2960.000000	0.986767
2958.000000	0.986306
2956.000000	0.985936
2954.000000	0.985681
2952.000000	0.985499
2950.000000	0.985325
2948.000000	0.985229
2946.000000	0.985141
2944.000000	0.985018
2942.000000	0.984906
2940.000000	0.984855
2938.000000	0.984807
2936.000000	0.984634
2934.000000	0.984377
2932.000000	0.984151
2930.000000	0.983960
2928.000000	0.983753
2926.000000	0.983432
2924.000000	0.982989
2922.000000	0.982632
2920.000000	0.982389
2918.000000	0.982245
2916.000000	0.982151
2914.000000	0.982084
2912.000000	0.982029
2910.000000	0.981960
2908.000000	0.981917
2906.000000	0.981900
2904.000000	0.981865
2902.000000	0.981684
2900.000000	0.981395
2898.000000	0.981192
2896.000000	0.981023
2894.000000	0.980841
2892.000000	0.980752
2890.000000	0.980656
2888.000000	0.980528
2886.000000	0.980370
2884.000000	0.980178
2882.000000	0.980109
2880.000000	0.980081
2878.000000	0.979923
2876.000000	0.979720
2874.000000	0.979575
2872.000000	0.979513
2870.000000	0.979551
2868.000000	0.979605
2866.000000	0.979511
2864.000000	0.979201
2862.000000	0.978817
2860.000000	0.978509
2858.000000	0.978257
2856.000000	0.978040
2854.000000	0.977836
2852.000000	0.977688
2850.000000	0.977552
2848.000000	0.977411
2846.000000	0.977228
2844.000000	0.977050
2842.000000	0.977032
2840.000000	0.977102
2838.000000	0.977064
2836.000000	0.976998
2834.000000	0.976999
2832.000000	0.976928
2830.000000	0.976747
2828.000000	0.976638
2826.000000	0.976601
2824.000000	0.976453
2822.000000	0.976329
2820.000000	0.976293
2818.000000	0.976256
2816.000000	0.976180
2814.000000	0.976055
2812.000000	0.975937
2810.000000	0.975849
2808.000000	0.975795
2806.000000	0.975774
2804.000000	0.975688
2802.000000	0.975625
2800.000000	0.975559
2798.000000	0.975475
2796.000000	0.975450
2794.000000	0.975380
2792.000000	0.975273
2790.000000	0.975216
2788.000000	0.975187
2786.000000	0.975123
2784.000000	0.975056
2782.000000	0.975069
2780.000000	0.975041
2778.000000	0.974899
2776.000000	0.974831
2774.000000	0.974871
2772.000000	0.974901
2770.000000	0.974835
2768.000000	0.974766
2766.000000	0.974780
2764.000000	0.974784
2762.000000	0.974706
2760.000000	0.974612
2758.000000	0.974534
2756.000000	0.974459
2754.000000	0.974404
2752.000000	0.974378
2750.000000	0.974379
2748.000000	0.974400
2746.000000	0.974416
2744.000000	0.974441
2742.000000	0.974437
2740.000000	0.974417
2738.000000	0.974379
2736.000000	0.974342
2734.000000	0.974381
2732.000000	0.974390
2730.000000	0.974310
2728.000000	0.974333
2726.000000	0.974441
2724.000000	0.974517
2722.000000	0.974543
2720.000000	0.974537
2718.000000	0.974502
2716.000000	0.974478
2714.000000	0.974497
2712.000000	0.974493
2710.000000	0.974529
2708.000000	0.974605
2706.000000	0.974625
2704.000000	0.974683
2702.000000	0.974699
2700.000000	0.974631
2698.000000	0.974675
2696.000000	0.974852
2694.000000	0.974991
2692.000000	0.975041
2690.000000	0.975048
2688.000000	0.975092
2686.000000	0.975193
2684.000000	0.975200
2682.000000	0.975260
2680.000000	0.975438
2678.000000	0.975533
2676.000000	0.975561
2674.000000	0.975633
2672.000000	0.975719
2670.000000	0.975767
2668.000000	0.975843
2666.000000	0.975890
2664.000000	0.975907
2662.000000	0.975973
2660.000000	0.976071
2658.000000	0.976188
2656.000000	0.976287
2654.000000	0.976347
2652.000000	0.976419
2650.000000	0.976570
2648.000000	0.976752
2646.000000	0.976868
2644.000000	0.976959
2642.000000	0.977051
2640.000000	0.977081
2638.000000	0.977077
2636.000000	0.977169
2634.000000	0.977372
2632.000000	0.977536
2630.000000	0.977589
2628.000000	0.977678
2626.000000	0.977794
2624.000000	0.977874
2622.000000	0.977984
2620.000000	0.978196
2618.000000	0.978333
2616.000000	0.978337
2614.000000	0.978390
2612.000000	0.978519
2610.000000	0.978630
2608.000000	0.978692
2606.000000	0.978807
2604.000000	0.978936
2602.000000	0.979013
2600.000000	0.979095
2598.000000	0.979184
2596.000000	0.979261
2594.000000	0.979329
2592.000000	0.979418
2590.000000	0.979525
2588.000000	0.979675
2586.000000	0.979790
2584.000000	0.979798
2582.000000	0.979864
2580.000000	0.980017
2578.000000	0.980079
2576.000000	0.980151
2574.000000	0.980307
2572.000000	0.980416
2570.000000	0.980482
2568.000000	0.980557
2566.000000	0.980631
2564.000000	0.980704
2562.000000	0.980777
2560.000000	0.980856
2558.000000	0.980956
2556.000000	0.981098
2554.000000	0.981241
2552.000000	0.981326
2550.000000	0.981399
2548.000000	0.981441
2546.000000	0.981495
2544.000000	0.981591
2542.000000	0.981670
2540.000000	0.981810
2538.000000	0.981916
2536.000000	0.981970
2534.000000	0.982061
2532.000000	0.982195
2530.000000	0.982358
2528.000000	0.982447
2526.000000	0.982481
2524.000000	0.982568
2522.000000	0.982646
2520.000000	0.982742
2518.000000	0.982819
2516.000000	0.982854
2514.000000	0.983025
2512.000000	0.983206
2510.000000	0.983273
2508.000000	0.983352
2506.000000	0.983476
2504.000000	0.983613
2502.000000	0.983736
2500.000000	0.983813
2498.000000	0.983903
2496.000000	0.984018
2494.000000	0.984128
2492.000000	0.984259
2490.000000	0.984451
2488.000000	0.984639
2486.000000	0.984789
2484.000000	0.984930
2482.000000	0.985078
2480.000000	0.985243
2478.000000	0.985403
2476.000000	0.985540
2474.000000	0.985666
2472.000000	0.985805
2470.000000	0.986006
2468.000000	0.986231
2466.000000	0.986424
2464.000000	0.986634
2462.000000	0.986843
2460.000000	0.986999
2458.000000	0.987199
2456.000000	0.987375
2454.000000	0.987491
2452.000000	0.987650
2450.000000	0.987828
2448.000000	0.987968
2446.000000	0.988099
2444.000000	0.988211
2442.000000	0.988319
2440.000000	0.988404
2438.000000	0.988456
2436.000000	0.988537
2434.000000	0.988635
2432.000000	0.988725
2430.000000	0.988906
2428.000000	0.989020
2426.000000	0.989023
2424.000000	0.989011
2422.000000	0.989002
2420.000000	0.988981
2418.000000	0.988928
2416.000000	0.988853
2414.000000	0.988789
2412.000000	0.988729
2410.000000	0.988581
2408.000000	0.988443
2406.000000	0.988361
2404.000000	0.988289
2402.000000	0.988241
2400.000000	0.988168
2398.000000	0.988069
2396.000000	0.988045
2394.000000	0.987999
2392.000000	0.987853
2390.000000	0.987823
2388.000000	0.987854
2386.000000	0.987812
2384.000000	0.987796
2382.000000	0.987807
2380.000000	0.987787
2378.000000	0.987839
2376.000000	0.987921
2374.000000	0.987939
2372.000000	0.987941
2370.000000	0.987925
2368.000000	0.987964
2366.000000	0.988054
2364.000000	0.988058
2362.000000	0.988025
2360.000000	0.988032
2358.000000	0.988057
2356.000000	0.988099
2354.000000	0.988191
2352.000000	0.988313
2350.000000	0.988491
2348.000000	0.988735
2346.000000	0.989000
2344.000000	0.989311
2342.000000	0.989768
2340.000000	0.990078
2338.000000	0.989882
2336.000000	0.989492
2334.000000	0.989253
2332.000000	0.989179
2330.000000	0.989255
2328.000000	0.989377
2326.000000	0.989407
2324.000000	0.989474
2322.000000	0.989561
2320.000000	0.989567
2318.000000	0.989648
2316.000000	0.989833
2314.000000	0.989906
2312.000000	0.989900
2310.000000	0.990002
2308.000000	0.990147
2306.000000	0.990198
2304.000000	0.990259
2302.000000	0.990412
2300.000000	0.990557
2298.000000	0.990614
2296.000000	0.990647
2294.000000	0.990689
2292.000000	0.990778
2290.000000	0.990900
2288.000000	0.990952
2286.000000	0.990972
2284.000000	0.991012
2282.000000	0.991053
2280.000000	0.991135
2278.000000	0.991265
2276.000000	0.991359
2274.000000	0.991402
2272.000000	0.991432
2270.000000	0.991500
2268.000000	0.991539
2266.000000	0.991565
2264.000000	0.991682
2262.000000	0.991790
2260.000000	0.991812
2258.000000	0.991814
2256.000000	0.991870
2254.000000	0.991941
2252.000000	0.992007
2250.000000	0.992021
2248.000000	0.991992
2246.000000	0.992058
2244.000000	0.992194
2242.000000	0.992229
2240.000000	0.992226
2238.000000	0.992234
2236.000000	0.992261
2234.000000	0.992297
2232.000000	0.992342
2230.000000	0.992344
2228.000000	0.992350
2226.000000	0.992409
2224.000000	0.992442
2222.000000	0.992420
2220.000000	0.992351
2218.000000	0.992278
2216.000000	0.992301
2214.000000	0.992389
2212.000000	0.992448
2210.000000	0.992406
2208.000000	0.992331
2206.000000	0.992345
2204.000000	0.992355
2202.000000	0.992333
2200.000000	0.992300
2198.000000	0.992253
2196.000000	0.992240
2194.000000	0.992224
2192.000000	0.992126
2190.000000	0.992012
2188.000000	0.991968
2186.000000	0.992002
2184.000000	0.992019
2182.000000	0.991981
2180.000000	0.991949
2178.000000	0.991880
2176.000000	0.991745
2174.000000	0.991730
2172.000000	0.991790
2170.000000	0.991709
2168.000000	0.991565
2166.000000	0.991504
2164.000000	0.991438
2162.000000	0.991313
2160.000000	0.991291
2158.000000	0.991304
2156.000000	0.991220
2154.000000	0.991149
2152.000000	0.991103
2150.000000	0.990982
2148.000000	0.990876
2146.000000	0.990845
2144.000000	0.990771
2142.000000	0.990653
2140.000000	0.990567
2138.000000	0.990416
2136.000000	0.990283
2134.000000	0.990262
2132.000000	0.990175
2130.000000	0.990048
2128.000000	0.989947
2126.000000	0.989826
2124.000000	0.989722
2122.000000	0.989645
2120.000000	0.989557
2118.000000	0.989427
2116.000000	0.989227
2114.000000	0.989110
2112.000000	0.989078
2110.000000	0.988983
2108.000000	0.988862
2106.000000	0.988702
2104.000000	0.988517
2102.000000	0.988337
2100.000000	0.988191
2098.000000	0.988121
2096.000000	0.988090
2094.000000	0.987936
2092.000000	0.987750
2090.000000	0.987645
2088.000000	0.987526
2086.000000	0.987440
2084.000000	0.987387
2082.000000	0.987220
2080.000000	0.987044
2078.000000	0.986941
2076.000000	0.986771
2074.000000	0.986642
2072.000000	0.986571
2070.000000	0.986498
2068.000000	0.986369
2066.000000	0.986202
2064.000000	0.986086
2062.000000	0.985988
2060.000000	0.985845
2058.000000	0.985703
2056.000000	0.985551
2054.000000	0.985422
2052.000000	0.985306
2050.000000	0.985148
2048.000000	0.985038
2046.000000	0.984985
2044.000000	0.984890
2042.000000	0.984737
2040.000000	0.984590
2038.000000	0.984466
2036.000000	0.984314
2034.000000	0.984160
2032.000000	0.984106
2030.000000	0.984039
2028.000000	0.983893
2026.000000	0.983790
2024.000000	0.983723
2022.000000	0.983659
2020.000000	0.983536
2018.000000	0.983369
2016.000000	0.983225
2014.000000	0.983161
2012.000000	0.983110
2010.000000	0.983004
2008.000000	0.982909
2006.000000	0.982828
2004.000000	0.982686
2002.000000	0.982569
2000.000000	0.982553
1998.000000	0.982516
1996.000000	0.982446
1994.000000	0.982381
1992.000000	0.982246
1990.000000	0.982144
1988.000000	0.982152
1986.000000	0.982078
1984.000000	0.981949
1982.000000	0.981921
1980.000000	0.981933
1978.000000	0.981851
1976.000000	0.981758
1974.000000	0.981728
1972.000000	0.981758
1970.000000	0.981780
1968.000000	0.981751
1966.000000	0.981649
1964.000000	0.981620
1962.000000	0.981697
1960.000000	0.981686
1958.000000	0.981582
1956.000000	0.981565
1954.000000	0.981575
1952.000000	0.981574
1950.000000	0.981541
1948.000000	0.981544
1946.000000	0.981598
1944.000000	0.981616
1942.000000	0.981563
1940.000000	0.981562
1938.000000	0.981649
1936.000000	0.981745
1934.000000	0.981802
1932.000000	0.981823
1930.000000	0.981855
1928.000000	0.981873
1926.000000	0.981870
1924.000000	0.981912
1922.000000	0.981964
1920.000000	0.982060
1918.000000	0.982122
1916.000000	0.982121
1914.000000	0.982166
1912.000000	0.982303
1910.000000	0.982414
1908.000000	0.982502
1906.000000	0.982607
1904.000000	0.982643
1902.000000	0.982689
1900.000000	0.982779
1898.000000	0.982840
1896.000000	0.982935
1894.000000	0.983057
1892.000000	0.983137
1890.000000	0.983153
1888.000000	0.983200
1886.000000	0.983325
1884.000000	0.983381
1882.000000	0.983424
1880.000000	0.983521
1878.000000	0.983634
1876.000000	0.983719
1874.000000	0.983787
1872.000000	0.983863
1870.000000	0.983855
1868.000000	0.983816
1866.000000	0.984028
1864.000000	0.984245
1862.000000	0.984365
1860.000000	0.984409
1858.000000	0.984454
1856.000000	0.984564
1854.000000	0.984662
1852.000000	0.984715
1850.000000	0.984774
1848.000000	0.984889
1846.000000	0.985038
1844.000000	0.984989
1842.000000	0.985000
1840.000000	0.985219
1838.000000	0.985350
1836.000000	0.985464
1834.000000	0.985649
1832.000000	0.985780
1830.000000	0.985801
1828.000000	0.985918
1826.000000	0.986129
1824.000000	0.986185
1822.000000	0.986245
1820.000000	0.986388
1818.000000	0.986614
1816.000000	0.986747
1814.000000	0.986852
1812.000000	0.986980
1810.000000	0.987099
1808.000000	0.987287
1806.000000	0.987497
1804.000000	0.987630
1802.000000	0.987757
1800.000000	0.987873
1798.000000	0.988061
1796.000000	0.988272
1794.000000	0.988309
1792.000000	0.988198
1790.000000	0.988350
1788.000000	0.988666
1786.000000	0.988849
1784.000000	0.988910
1782.000000	0.989103
1780.000000	0.989317
1778.000000	0.989505
1776.000000	0.989747
1774.000000	0.989920
1772.000000	0.989781
1770.000000	0.989896
1768.000000	0.990188
1766.000000	0.990434
1764.000000	0.990775
1762.000000	0.990869
1760.000000	0.991026
1758.000000	0.991274
1756.000000	0.991366
1754.000000	0.991629
1752.000000	0.991773
1750.000000	0.991726
1748.000000	0.991977
1746.000000	0.992218
1744.000000	0.992310
1742.000000	0.992474
1740.000000	0.992669
1738.000000	0.992895
1736.000000	0.993235
1734.000000	0.992965
1732.000000	0.992899
1730.000000	0.993265
1728.000000	0.993435
1726.000000	0.993618
1724.000000	0.993736
1722.000000	0.993892
1720.000000	0.994132
1718.000000	0.993994
1716.000000	0.993701
1714.000000	0.993986
1712.000000	0.994344
1710.000000	0.994552
1708.000000	0.994655
1706.000000	0.994686
1704.000000	0.994741
1702.000000	0.994932
1700.000000	0.994508
1698.000000	0.994564
1696.000000	0.994629
1694.000000	0.994488
1692.000000	0.994950
1690.000000	0.995151
1688.000000	0.995235
1686.000000	0.995325
1684.000000	0.994839
1682.000000	0.994836
1680.000000	0.995243
1678.000000	0.995459
1676.000000	0.995467
1674.000000	0.995258
1672.000000	0.995448
1670.000000	0.995516
1668.000000	0.995431
1666.000000	0.995597
1664.000000	0.995707
1662.000000	0.995592
1660.000000	0.995702
1658.000000	0.995913
1656.000000	0.996240
1654.000000	0.995987
1652.000000	0.995082
1650.000000	0.995375
1648.000000	0.995888
1646.000000	0.995755
1644.000000	0.995771
1642.000000	0.996031
1640.000000	0.996182
1638.000000	0.996239
1636.000000	0.995908
1634.000000	0.995635
1632.000000	0.995927
1630.000000	0.996164
1628.000000	0.996252
1626.000000	0.996326
1624.000000	0.996183
1622.000000	0.995942
1620.000000	0.996110
1618.000000	0.996159
1616.000000	0.995860
1614.000000	0.996101
1612.000000	0.996462
1610.000000	0.996360
1608.000000	0.996213
1606.000000	0.996140
1604.000000	0.996098
1602.000000	0.996078
1600.000000	0.996093
1598.000000	0.996165
1596.000000	0.996230
1594.000000	0.996323
1592.000000	0.996448
1590.000000	0.996464
1588.000000	0.996578
1586.000000	0.996609
1584.000000	0.996578
1582.000000	0.996642
1580.000000	0.996774
1578.000000	0.996820
1576.000000	0.996417
1574.000000	0.996241
1572.000000	0.996558
1570.000000	0.996572
1568.000000	0.996592
1566.000000	0.996798
1564.000000	0.996904
1562.000000	0.997089
1560.000000	0.996780
1558.000000	0.996120
1556.000000	0.996267
1554.000000	0.996544
1552.000000	0.996808
1550.000000	0.997077
1548.000000	0.997220
1546.000000	0.997254
1544.000000	0.997240
1542.000000	0.997210
1540.000000	0.996815
1538.000000	0.996561
1536.000000	0.997043
1534.000000	0.997318
1532.000000	0.997327
1530.000000	0.997444
1528.000000	0.997458
1526.000000	0.997409
1524.000000	0.997500
1522.000000	0.997432
1520.000000	0.997257
1518.000000	0.997403
1516.000000	0.997455
1514.000000	0.997528
1512.000000	0.997681
1510.000000	0.997863
1508.000000	0.997818
1506.000000	0.997429
1504.000000	0.997656
1502.000000	0.998427
1500.000000	0.998984
1498.000000	0.999082
1496.000000	0.998384
1494.000000	0.997413
1492.000000	0.996876
1490.000000	0.996628
1488.000000	0.996708
1486.000000	0.996985
1484.000000	0.997238
1482.000000	0.997427
1480.000000	0.997523
1478.000000	0.997657
1476.000000	0.997685
1474.000000	0.997617
1472.000000	0.997394
1470.000000	0.997349
1468.000000	0.997508
1466.000000	0.997564
1464.000000	0.997515
1462.000000	0.997683
1460.000000	0.997958
1458.000000	0.997804
1456.000000	0.997277
1454.000000	0.997410
1452.000000	0.997499
1450.000000	0.997054
1448.000000	0.996784
1446.000000	0.996931
1444.000000	0.997104
1442.000000	0.997180
1440.000000	0.997239
1438.000000	0.997192
1436.000000	0.996927
1434.000000	0.996898
1432.000000	0.996988
1430.000000	0.996885
1428.000000	0.996778
1426.000000	0.996800
1424.000000	0.996801
1422.000000	0.996781
1420.000000	0.996643
1418.000000	0.996409
1416.000000	0.996601
1414.000000	0.996809
1412.000000	0.996887
1410.000000	0.996829
1408.000000	0.996797
1406.000000	0.996693
1404.000000	0.996415
1402.000000	0.996170
1400.000000	0.995948
1398.000000	0.995855
1396.000000	0.995815
1394.000000	0.995692
1392.000000	0.995766
1390.000000	0.995861
1388.000000	0.995769
1386.000000	0.995581
1384.000000	0.995470
1382.000000	0.995267
1380.000000	0.995238
1378.000000	0.995302
1376.000000	0.995330
1374.000000	0.995237
1372.000000	0.995075
1370.000000	0.994975
1368.000000	0.994857
1366.000000	0.994753
1364.000000	0.994757
1362.000000	0.994688
1360.000000	0.994517
1358.000000	0.994348
1356.000000	0.994336
1354.000000	0.994361
1352.000000	0.994250
1350.000000	0.994181
1348.000000	0.994170
1346.000000	0.994071
1344.000000	0.994008
1342.000000	0.993951
1340.000000	0.993678
1338.000000	0.993541
1336.000000	0.993589
1334.000000	0.993605
1332.000000	0.993572
1330.000000	0.993510
1328.000000	0.993500
1326.000000	0.993526
1324.000000	0.993538
1322.000000	0.993446
1320.000000	0.993338
1318.000000	0.993244
1316.000000	0.993092
1314.000000	0.992925
1312.000000	0.992874
1310.000000	0.992836
1308.000000	0.992789
1306.000000	0.992824
1304.000000	0.992806
1302.000000	0.992650
1300.000000	0.992509
1298.000000	0.992433
1296.000000	0.992448
1294.000000	0.992340
1292.000000	0.992294
1290.000000	0.992327
1288.000000	0.992298
1286.000000	0.992205
1284.000000	0.992201
1282.000000	0.992188
1280.000000	0.992119
1278.000000	0.992048
1276.000000	0.992068
1274.000000	0.992207
1272.000000	0.992464
1270.000000	0.992871
1268.000000	0.993693
1266.000000	0.994845
1264.000000	0.995837
1262.000000	0.996369
1260.000000	0.996343
1258.000000	0.995652
1256.000000	0.994658
1254.000000	0.993777
1252.000000	0.993171
1250.000000	0.992795
1248.000000	0.992627
1246.000000	0.992616
1244.000000	0.992531
1242.000000	0.992491
1240.000000	0.992509
1238.000000	0.992389
1236.000000	0.992380
1234.000000	0.992490
1232.000000	0.992445
1230.000000	0.992238
1228.000000	0.992226
1226.000000	0.992363
1224.000000	0.992432
1222.000000	0.992426
1220.000000	0.992417
1218.000000	0.992340
1216.000000	0.992263
1214.000000	0.992222
1212.000000	0.992231
1210.000000	0.992342
1208.000000	0.992392
1206.000000	0.992391
1204.000000	0.992475
1202.000000	0.992473
1200.000000	0.992440
1198.000000	0.992518
1196.000000	0.992652
1194.000000	0.992759
1192.000000	0.992990
1190.000000	0.993195
1188.000000	0.993309
1186.000000	0.993415
1184.000000	0.993631
1182.000000	0.993907
1180.000000	0.993770
1178.000000	0.993743
1176.000000	0.993890
1174.000000	0.993990
1172.000000	0.994181
1170.000000	0.994399
1168.000000	0.994538
1166.000000	0.994624
1164.000000	0.994716
1162.000000	0.994932
1160.000000	0.995037
1158.000000	0.995153
1156.000000	0.995402
1154.000000	0.995417
1152.000000	0.995386
1150.000000	0.995415
1148.000000	0.995382
1146.000000	0.995215
1144.000000	0.995383
1142.000000	0.995690
1140.000000	0.995591
1138.000000	0.995427
1136.000000	0.995296
1134.000000	0.995211
1132.000000	0.995487
1130.000000	0.995621
1128.000000	0.995741
1126.000000	0.995890
1124.000000	0.996165
1122.000000	0.996447
1120.000000	0.996070
1118.000000	0.995933
1116.000000	0.996271
1114.000000	0.996544
1112.000000	0.996923
1110.000000	0.997316
1108.000000	0.997527
1106.000000	0.997676
1104.000000	0.998088
1102.000000	0.998141
1100.000000	0.997893
1098.000000	0.997710
1096.000000	0.997667
1094.000000	0.997751
1092.000000	0.997819
1090.000000	0.997594
1088.000000	0.997259
1086.000000	0.997055
1084.000000	0.996932
1082.000000	0.996612
1080.000000	0.995790
1078.000000	0.994992
1076.000000	0.994548
1074.000000	0.993947
1072.000000	0.993061
1070.000000	0.992472
1068.000000	0.992099
1066.000000	0.991640
1064.000000	0.991200
1062.000000	0.990252
1060.000000	0.989160
1058.000000	0.989275
1056.000000	0.989478
1054.000000	0.988857
1052.000000	0.987997
1050.000000	0.986947
1048.000000	0.986176
1046.000000	0.985464
1044.000000	0.984589
1042.000000	0.984004
1040.000000	0.983526
1038.000000	0.983440
1036.000000	0.982728
1034.000000	0.981643
1032.000000	0.981538
1030.000000	0.981688
1028.000000	0.981239
1026.000000	0.980436
1024.000000	0.979543
1022.000000	0.979456
1020.000000	0.980301
1018.000000	0.980079
1016.000000	0.978911
1014.000000	0.978311
1012.000000	0.978475
1010.000000	0.978520
1008.000000	0.977606
1006.000000	0.976430
1004.000000	0.976887
1002.000000	0.977113
1000.000000	0.976120
