PE IR       SUBTECH     SPECTRUM    ASCII       PEDS        4.00        
   -1
TE110A_059_80K_AFTER_120K_SB.ASC
20/05/14
14:28:56.00
20/05/14
14:28:56.00
Administrator
TE110A.Thursday, May 14 2020, 007.
1000.000000
#HDR
-1
-1
#GR
cm-1
EGY
1.0
0.0
6000.000000
-2.000000
2501
8
6.683987
0.690005
#DATA
6000.000000	1.051810
5998.000000	1.053324
5996.000000	1.055392
5994.000000	1.057314
5992.000000	1.059404
5990.000000	1.061991
5988.000000	1.064550
5986.000000	1.066968
5984.000000	1.069229
5982.000000	1.071525
5980.000000	1.073463
5978.000000	1.074720
5976.000000	1.077125
5974.000000	1.079956
5972.000000	1.082414
5970.000000	1.084134
5968.000000	1.084929
5966.000000	1.086727
5964.000000	1.089099
5962.000000	1.091647
5960.000000	1.094354
5958.000000	1.096607
5956.000000	1.098727
5954.000000	1.101087
5952.000000	1.103087
5950.000000	1.105217
5948.000000	1.107613
5946.000000	1.110469
5944.000000	1.113047
5942.000000	1.114641
5940.000000	1.116208
5938.000000	1.118022
5936.000000	1.120318
5934.000000	1.123594
5932.000000	1.126061
5930.000000	1.127847
5928.000000	1.129262
5926.000000	1.130389
5924.000000	1.132445
5922.000000	1.134658
5920.000000	1.137100
5918.000000	1.139954
5916.000000	1.142299
5914.000000	1.144855
5912.000000	1.147674
5910.000000	1.150213
5908.000000	1.152471
5906.000000	1.154411
5904.000000	1.157105
5902.000000	1.160035
5900.000000	1.162473
5898.000000	1.164514
5896.000000	1.166972
5894.000000	1.170035
5892.000000	1.173156
5890.000000	1.174704
5888.000000	1.176247
5886.000000	1.178557
5884.000000	1.182067
5882.000000	1.185695
5880.000000	1.187650
5878.000000	1.188699
5876.000000	1.190649
5874.000000	1.193871
5872.000000	1.197500
5870.000000	1.198922
5868.000000	1.199378
5866.000000	1.201644
5864.000000	1.205187
5862.000000	1.209011
5860.000000	1.212595
5858.000000	1.215657
5856.000000	1.218776
5854.000000	1.220311
5852.000000	1.221170
5850.000000	1.223227
5848.000000	1.225849
5846.000000	1.228764
5844.000000	1.231437
5842.000000	1.233385
5840.000000	1.235346
5838.000000	1.238094
5836.000000	1.241782
5834.000000	1.245652
5832.000000	1.248517
5830.000000	1.249880
5828.000000	1.251532
5826.000000	1.254342
5824.000000	1.257403
5822.000000	1.259817
5820.000000	1.261598
5818.000000	1.264305
5816.000000	1.267324
5814.000000	1.269789
5812.000000	1.271896
5810.000000	1.274456
5808.000000	1.277187
5806.000000	1.280983
5804.000000	1.284773
5802.000000	1.287754
5800.000000	1.289961
5798.000000	1.292552
5796.000000	1.295506
5794.000000	1.297625
5792.000000	1.298707
5790.000000	1.300796
5788.000000	1.304263
5786.000000	1.307933
5784.000000	1.310529
5782.000000	1.312456
5780.000000	1.315408
5778.000000	1.319791
5776.000000	1.323581
5774.000000	1.325920
5772.000000	1.327133
5770.000000	1.328977
5768.000000	1.331483
5766.000000	1.334303
5764.000000	1.337232
5762.000000	1.340115
5760.000000	1.342599
5758.000000	1.345319
5756.000000	1.347675
5754.000000	1.350508
5752.000000	1.353692
5750.000000	1.356203
5748.000000	1.358786
5746.000000	1.361145
5744.000000	1.363634
5742.000000	1.366082
5740.000000	1.369246
5738.000000	1.372638
5736.000000	1.375705
5734.000000	1.378207
5732.000000	1.381001
5730.000000	1.383859
5728.000000	1.386496
5726.000000	1.389245
5724.000000	1.392547
5722.000000	1.394992
5720.000000	1.396901
5718.000000	1.399641
5716.000000	1.402795
5714.000000	1.405461
5712.000000	1.407703
5710.000000	1.410156
5708.000000	1.413523
5706.000000	1.416455
5704.000000	1.419225
5702.000000	1.422013
5700.000000	1.424820
5698.000000	1.428274
5696.000000	1.431710
5694.000000	1.434756
5692.000000	1.436960
5690.000000	1.438845
5688.000000	1.441478
5686.000000	1.444174
5684.000000	1.446843
5682.000000	1.450330
5680.000000	1.454009
5678.000000	1.458153
5676.000000	1.461793
5674.000000	1.465238
5672.000000	1.467888
5670.000000	1.469620
5668.000000	1.471097
5666.000000	1.473755
5664.000000	1.477199
5662.000000	1.481116
5660.000000	1.484591
5658.000000	1.487864
5656.000000	1.490690
5654.000000	1.493127
5652.000000	1.496376
5650.000000	1.499807
5648.000000	1.502756
5646.000000	1.505277
5644.000000	1.508152
5642.000000	1.511779
5640.000000	1.514878
5638.000000	1.516187
5636.000000	1.517802
5634.000000	1.520068
5632.000000	1.524288
5630.000000	1.528368
5628.000000	1.531072
5626.000000	1.533844
5624.000000	1.536342
5622.000000	1.539989
5620.000000	1.543325
5618.000000	1.546406
5616.000000	1.549478
5614.000000	1.552347
5612.000000	1.555330
5610.000000	1.557793
5608.000000	1.560556
5606.000000	1.563919
5604.000000	1.567782
5602.000000	1.571045
5600.000000	1.573521
5598.000000	1.576057
5596.000000	1.579720
5594.000000	1.582981
5592.000000	1.585831
5590.000000	1.588373
5588.000000	1.591018
5586.000000	1.593851
5584.000000	1.597244
5582.000000	1.601390
5580.000000	1.604612
5578.000000	1.606201
5576.000000	1.608390
5574.000000	1.612278
5572.000000	1.616567
5570.000000	1.620547
5568.000000	1.623497
5566.000000	1.626164
5564.000000	1.628478
5562.000000	1.631269
5560.000000	1.634871
5558.000000	1.638821
5556.000000	1.642298
5554.000000	1.644883
5552.000000	1.647584
5550.000000	1.650828
5548.000000	1.654783
5546.000000	1.658230
5544.000000	1.660569
5542.000000	1.662786
5540.000000	1.665771
5538.000000	1.669508
5536.000000	1.673466
5534.000000	1.677147
5532.000000	1.680710
5530.000000	1.683135
5528.000000	1.685195
5526.000000	1.686660
5524.000000	1.688805
5522.000000	1.691818
5520.000000	1.694781
5518.000000	1.698475
5516.000000	1.702230
5514.000000	1.706104
5512.000000	1.709421
5510.000000	1.713371
5508.000000	1.717503
5506.000000	1.720428
5504.000000	1.722962
5502.000000	1.725811
5500.000000	1.729264
5498.000000	1.732491
5496.000000	1.735573
5494.000000	1.738902
5492.000000	1.742184
5490.000000	1.745296
5488.000000	1.747947
5486.000000	1.750755
5484.000000	1.754655
5482.000000	1.758918
5480.000000	1.761960
5478.000000	1.763803
5476.000000	1.765470
5474.000000	1.768067
5472.000000	1.771532
5470.000000	1.775070
5468.000000	1.778603
5466.000000	1.782210
5464.000000	1.786069
5462.000000	1.789442
5460.000000	1.792637
5458.000000	1.795530
5456.000000	1.798680
5454.000000	1.801965
5452.000000	1.805155
5450.000000	1.808184
5448.000000	1.810328
5446.000000	1.812811
5444.000000	1.815925
5442.000000	1.819623
5440.000000	1.822970
5438.000000	1.826407
5436.000000	1.830586
5434.000000	1.834433
5432.000000	1.837102
5430.000000	1.838977
5428.000000	1.841132
5426.000000	1.844500
5424.000000	1.848986
5422.000000	1.853627
5420.000000	1.857626
5418.000000	1.860874
5416.000000	1.862625
5414.000000	1.863270
5412.000000	1.864345
5410.000000	1.867378
5408.000000	1.871328
5406.000000	1.875744
5404.000000	1.880981
5402.000000	1.885859
5400.000000	1.889473
5398.000000	1.892137
5396.000000	1.894455
5394.000000	1.896490
5392.000000	1.899618
5390.000000	1.904513
5388.000000	1.908970
5386.000000	1.911789
5384.000000	1.915051
5382.000000	1.919332
5380.000000	1.922955
5378.000000	1.924898
5376.000000	1.927378
5374.000000	1.930973
5372.000000	1.935611
5370.000000	1.939307
5368.000000	1.942063
5366.000000	1.945324
5364.000000	1.948867
5362.000000	1.952640
5360.000000	1.955958
5358.000000	1.958930
5356.000000	1.961489
5354.000000	1.963872
5352.000000	1.967421
5350.000000	1.970727
5348.000000	1.973932
5346.000000	1.976335
5344.000000	1.978459
5342.000000	1.980348
5340.000000	1.983018
5338.000000	1.986880
5336.000000	1.991127
5334.000000	1.995871
5332.000000	2.000600
5330.000000	2.004443
5328.000000	2.007454
5326.000000	2.010265
5324.000000	2.013525
5322.000000	2.016400
5320.000000	2.019844
5318.000000	2.024635
5316.000000	2.028927
5314.000000	2.032196
5312.000000	2.034551
5310.000000	2.037745
5308.000000	2.041335
5306.000000	2.045096
5304.000000	2.049203
5302.000000	2.052942
5300.000000	2.056419
5298.000000	2.058618
5296.000000	2.060456
5294.000000	2.063380
5292.000000	2.066976
5290.000000	2.070023
5288.000000	2.072601
5286.000000	2.076461
5284.000000	2.081070
5282.000000	2.085725
5280.000000	2.089856
5278.000000	2.093403
5276.000000	2.097181
5274.000000	2.100164
5272.000000	2.103217
5270.000000	2.106574
5268.000000	2.110189
5266.000000	2.112809
5264.000000	2.114260
5262.000000	2.116746
5260.000000	2.120397
5258.000000	2.124271
5256.000000	2.127701
5254.000000	2.131423
5252.000000	2.135479
5250.000000	2.139416
5248.000000	2.141760
5246.000000	2.143244
5244.000000	2.146189
5242.000000	2.151282
5240.000000	2.156017
5238.000000	2.159020
5236.000000	2.161550
5234.000000	2.165026
5232.000000	2.168844
5230.000000	2.172849
5228.000000	2.176193
5226.000000	2.178359
5224.000000	2.180840
5222.000000	2.185472
5220.000000	2.190816
5218.000000	2.195159
5216.000000	2.198510
5214.000000	2.201697
5212.000000	2.204314
5210.000000	2.206528
5208.000000	2.208686
5206.000000	2.211498
5204.000000	2.215422
5202.000000	2.220603
5200.000000	2.225211
5198.000000	2.228923
5196.000000	2.232023
5194.000000	2.235650
5192.000000	2.239272
5190.000000	2.242524
5188.000000	2.245183
5186.000000	2.247478
5184.000000	2.250804
5182.000000	2.256167
5180.000000	2.261731
5178.000000	2.265780
5176.000000	2.268972
5174.000000	2.272382
5172.000000	2.276094
5170.000000	2.279123
5168.000000	2.281734
5166.000000	2.284116
5164.000000	2.286727
5162.000000	2.289934
5160.000000	2.293373
5158.000000	2.297118
5156.000000	2.300982
5154.000000	2.304450
5152.000000	2.308195
5150.000000	2.312132
5148.000000	2.315988
5146.000000	2.318886
5144.000000	2.321586
5142.000000	2.325314
5140.000000	2.329543
5138.000000	2.333480
5136.000000	2.337327
5134.000000	2.341818
5132.000000	2.345677
5130.000000	2.348458
5128.000000	2.351004
5126.000000	2.353501
5124.000000	2.356474
5122.000000	2.360660
5120.000000	2.365307
5118.000000	2.368880
5116.000000	2.372399
5114.000000	2.376624
5112.000000	2.380377
5110.000000	2.382862
5108.000000	2.386374
5106.000000	2.391429
5104.000000	2.395723
5102.000000	2.399087
5100.000000	2.402501
5098.000000	2.406325
5096.000000	2.409384
5094.000000	2.412359
5092.000000	2.415971
5090.000000	2.420824
5088.000000	2.425950
5086.000000	2.429546
5084.000000	2.431446
5082.000000	2.433706
5080.000000	2.437342
5078.000000	2.441271
5076.000000	2.445154
5074.000000	2.448571
5072.000000	2.451492
5070.000000	2.455058
5068.000000	2.459540
5066.000000	2.463907
5064.000000	2.467292
5062.000000	2.471061
5060.000000	2.474413
5058.000000	2.477397
5056.000000	2.480808
5054.000000	2.484964
5052.000000	2.488615
5050.000000	2.491265
5048.000000	2.493552
5046.000000	2.495311
5044.000000	2.498367
5042.000000	2.503282
5040.000000	2.508574
5038.000000	2.512300
5036.000000	2.515155
5034.000000	2.519071
5032.000000	2.522638
5030.000000	2.525295
5028.000000	2.528164
5026.000000	2.531877
5024.000000	2.536458
5022.000000	2.541305
5020.000000	2.545488
5018.000000	2.548320
5016.000000	2.552242
5014.000000	2.557682
5012.000000	2.562315
5010.000000	2.565185
5008.000000	2.567759
5006.000000	2.571272
5004.000000	2.575452
5002.000000	2.579441
5000.000000	2.582822
4998.000000	2.586176
4996.000000	2.589882
4994.000000	2.593768
4992.000000	2.597254
4990.000000	2.600892
4988.000000	2.605352
4986.000000	2.610006
4984.000000	2.613571
4982.000000	2.616222
4980.000000	2.619544
4978.000000	2.623510
4976.000000	2.627515
4974.000000	2.631357
4972.000000	2.635186
4970.000000	2.638990
4968.000000	2.642591
4966.000000	2.646218
4964.000000	2.649440
4962.000000	2.652638
4960.000000	2.656010
4958.000000	2.659213
4956.000000	2.662392
4954.000000	2.666105
4952.000000	2.670889
4950.000000	2.675403
4948.000000	2.679161
4946.000000	2.681795
4944.000000	2.683988
4942.000000	2.686417
4940.000000	2.689835
4938.000000	2.694075
4936.000000	2.699147
4934.000000	2.704158
4932.000000	2.707918
4930.000000	2.710729
4928.000000	2.713562
4926.000000	2.717106
4924.000000	2.721630
4922.000000	2.726103
4920.000000	2.729570
4918.000000	2.732599
4916.000000	2.736205
4914.000000	2.739435
4912.000000	2.742079
4910.000000	2.746291
4908.000000	2.751481
4906.000000	2.755667
4904.000000	2.758509
4902.000000	2.761894
4900.000000	2.766005
4898.000000	2.770418
4896.000000	2.774472
4894.000000	2.777278
4892.000000	2.779980
4890.000000	2.784130
4888.000000	2.788764
4886.000000	2.792815
4884.000000	2.796905
4882.000000	2.800496
4880.000000	2.803541
4878.000000	2.807301
4876.000000	2.812376
4874.000000	2.816896
4872.000000	2.820233
4870.000000	2.823372
4868.000000	2.826606
4866.000000	2.829297
4864.000000	2.831723
4862.000000	2.834531
4860.000000	2.837779
4858.000000	2.841737
4856.000000	2.846356
4854.000000	2.850980
4852.000000	2.855006
4850.000000	2.858798
4848.000000	2.861435
4846.000000	2.864655
4844.000000	2.869432
4842.000000	2.873668
4840.000000	2.876938
4838.000000	2.880734
4836.000000	2.884989
4834.000000	2.888031
4832.000000	2.891071
4830.000000	2.894940
4828.000000	2.898834
4826.000000	2.902221
4824.000000	2.905965
4822.000000	2.911247
4820.000000	2.916477
4818.000000	2.920205
4816.000000	2.923147
4814.000000	2.926460
4812.000000	2.929750
4810.000000	2.932662
4808.000000	2.936385
4806.000000	2.942119
4804.000000	2.947919
4802.000000	2.951740
4800.000000	2.954077
4798.000000	2.957021
4796.000000	2.960798
4794.000000	2.964763
4792.000000	2.968982
4790.000000	2.973510
4788.000000	2.977421
4786.000000	2.980521
4784.000000	2.984141
4782.000000	2.988190
4780.000000	2.991016
4778.000000	2.993598
4776.000000	2.997349
4774.000000	3.002124
4772.000000	3.006837
4770.000000	3.010563
4768.000000	3.013474
4766.000000	3.016886
4764.000000	3.022370
4762.000000	3.028104
4760.000000	3.031603
4758.000000	3.033205
4756.000000	3.035985
4754.000000	3.040373
4752.000000	3.044984
4750.000000	3.049392
4748.000000	3.053972
4746.000000	3.057964
4744.000000	3.061558
4742.000000	3.065231
4740.000000	3.068842
4738.000000	3.072538
4736.000000	3.076453
4734.000000	3.080067
4732.000000	3.083537
4730.000000	3.086895
4728.000000	3.089954
4726.000000	3.093806
4724.000000	3.098241
4722.000000	3.102539
4720.000000	3.107076
4718.000000	3.111442
4716.000000	3.114168
4714.000000	3.116978
4712.000000	3.121280
4710.000000	3.125805
4708.000000	3.129765
4706.000000	3.133601
4704.000000	3.137673
4702.000000	3.141472
4700.000000	3.145555
4698.000000	3.150223
4696.000000	3.155751
4694.000000	3.160127
4692.000000	3.162647
4690.000000	3.165023
4688.000000	3.169204
4686.000000	3.173956
4684.000000	3.178846
4682.000000	3.183479
4680.000000	3.187078
4678.000000	3.190246
4676.000000	3.194048
4674.000000	3.197444
4672.000000	3.200309
4670.000000	3.203995
4668.000000	3.208708
4666.000000	3.213294
4664.000000	3.217136
4662.000000	3.219939
4660.000000	3.223329
4658.000000	3.227988
4656.000000	3.232323
4654.000000	3.235659
4652.000000	3.239207
4650.000000	3.242248
4648.000000	3.245045
4646.000000	3.248977
4644.000000	3.253892
4642.000000	3.258448
4640.000000	3.262695
4638.000000	3.267016
4636.000000	3.271391
4634.000000	3.275416
4632.000000	3.278542
4630.000000	3.282159
4628.000000	3.287109
4626.000000	3.291983
4624.000000	3.295957
4622.000000	3.299260
4620.000000	3.302713
4618.000000	3.306123
4616.000000	3.310340
4614.000000	3.314845
4612.000000	3.319490
4610.000000	3.323166
4608.000000	3.326621
4606.000000	3.330100
4604.000000	3.334119
4602.000000	3.338779
4600.000000	3.343430
4598.000000	3.347741
4596.000000	3.352390
4594.000000	3.356875
4592.000000	3.360366
4590.000000	3.364248
4588.000000	3.369032
4586.000000	3.373798
4584.000000	3.378495
4582.000000	3.383584
4580.000000	3.387741
4578.000000	3.390269
4576.000000	3.393089
4574.000000	3.397250
4572.000000	3.401498
4570.000000	3.405090
4568.000000	3.408304
4566.000000	3.411820
4564.000000	3.416622
4562.000000	3.422235
4560.000000	3.427145
4558.000000	3.430507
4556.000000	3.433862
4554.000000	3.437807
4552.000000	3.441615
4550.000000	3.444905
4548.000000	3.448352
4546.000000	3.452282
4544.000000	3.456407
4542.000000	3.459931
4540.000000	3.463894
4538.000000	3.469052
4536.000000	3.473238
4534.000000	3.477070
4532.000000	3.481925
4530.000000	3.486723
4528.000000	3.490659
4526.000000	3.494567
4524.000000	3.498787
4522.000000	3.503306
4520.000000	3.506718
4518.000000	3.509531
4516.000000	3.513739
4514.000000	3.519084
4512.000000	3.523767
4510.000000	3.527245
4508.000000	3.531207
4506.000000	3.536870
4504.000000	3.542290
4502.000000	3.545727
4500.000000	3.548214
4498.000000	3.551963
4496.000000	3.557364
4494.000000	3.563148
4492.000000	3.567917
4490.000000	3.571750
4488.000000	3.574970
4486.000000	3.579196
4484.000000	3.584263
4482.000000	3.588250
4480.000000	3.590740
4478.000000	3.593420
4476.000000	3.597061
4474.000000	3.601685
4472.000000	3.606222
4470.000000	3.609427
4468.000000	3.612880
4466.000000	3.617746
4464.000000	3.623098
4462.000000	3.627349
4460.000000	3.630700
4458.000000	3.634271
4456.000000	3.638659
4454.000000	3.642306
4452.000000	3.645941
4450.000000	3.650473
4448.000000	3.654836
4446.000000	3.658415
4444.000000	3.661711
4442.000000	3.665352
4440.000000	3.669809
4438.000000	3.674524
4436.000000	3.679086
4434.000000	3.683278
4432.000000	3.686501
4430.000000	3.690314
4428.000000	3.695486
4426.000000	3.700440
4424.000000	3.704321
4422.000000	3.708210
4420.000000	3.712429
4418.000000	3.716620
4416.000000	3.720264
4414.000000	3.724347
4412.000000	3.728730
4410.000000	3.732340
4408.000000	3.735543
4406.000000	3.740005
4404.000000	3.745528
4402.000000	3.750459
4400.000000	3.754528
4398.000000	3.758679
4396.000000	3.763061
4394.000000	3.766857
4392.000000	3.769172
4390.000000	3.771782
4388.000000	3.776289
4386.000000	3.780752
4384.000000	3.784402
4382.000000	3.788444
4380.000000	3.791972
4378.000000	3.795279
4376.000000	3.799314
4374.000000	3.803662
4372.000000	3.808163
4370.000000	3.812648
4368.000000	3.816291
4366.000000	3.819797
4364.000000	3.823787
4362.000000	3.827787
4360.000000	3.831229
4358.000000	3.835156
4356.000000	3.840155
4354.000000	3.844963
4352.000000	3.848951
4350.000000	3.852653
4348.000000	3.856782
4346.000000	3.861283
4344.000000	3.865493
4342.000000	3.869691
4340.000000	3.874491
4338.000000	3.879053
4336.000000	3.883405
4334.000000	3.887172
4332.000000	3.889898
4330.000000	3.893460
4328.000000	3.898799
4326.000000	3.903976
4324.000000	3.908440
4322.000000	3.912983
4320.000000	3.917414
4318.000000	3.921963
4316.000000	3.926139
4314.000000	3.929094
4312.000000	3.932078
4310.000000	3.936707
4308.000000	3.942200
4306.000000	3.947556
4304.000000	3.952531
4302.000000	3.956420
4300.000000	3.960147
4298.000000	3.965594
4296.000000	3.971018
4294.000000	3.973641
4292.000000	3.975755
4290.000000	3.979880
4288.000000	3.984583
4286.000000	3.988651
4284.000000	3.993067
4282.000000	3.996548
4280.000000	3.999667
4278.000000	4.003840
4276.000000	4.008203
4274.000000	4.012480
4272.000000	4.016940
4270.000000	4.019981
4268.000000	4.022714
4266.000000	4.026419
4264.000000	4.030555
4262.000000	4.035174
4260.000000	4.040186
4258.000000	4.044803
4256.000000	4.049134
4254.000000	4.053515
4252.000000	4.057965
4250.000000	4.061886
4248.000000	4.065706
4246.000000	4.070926
4244.000000	4.076376
4242.000000	4.080342
4240.000000	4.083299
4238.000000	4.086911
4236.000000	4.091605
4234.000000	4.096109
4232.000000	4.100128
4230.000000	4.104431
4228.000000	4.108835
4226.000000	4.113232
4224.000000	4.116559
4222.000000	4.119070
4220.000000	4.123404
4218.000000	4.129410
4216.000000	4.134170
4214.000000	4.138010
4212.000000	4.142325
4210.000000	4.146714
4208.000000	4.151426
4206.000000	4.156663
4204.000000	4.161264
4202.000000	4.165115
4200.000000	4.169002
4198.000000	4.173119
4196.000000	4.177976
4194.000000	4.183814
4192.000000	4.188849
4190.000000	4.192475
4188.000000	4.196363
4186.000000	4.200428
4184.000000	4.204168
4182.000000	4.208655
4180.000000	4.214194
4178.000000	4.219826
4176.000000	4.223935
4174.000000	4.227229
4172.000000	4.231800
4170.000000	4.236469
4168.000000	4.240385
4166.000000	4.244373
4164.000000	4.248111
4162.000000	4.252031
4160.000000	4.256947
4158.000000	4.262508
4156.000000	4.267823
4154.000000	4.271689
4152.000000	4.275548
4150.000000	4.280802
4148.000000	4.285534
4146.000000	4.289288
4144.000000	4.293421
4142.000000	4.297434
4140.000000	4.300825
4138.000000	4.304623
4136.000000	4.309750
4134.000000	4.315015
4132.000000	4.319973
4130.000000	4.324956
4128.000000	4.329143
4126.000000	4.333112
4124.000000	4.338013
4122.000000	4.342743
4120.000000	4.346611
4118.000000	4.350721
4116.000000	4.355048
4114.000000	4.359710
4112.000000	4.365731
4110.000000	4.371349
4108.000000	4.375263
4106.000000	4.378855
4104.000000	4.382495
4102.000000	4.385973
4100.000000	4.389798
4098.000000	4.394238
4096.000000	4.398471
4094.000000	4.402238
4092.000000	4.407171
4090.000000	4.412750
4088.000000	4.416785
4086.000000	4.420308
4084.000000	4.425016
4082.000000	4.430250
4080.000000	4.435504
4078.000000	4.441091
4076.000000	4.445619
4074.000000	4.448485
4072.000000	4.451907
4070.000000	4.456724
4068.000000	4.461632
4066.000000	4.465722
4064.000000	4.470285
4062.000000	4.475617
4060.000000	4.480408
4058.000000	4.485210
4056.000000	4.489845
4054.000000	4.494158
4052.000000	4.498806
4050.000000	4.503561
4048.000000	4.508433
4046.000000	4.512406
4044.000000	4.515464
4042.000000	4.519745
4040.000000	4.524825
4038.000000	4.529632
4036.000000	4.534625
4034.000000	4.539596
4032.000000	4.544031
4030.000000	4.548545
4028.000000	4.553175
4026.000000	4.557264
4024.000000	4.561404
4022.000000	4.566893
4020.000000	4.572682
4018.000000	4.577325
4016.000000	4.581805
4014.000000	4.587365
4012.000000	4.592910
4010.000000	4.597007
4008.000000	4.600386
4006.000000	4.605288
4004.000000	4.610483
4002.000000	4.614778
4000.000000	4.619357
3998.000000	4.623306
3996.000000	4.626801
3994.000000	4.631595
3992.000000	4.636739
3990.000000	4.641479
3988.000000	4.646165
3986.000000	4.650527
3984.000000	4.654002
3982.000000	4.657237
3980.000000	4.661419
3978.000000	4.666102
3976.000000	4.670505
3974.000000	4.674424
3972.000000	4.678678
3970.000000	4.684317
3968.000000	4.690192
3966.000000	4.695794
3964.000000	4.700236
3962.000000	4.702770
3960.000000	4.706648
3958.000000	4.711688
3956.000000	4.716154
3954.000000	4.721463
3952.000000	4.725823
3950.000000	4.727485
3948.000000	4.729169
3946.000000	4.733219
3944.000000	4.737803
3942.000000	4.741584
3940.000000	4.747242
3938.000000	4.754417
3936.000000	4.759409
3934.000000	4.760887
3932.000000	4.760923
3930.000000	4.764620
3928.000000	4.773370
3926.000000	4.780325
3924.000000	4.782833
3922.000000	4.785616
3920.000000	4.788014
3918.000000	4.788265
3916.000000	4.792325
3914.000000	4.804130
3912.000000	4.816950
3910.000000	4.823820
3908.000000	4.824701
3906.000000	4.816119
3904.000000	4.798633
3902.000000	4.788240
3900.000000	4.793920
3898.000000	4.811717
3896.000000	4.835291
3894.000000	4.848791
3892.000000	4.842906
3890.000000	4.837084
3888.000000	4.842749
3886.000000	4.841663
3884.000000	4.838817
3882.000000	4.849876
3880.000000	4.860647
3878.000000	4.869851
3876.000000	4.880960
3874.000000	4.881464
3872.000000	4.870725
3870.000000	4.855001
3868.000000	4.854276
3866.000000	4.873151
3864.000000	4.884419
3862.000000	4.891424
3860.000000	4.908335
3858.000000	4.918122
3856.000000	4.888148
3854.000000	4.818233
3852.000000	4.787871
3850.000000	4.846263
3848.000000	4.923788
3846.000000	4.956965
3844.000000	4.956314
3842.000000	4.945524
3840.000000	4.927266
3838.000000	4.900674
3836.000000	4.896318
3834.000000	4.927724
3832.000000	4.958081
3830.000000	4.974046
3828.000000	4.987285
3826.000000	4.995214
3824.000000	4.994005
3822.000000	4.976923
3820.000000	4.960473
3818.000000	4.963081
3816.000000	4.962874
3814.000000	4.973509
3812.000000	5.013414
3810.000000	5.038014
3808.000000	5.023806
3806.000000	5.005072
3804.000000	5.005357
3802.000000	4.997042
3800.000000	4.988217
3798.000000	5.014869
3796.000000	5.047688
3794.000000	5.064949
3792.000000	5.079446
3790.000000	5.089476
3788.000000	5.093050
3786.000000	5.094124
3784.000000	5.096653
3782.000000	5.099989
3780.000000	5.098525
3778.000000	5.097398
3776.000000	5.107768
3774.000000	5.121385
3772.000000	5.121549
3770.000000	5.109894
3768.000000	5.105617
3766.000000	5.114605
3764.000000	5.126820
3762.000000	5.136008
3760.000000	5.135606
3758.000000	5.132326
3756.000000	5.135666
3754.000000	5.122335
3752.000000	5.077518
3750.000000	5.043070
3748.000000	5.054774
3746.000000	5.067712
3744.000000	5.051210
3742.000000	5.075693
3740.000000	5.141874
3738.000000	5.161467
3736.000000	5.136670
3734.000000	5.124663
3732.000000	5.140018
3730.000000	5.170975
3728.000000	5.198363
3726.000000	5.206453
3724.000000	5.208890
3722.000000	5.215622
3720.000000	5.224405
3718.000000	5.236753
3716.000000	5.244400
3714.000000	5.234272
3712.000000	5.208844
3710.000000	5.200046
3708.000000	5.224976
3706.000000	5.257121
3704.000000	5.270007
3702.000000	5.266332
3700.000000	5.267437
3698.000000	5.280383
3696.000000	5.291260
3694.000000	5.292287
3692.000000	5.279516
3690.000000	5.248651
3688.000000	5.224613
3686.000000	5.247513
3684.000000	5.296199
3682.000000	5.319495
3680.000000	5.316260
3678.000000	5.294045
3676.000000	5.253031
3674.000000	5.236254
3672.000000	5.255570
3670.000000	5.263006
3668.000000	5.277590
3666.000000	5.321621
3664.000000	5.354372
3662.000000	5.363359
3660.000000	5.364131
3658.000000	5.355789
3656.000000	5.339835
3654.000000	5.338102
3652.000000	5.335946
3650.000000	5.304089
3648.000000	5.282233
3646.000000	5.310477
3644.000000	5.356781
3642.000000	5.381704
3640.000000	5.388187
3638.000000	5.391146
3636.000000	5.392878
3634.000000	5.390786
3632.000000	5.379296
3630.000000	5.345934
3628.000000	5.318072
3626.000000	5.343198
3624.000000	5.388202
3622.000000	5.399665
3620.000000	5.382996
3618.000000	5.369892
3616.000000	5.377977
3614.000000	5.387762
3612.000000	5.385133
3610.000000	5.379579
3608.000000	5.378314
3606.000000	5.390794
3604.000000	5.410469
3602.000000	5.418357
3600.000000	5.416055
3598.000000	5.414389
3596.000000	5.413657
3594.000000	5.412427
3592.000000	5.413626
3590.000000	5.410032
3588.000000	5.395376
3586.000000	5.390375
3584.000000	5.406852
3582.000000	5.422749
3580.000000	5.426574
3578.000000	5.426503
3576.000000	5.427280
3574.000000	5.428751
3572.000000	5.428658
3570.000000	5.420867
3568.000000	5.404008
3566.000000	5.393989
3564.000000	5.402332
3562.000000	5.415095
3560.000000	5.421002
3558.000000	5.423492
3556.000000	5.424568
3554.000000	5.422655
3552.000000	5.419397
3550.000000	5.417804
3548.000000	5.415439
3546.000000	5.410602
3544.000000	5.409769
3542.000000	5.414467
3540.000000	5.417976
3538.000000	5.416094
3536.000000	5.412073
3534.000000	5.411160
3532.000000	5.410387
3530.000000	5.405885
3528.000000	5.398469
3526.000000	5.391965
3524.000000	5.387536
3522.000000	5.384824
3520.000000	5.383824
3518.000000	5.381612
3516.000000	5.378129
3514.000000	5.375040
3512.000000	5.371761
3510.000000	5.366302
3508.000000	5.359805
3506.000000	5.354715
3504.000000	5.348284
3502.000000	5.341091
3500.000000	5.337515
3498.000000	5.334700
3496.000000	5.328899
3494.000000	5.322435
3492.000000	5.317284
3490.000000	5.311579
3488.000000	5.304332
3486.000000	5.298225
3484.000000	5.293640
3482.000000	5.287121
3480.000000	5.280756
3478.000000	5.277545
3476.000000	5.274950
3474.000000	5.270945
3472.000000	5.267132
3470.000000	5.264639
3468.000000	5.262187
3466.000000	5.259239
3464.000000	5.256771
3462.000000	5.255425
3460.000000	5.254631
3458.000000	5.252842
3456.000000	5.249471
3454.000000	5.246031
3452.000000	5.242907
3450.000000	5.239124
3448.000000	5.234705
3446.000000	5.231599
3444.000000	5.230382
3442.000000	5.228615
3440.000000	5.226574
3438.000000	5.226167
3436.000000	5.228477
3434.000000	5.231102
3432.000000	5.232931
3430.000000	5.236333
3428.000000	5.241330
3426.000000	5.246398
3424.000000	5.249530
3422.000000	5.251349
3420.000000	5.254458
3418.000000	5.258126
3416.000000	5.261694
3414.000000	5.264453
3412.000000	5.265683
3410.000000	5.266795
3408.000000	5.268179
3406.000000	5.269549
3404.000000	5.269506
3402.000000	5.268576
3400.000000	5.269362
3398.000000	5.271335
3396.000000	5.273616
3394.000000	5.276320
3392.000000	5.278381
3390.000000	5.279910
3388.000000	5.282860
3386.000000	5.286528
3384.000000	5.288727
3382.000000	5.290290
3380.000000	5.292480
3378.000000	5.294740
3376.000000	5.297165
3374.000000	5.298872
3372.000000	5.299502
3370.000000	5.301084
3368.000000	5.302632
3366.000000	5.302278
3364.000000	5.303230
3362.000000	5.306685
3360.000000	5.309391
3358.000000	5.311373
3356.000000	5.313089
3354.000000	5.314097
3352.000000	5.315464
3350.000000	5.317933
3348.000000	5.320800
3346.000000	5.322959
3344.000000	5.323865
3342.000000	5.325333
3340.000000	5.327736
3338.000000	5.329471
3336.000000	5.330826
3334.000000	5.332675
3332.000000	5.335673
3330.000000	5.338144
3328.000000	5.339344
3326.000000	5.340845
3324.000000	5.342476
3322.000000	5.343900
3320.000000	5.345065
3318.000000	5.345471
3316.000000	5.347642
3314.000000	5.350621
3312.000000	5.351646
3310.000000	5.352439
3308.000000	5.353447
3306.000000	5.354566
3304.000000	5.356474
3302.000000	5.359172
3300.000000	5.361346
3298.000000	5.362119
3296.000000	5.362255
3294.000000	5.363381
3292.000000	5.365238
3290.000000	5.367558
3288.000000	5.370234
3286.000000	5.372872
3284.000000	5.375617
3282.000000	5.377171
3280.000000	5.377718
3278.000000	5.379473
3276.000000	5.380646
3274.000000	5.381135
3272.000000	5.383149
3270.000000	5.384596
3268.000000	5.384976
3266.000000	5.387431
3264.000000	5.391066
3262.000000	5.394259
3260.000000	5.396732
3258.000000	5.398577
3256.000000	5.400158
3254.000000	5.401654
3252.000000	5.403969
3250.000000	5.406897
3248.000000	5.409284
3246.000000	5.411620
3244.000000	5.414604
3242.000000	5.418018
3240.000000	5.420310
3238.000000	5.422653
3236.000000	5.425621
3234.000000	5.426600
3232.000000	5.427975
3230.000000	5.430763
3228.000000	5.433032
3226.000000	5.435757
3224.000000	5.438389
3222.000000	5.440426
3220.000000	5.442448
3218.000000	5.444310
3216.000000	5.446865
3214.000000	5.450566
3212.000000	5.453795
3210.000000	5.456152
3208.000000	5.458453
3206.000000	5.461512
3204.000000	5.465464
3202.000000	5.469057
3200.000000	5.473025
3198.000000	5.477156
3196.000000	5.480736
3194.000000	5.485266
3192.000000	5.490166
3190.000000	5.494772
3188.000000	5.499568
3186.000000	5.503788
3184.000000	5.508204
3182.000000	5.512631
3180.000000	5.516307
3178.000000	5.519852
3176.000000	5.524551
3174.000000	5.529013
3172.000000	5.532755
3170.000000	5.537229
3168.000000	5.541060
3166.000000	5.543675
3164.000000	5.547825
3162.000000	5.554025
3160.000000	5.559437
3158.000000	5.562815
3156.000000	5.566307
3154.000000	5.570107
3152.000000	5.573298
3150.000000	5.576993
3148.000000	5.581693
3146.000000	5.586727
3144.000000	5.592789
3142.000000	5.599074
3140.000000	5.602646
3138.000000	5.604379
3136.000000	5.606459
3134.000000	5.609337
3132.000000	5.612840
3130.000000	5.616412
3128.000000	5.619672
3126.000000	5.623457
3124.000000	5.626719
3122.000000	5.628919
3120.000000	5.632328
3118.000000	5.636299
3116.000000	5.639964
3114.000000	5.643414
3112.000000	5.646325
3110.000000	5.649997
3108.000000	5.654320
3106.000000	5.657699
3104.000000	5.660645
3102.000000	5.664035
3100.000000	5.668772
3098.000000	5.673586
3096.000000	5.677898
3094.000000	5.682460
3092.000000	5.686667
3090.000000	5.691626
3088.000000	5.696403
3086.000000	5.700378
3084.000000	5.703772
3082.000000	5.707049
3080.000000	5.711346
3078.000000	5.715596
3076.000000	5.719437
3074.000000	5.723492
3072.000000	5.726263
3070.000000	5.726248
3068.000000	5.725881
3066.000000	5.727159
3064.000000	5.729560
3062.000000	5.733410
3060.000000	5.738847
3058.000000	5.743360
3056.000000	5.747531
3054.000000	5.752781
3052.000000	5.758159
3050.000000	5.761267
3048.000000	5.764409
3046.000000	5.768107
3044.000000	5.769754
3042.000000	5.771701
3040.000000	5.774351
3038.000000	5.776491
3036.000000	5.777987
3034.000000	5.778682
3032.000000	5.779051
3030.000000	5.779476
3028.000000	5.778059
3026.000000	5.772876
3024.000000	5.765761
3022.000000	5.757585
3020.000000	5.750794
3018.000000	5.749220
3016.000000	5.754642
3014.000000	5.767364
3012.000000	5.785322
3010.000000	5.804917
3008.000000	5.822076
3006.000000	5.835478
3004.000000	5.845460
3002.000000	5.852045
3000.000000	5.855716
2998.000000	5.857453
2996.000000	5.860247
2994.000000	5.863614
2992.000000	5.865952
2990.000000	5.866946
2988.000000	5.866654
2986.000000	5.864553
2984.000000	5.860627
2982.000000	5.855481
2980.000000	5.847516
2978.000000	5.838001
2976.000000	5.826793
2974.000000	5.809518
2972.000000	5.784371
2970.000000	5.752031
2968.000000	5.714553
2966.000000	5.677583
2964.000000	5.646659
2962.000000	5.627886
2960.000000	5.624557
2958.000000	5.633330
2956.000000	5.649875
2954.000000	5.668277
2952.000000	5.683318
2950.000000	5.694004
2948.000000	5.698413
2946.000000	5.694410
2944.000000	5.681794
2942.000000	5.661098
2940.000000	5.633721
2938.000000	5.601314
2936.000000	5.570275
2934.000000	5.542341
2932.000000	5.516127
2930.000000	5.490617
2928.000000	5.467209
2926.000000	5.450036
2924.000000	5.445939
2922.000000	5.461647
2920.000000	5.497352
2918.000000	5.545732
2916.000000	5.599439
2914.000000	5.652025
2912.000000	5.700427
2910.000000	5.741882
2908.000000	5.773561
2906.000000	5.798222
2904.000000	5.818535
2902.000000	5.836151
2900.000000	5.853387
2898.000000	5.870440
2896.000000	5.886267
2894.000000	5.900767
2892.000000	5.915350
2890.000000	5.928641
2888.000000	5.939698
2886.000000	5.949427
2884.000000	5.956631
2882.000000	5.961556
2880.000000	5.964811
2878.000000	5.964083
2876.000000	5.959084
2874.000000	5.949936
2872.000000	5.936739
2870.000000	5.918863
2868.000000	5.894305
2866.000000	5.862212
2864.000000	5.826001
2862.000000	5.795515
2860.000000	5.780850
2858.000000	5.784092
2856.000000	5.800138
2854.000000	5.821796
2852.000000	5.845632
2850.000000	5.873645
2848.000000	5.909062
2846.000000	5.949069
2844.000000	5.986505
2842.000000	6.017721
2840.000000	6.041945
2838.000000	6.060178
2836.000000	6.075750
2834.000000	6.089783
2832.000000	6.100811
2830.000000	6.109772
2828.000000	6.117870
2826.000000	6.124521
2824.000000	6.131684
2822.000000	6.138835
2820.000000	6.144498
2818.000000	6.150048
2816.000000	6.156198
2814.000000	6.161424
2812.000000	6.164767
2810.000000	6.167070
2808.000000	6.170419
2806.000000	6.175376
2804.000000	6.179557
2802.000000	6.181837
2800.000000	6.184244
2798.000000	6.186508
2796.000000	6.188937
2794.000000	6.192514
2792.000000	6.196116
2790.000000	6.199643
2788.000000	6.204204
2786.000000	6.208395
2784.000000	6.212542
2782.000000	6.218025
2780.000000	6.224601
2778.000000	6.228585
2776.000000	6.231977
2774.000000	6.236205
2772.000000	6.240639
2770.000000	6.245438
2768.000000	6.249790
2766.000000	6.252215
2764.000000	6.254064
2762.000000	6.256842
2760.000000	6.259653
2758.000000	6.261842
2756.000000	6.264506
2754.000000	6.266515
2752.000000	6.268334
2750.000000	6.272004
2748.000000	6.275767
2746.000000	6.278426
2744.000000	6.280854
2742.000000	6.283085
2740.000000	6.284861
2738.000000	6.286437
2736.000000	6.287347
2734.000000	6.289598
2732.000000	6.291364
2730.000000	6.291943
2728.000000	6.293480
2726.000000	6.295790
2724.000000	6.296714
2722.000000	6.297520
2720.000000	6.299186
2718.000000	6.301608
2716.000000	6.303686
2714.000000	6.304292
2712.000000	6.304086
2710.000000	6.304884
2708.000000	6.305858
2706.000000	6.306483
2704.000000	6.307275
2702.000000	6.307952
2700.000000	6.309017
2698.000000	6.310661
2696.000000	6.312520
2694.000000	6.314809
2692.000000	6.316444
2690.000000	6.317768
2688.000000	6.320384
2686.000000	6.322562
2684.000000	6.323510
2682.000000	6.324185
2680.000000	6.324983
2678.000000	6.325415
2676.000000	6.326164
2674.000000	6.327306
2672.000000	6.328749
2670.000000	6.330490
2668.000000	6.330979
2666.000000	6.331110
2664.000000	6.332343
2662.000000	6.333066
2660.000000	6.333348
2658.000000	6.333850
2656.000000	6.334958
2654.000000	6.336482
2652.000000	6.338119
2650.000000	6.340043
2648.000000	6.341363
2646.000000	6.342958
2644.000000	6.345255
2642.000000	6.346857
2640.000000	6.348513
2638.000000	6.350436
2636.000000	6.351486
2634.000000	6.352565
2632.000000	6.354022
2630.000000	6.355251
2628.000000	6.356396
2626.000000	6.357829
2624.000000	6.360290
2622.000000	6.362242
2620.000000	6.362857
2618.000000	6.363731
2616.000000	6.364815
2614.000000	6.366176
2612.000000	6.368231
2610.000000	6.370048
2608.000000	6.370126
2606.000000	6.369928
2604.000000	6.369607
2602.000000	6.370807
2600.000000	6.372513
2598.000000	6.371614
2596.000000	6.371305
2594.000000	6.372820
2592.000000	6.373983
2590.000000	6.375645
2588.000000	6.377825
2586.000000	6.380261
2584.000000	6.382233
2582.000000	6.384582
2580.000000	6.389126
2578.000000	6.393089
2576.000000	6.395759
2574.000000	6.398519
2572.000000	6.401272
2570.000000	6.403816
2568.000000	6.406126
2566.000000	6.407506
2564.000000	6.409219
2562.000000	6.411025
2560.000000	6.411725
2558.000000	6.412817
2556.000000	6.415716
2554.000000	6.418316
2552.000000	6.420235
2550.000000	6.421441
2548.000000	6.421792
2546.000000	6.422169
2544.000000	6.424200
2542.000000	6.425935
2540.000000	6.427548
2538.000000	6.429654
2536.000000	6.431270
2534.000000	6.432304
2532.000000	6.433389
2530.000000	6.435584
2528.000000	6.438706
2526.000000	6.440350
2524.000000	6.441172
2522.000000	6.442573
2520.000000	6.444469
2518.000000	6.445963
2516.000000	6.446838
2514.000000	6.449225
2512.000000	6.451664
2510.000000	6.453006
2508.000000	6.453392
2506.000000	6.454141
2504.000000	6.455419
2502.000000	6.456612
2500.000000	6.458513
2498.000000	6.460461
2496.000000	6.461557
2494.000000	6.463121
2492.000000	6.465244
2490.000000	6.466326
2488.000000	6.467167
2486.000000	6.469734
2484.000000	6.472149
2482.000000	6.473532
2480.000000	6.475279
2478.000000	6.476290
2476.000000	6.477115
2474.000000	6.479129
2472.000000	6.480607
2470.000000	6.481088
2468.000000	6.482432
2466.000000	6.483737
2464.000000	6.484540
2462.000000	6.485123
2460.000000	6.486194
2458.000000	6.487583
2456.000000	6.488163
2454.000000	6.488543
2452.000000	6.488016
2450.000000	6.489194
2448.000000	6.491846
2446.000000	6.492487
2444.000000	6.493378
2442.000000	6.494843
2440.000000	6.495539
2438.000000	6.496180
2436.000000	6.497718
2434.000000	6.498669
2432.000000	6.500206
2430.000000	6.501431
2428.000000	6.501461
2426.000000	6.501000
2424.000000	6.500897
2422.000000	6.502163
2420.000000	6.503712
2418.000000	6.504949
2416.000000	6.505794
2414.000000	6.506704
2412.000000	6.508265
2410.000000	6.509515
2408.000000	6.509383
2406.000000	6.509258
2404.000000	6.510540
2402.000000	6.513141
2400.000000	6.514903
2398.000000	6.515859
2396.000000	6.517426
2394.000000	6.518230
2392.000000	6.518066
2390.000000	6.518457
2388.000000	6.520116
2386.000000	6.521872
2384.000000	6.522619
2382.000000	6.520949
2380.000000	6.517599
2378.000000	6.511376
2376.000000	6.501903
2374.000000	6.488967
2372.000000	6.473067
2370.000000	6.456638
2368.000000	6.441103
2366.000000	6.427467
2364.000000	6.416330
2362.000000	6.409491
2360.000000	6.410683
2358.000000	6.419309
2356.000000	6.433966
2354.000000	6.454007
2352.000000	6.478093
2350.000000	6.500441
2348.000000	6.508341
2346.000000	6.495350
2344.000000	6.471922
2342.000000	6.446644
2340.000000	6.426441
2338.000000	6.418509
2336.000000	6.424507
2334.000000	6.435500
2332.000000	6.444263
2330.000000	6.451153
2328.000000	6.458943
2326.000000	6.467818
2324.000000	6.476568
2322.000000	6.485406
2320.000000	6.493667
2318.000000	6.501787
2316.000000	6.507906
2314.000000	6.512334
2312.000000	6.516053
2310.000000	6.520080
2308.000000	6.524654
2306.000000	6.529115
2304.000000	6.531032
2302.000000	6.532261
2300.000000	6.535382
2298.000000	6.538305
2296.000000	6.539349
2294.000000	6.538896
2292.000000	6.539438
2290.000000	6.540807
2288.000000	6.542683
2286.000000	6.543934
2284.000000	6.544715
2282.000000	6.543472
2280.000000	6.542235
2278.000000	6.542439
2276.000000	6.541827
2274.000000	6.540705
2272.000000	6.540144
2270.000000	6.540666
2268.000000	6.542146
2266.000000	6.542850
2264.000000	6.541436
2262.000000	6.540946
2260.000000	6.541251
2258.000000	6.541128
2256.000000	6.542372
2254.000000	6.544028
2252.000000	6.545259
2250.000000	6.546219
2248.000000	6.546028
2246.000000	6.546631
2244.000000	6.549192
2242.000000	6.552422
2240.000000	6.554031
2238.000000	6.554318
2236.000000	6.555446
2234.000000	6.556788
2232.000000	6.557013
2230.000000	6.558077
2228.000000	6.560557
2226.000000	6.561624
2224.000000	6.562294
2222.000000	6.563612
2220.000000	6.565886
2218.000000	6.566374
2216.000000	6.566482
2214.000000	6.569067
2212.000000	6.571974
2210.000000	6.572877
2208.000000	6.572308
2206.000000	6.571104
2204.000000	6.571777
2202.000000	6.573745
2200.000000	6.574055
2198.000000	6.574705
2196.000000	6.576635
2194.000000	6.577812
2192.000000	6.578648
2190.000000	6.578902
2188.000000	6.579278
2186.000000	6.579041
2184.000000	6.577346
2182.000000	6.577195
2180.000000	6.579372
2178.000000	6.582389
2176.000000	6.586261
2174.000000	6.587130
2172.000000	6.586349
2170.000000	6.583193
2168.000000	6.580830
2166.000000	6.582237
2164.000000	6.584577
2162.000000	6.586908
2160.000000	6.587311
2158.000000	6.586532
2156.000000	6.587425
2154.000000	6.589089
2152.000000	6.591127
2150.000000	6.592456
2148.000000	6.592110
2146.000000	6.592860
2144.000000	6.593532
2142.000000	6.592337
2140.000000	6.591916
2138.000000	6.593575
2136.000000	6.595908
2134.000000	6.597567
2132.000000	6.597777
2130.000000	6.596750
2128.000000	6.597203
2126.000000	6.598198
2124.000000	6.598081
2122.000000	6.597011
2120.000000	6.598957
2118.000000	6.600509
2116.000000	6.599381
2114.000000	6.600653
2112.000000	6.603271
2110.000000	6.604253
2108.000000	6.605012
2106.000000	6.605894
2104.000000	6.606695
2102.000000	6.608211
2100.000000	6.610608
2098.000000	6.612653
2096.000000	6.613822
2094.000000	6.613835
2092.000000	6.613318
2090.000000	6.614028
2088.000000	6.616030
2086.000000	6.617711
2084.000000	6.620308
2082.000000	6.622688
2080.000000	6.623832
2078.000000	6.625009
2076.000000	6.625325
2074.000000	6.626851
2072.000000	6.629549
2070.000000	6.631638
2068.000000	6.633082
2066.000000	6.634279
2064.000000	6.634992
2062.000000	6.635868
2060.000000	6.638187
2058.000000	6.641813
2056.000000	6.643842
2054.000000	6.645425
2052.000000	6.648406
2050.000000	6.650066
2048.000000	6.650459
2046.000000	6.651451
2044.000000	6.653167
2042.000000	6.654256
2040.000000	6.656277
2038.000000	6.658147
2036.000000	6.659039
2034.000000	6.660913
2032.000000	6.663555
2030.000000	6.663222
2028.000000	6.662400
2026.000000	6.664726
2024.000000	6.666182
2022.000000	6.668090
2020.000000	6.668589
2018.000000	6.665958
2016.000000	6.666487
2014.000000	6.671296
2012.000000	6.673635
2010.000000	6.674125
2008.000000	6.675222
2006.000000	6.676510
2004.000000	6.678107
2002.000000	6.679544
2000.000000	6.680363
1998.000000	6.680295
1996.000000	6.680725
1994.000000	6.679297
1992.000000	6.674828
1990.000000	6.675827
1988.000000	6.679649
1986.000000	6.682008
1984.000000	6.683987
1982.000000	6.683429
1980.000000	6.682498
1978.000000	6.681778
1976.000000	6.681702
1974.000000	6.680592
1972.000000	6.679138
1970.000000	6.677550
1968.000000	6.672999
1966.000000	6.669704
1964.000000	6.671787
1962.000000	6.671454
1960.000000	6.663675
1958.000000	6.657395
1956.000000	6.662067
1954.000000	6.665991
1952.000000	6.665753
1950.000000	6.663636
1948.000000	6.661374
1946.000000	6.658439
1944.000000	6.652298
1942.000000	6.646741
1940.000000	6.650684
1938.000000	6.653827
1936.000000	6.652547
1934.000000	6.650683
1932.000000	6.649207
1930.000000	6.647095
1928.000000	6.645696
1926.000000	6.644282
1924.000000	6.637196
1922.000000	6.629745
1920.000000	6.624971
1918.000000	6.613481
1916.000000	6.614869
1914.000000	6.624345
1912.000000	6.622197
1910.000000	6.615048
1908.000000	6.611415
1906.000000	6.610370
1904.000000	6.607300
1902.000000	6.604145
1900.000000	6.601365
1898.000000	6.597616
1896.000000	6.592483
1894.000000	6.589288
1892.000000	6.586827
1890.000000	6.578224
1888.000000	6.575930
1886.000000	6.582428
1884.000000	6.584073
1882.000000	6.583907
1880.000000	6.583874
1878.000000	6.582371
1876.000000	6.579368
1874.000000	6.577701
1872.000000	6.571665
1870.000000	6.550517
1868.000000	6.537534
1866.000000	6.551367
1864.000000	6.564189
1862.000000	6.566939
1860.000000	6.565140
1858.000000	6.562677
1856.000000	6.560416
1854.000000	6.559060
1852.000000	6.557336
1850.000000	6.553715
1848.000000	6.545132
1846.000000	6.520129
1844.000000	6.487172
1842.000000	6.502829
1840.000000	6.531663
1838.000000	6.532158
1836.000000	6.527288
1834.000000	6.523706
1832.000000	6.510343
1830.000000	6.486748
1828.000000	6.485379
1826.000000	6.487532
1824.000000	6.482852
1822.000000	6.492066
1820.000000	6.494720
1818.000000	6.488669
1816.000000	6.483363
1814.000000	6.479746
1812.000000	6.469319
1810.000000	6.458907
1808.000000	6.456876
1806.000000	6.456158
1804.000000	6.447983
1802.000000	6.430293
1800.000000	6.414947
1798.000000	6.415053
1796.000000	6.414404
1794.000000	6.385938
1792.000000	6.349617
1790.000000	6.363481
1788.000000	6.388443
1786.000000	6.379875
1784.000000	6.365003
1782.000000	6.361696
1780.000000	6.353977
1778.000000	6.350093
1776.000000	6.338494
1774.000000	6.292346
1772.000000	6.243531
1770.000000	6.260641
1768.000000	6.283316
1766.000000	6.297841
1764.000000	6.301033
1762.000000	6.271812
1760.000000	6.264771
1758.000000	6.267696
1756.000000	6.255732
1754.000000	6.248786
1752.000000	6.207948
1750.000000	6.175248
1748.000000	6.187093
1746.000000	6.198582
1744.000000	6.194434
1742.000000	6.174710
1740.000000	6.145763
1738.000000	6.141072
1736.000000	6.109646
1734.000000	6.024180
1732.000000	6.047748
1730.000000	6.120070
1728.000000	6.142459
1726.000000	6.146268
1724.000000	6.138875
1722.000000	6.131294
1720.000000	6.093336
1718.000000	6.005190
1716.000000	5.983281
1714.000000	6.043093
1712.000000	6.083778
1710.000000	6.090536
1708.000000	6.071672
1706.000000	6.042441
1704.000000	6.026503
1702.000000	5.977801
1700.000000	5.890064
1698.000000	5.902133
1696.000000	5.899117
1694.000000	5.939229
1692.000000	6.025127
1690.000000	6.033791
1688.000000	6.013818
1686.000000	5.930831
1684.000000	5.845962
1682.000000	5.912728
1680.000000	5.992895
1678.000000	5.997828
1676.000000	5.956746
1674.000000	5.936516
1672.000000	5.951863
1670.000000	5.925268
1668.000000	5.923754
1666.000000	5.956801
1664.000000	5.947767
1662.000000	5.923535
1660.000000	5.937511
1658.000000	5.942846
1656.000000	5.891088
1654.000000	5.735633
1652.000000	5.671509
1650.000000	5.798736
1648.000000	5.835143
1646.000000	5.793564
1644.000000	5.825617
1642.000000	5.868375
1640.000000	5.863439
1638.000000	5.821019
1636.000000	5.740316
1634.000000	5.736696
1632.000000	5.798920
1630.000000	5.804882
1628.000000	5.777473
1626.000000	5.754105
1624.000000	5.717011
1622.000000	5.689456
1620.000000	5.679818
1618.000000	5.611840
1616.000000	5.547453
1614.000000	5.570271
1612.000000	5.570226
1610.000000	5.526919
1608.000000	5.499113
1606.000000	5.495884
1604.000000	5.506649
1602.000000	5.520612
1600.000000	5.536810
1598.000000	5.549754
1596.000000	5.559280
1594.000000	5.565958
1592.000000	5.571676
1590.000000	5.573101
1588.000000	5.572191
1586.000000	5.568320
1584.000000	5.562894
1582.000000	5.557619
1580.000000	5.551754
1578.000000	5.506649
1576.000000	5.441124
1574.000000	5.477236
1572.000000	5.522358
1570.000000	5.490007
1568.000000	5.483334
1566.000000	5.496350
1564.000000	5.485150
1562.000000	5.427709
1560.000000	5.287557
1558.000000	5.232662
1556.000000	5.328474
1554.000000	5.395636
1552.000000	5.439980
1550.000000	5.467846
1548.000000	5.481140
1546.000000	5.475656
1544.000000	5.447281
1542.000000	5.398190
1540.000000	5.346371
1538.000000	5.400392
1536.000000	5.511328
1534.000000	5.528354
1532.000000	5.538030
1530.000000	5.568274
1528.000000	5.563488
1526.000000	5.539062
1524.000000	5.518253
1522.000000	5.468156
1520.000000	5.454417
1518.000000	5.490910
1516.000000	5.496261
1514.000000	5.499060
1512.000000	5.488646
1510.000000	5.461129
1508.000000	5.373353
1506.000000	5.293244
1504.000000	5.329937
1502.000000	5.336900
1500.000000	5.207285
1498.000000	4.997370
1496.000000	4.808254
1494.000000	4.757390
1492.000000	4.812676
1490.000000	4.905894
1488.000000	5.027619
1486.000000	5.142541
1484.000000	5.224185
1482.000000	5.266348
1480.000000	5.285507
1478.000000	5.283575
1476.000000	5.257181
1474.000000	5.213858
1472.000000	5.187251
1470.000000	5.215263
1468.000000	5.228322
1466.000000	5.190590
1464.000000	5.156863
1462.000000	5.150378
1460.000000	5.100761
1458.000000	4.977168
1456.000000	4.887366
1454.000000	4.891711
1452.000000	4.879810
1450.000000	4.870067
1448.000000	4.908936
1446.000000	4.975400
1444.000000	5.019156
1442.000000	5.030811
1440.000000	5.027492
1438.000000	4.996348
1436.000000	4.975860
1434.000000	5.014700
1432.000000	5.034074
1430.000000	5.027000
1428.000000	5.029202
1426.000000	5.032973
1424.000000	5.026437
1422.000000	5.014052
1420.000000	4.970500
1418.000000	4.953706
1416.000000	4.980329
1414.000000	4.984237
1412.000000	4.964723
1410.000000	4.935845
1408.000000	4.894790
1406.000000	4.839832
1404.000000	4.800663
1402.000000	4.797945
1400.000000	4.805309
1398.000000	4.823650
1396.000000	4.848178
1394.000000	4.867305
1392.000000	4.898260
1390.000000	4.909996
1388.000000	4.888219
1386.000000	4.868222
1384.000000	4.865771
1382.000000	4.872274
1380.000000	4.880121
1378.000000	4.877861
1376.000000	4.867192
1374.000000	4.853683
1372.000000	4.853324
1370.000000	4.852972
1368.000000	4.844296
1366.000000	4.834797
1364.000000	4.818735
1362.000000	4.803636
1360.000000	4.801552
1358.000000	4.799025
1356.000000	4.788671
1354.000000	4.775051
1352.000000	4.763084
1350.000000	4.750952
1348.000000	4.737510
1346.000000	4.722397
1344.000000	4.707196
1342.000000	4.690021
1340.000000	4.671853
1338.000000	4.661195
1336.000000	4.659102
1334.000000	4.657305
1332.000000	4.650295
1330.000000	4.637811
1328.000000	4.623992
1326.000000	4.609304
1324.000000	4.593461
1322.000000	4.575721
1320.000000	4.556845
1318.000000	4.538287
1316.000000	4.520194
1314.000000	4.501229
1312.000000	4.482768
1310.000000	4.464691
1308.000000	4.445739
1306.000000	4.425695
1304.000000	4.404458
1302.000000	4.382678
1300.000000	4.361663
1298.000000	4.341577
1296.000000	4.320644
1294.000000	4.297307
1292.000000	4.273024
1290.000000	4.248388
1288.000000	4.222315
1286.000000	4.196714
1284.000000	4.171722
1282.000000	4.144443
1280.000000	4.115602
1278.000000	4.084041
1276.000000	4.048653
1274.000000	4.008678
1272.000000	3.962327
1270.000000	3.905513
1268.000000	3.832071
1266.000000	3.738924
1264.000000	3.634874
1262.000000	3.543729
1260.000000	3.491279
1258.000000	3.486343
1256.000000	3.513772
1254.000000	3.543897
1252.000000	3.557685
1250.000000	3.550948
1248.000000	3.530373
1246.000000	3.502795
1244.000000	3.471406
1242.000000	3.437980
1240.000000	3.403748
1238.000000	3.370050
1236.000000	3.337522
1234.000000	3.307335
1232.000000	3.277844
1230.000000	3.247102
1228.000000	3.216568
1226.000000	3.186520
1224.000000	3.156210
1222.000000	3.124822
1220.000000	3.093040
1218.000000	3.059618
1216.000000	3.025247
1214.000000	2.991399
1212.000000	2.959353
1210.000000	2.928363
1208.000000	2.899796
1206.000000	2.873062
1204.000000	2.845934
1202.000000	2.819652
1200.000000	2.794861
1198.000000	2.769462
1196.000000	2.742467
1194.000000	2.714434
1192.000000	2.686006
1190.000000	2.657295
1188.000000	2.627811
1186.000000	2.597898
1184.000000	2.562372
1182.000000	2.515885
1180.000000	2.474733
1178.000000	2.453907
1176.000000	2.438577
1174.000000	2.415498
1172.000000	2.387034
1170.000000	2.357569
1168.000000	2.327994
1166.000000	2.296947
1164.000000	2.266605
1162.000000	2.236674
1160.000000	2.206490
1158.000000	2.177204
1156.000000	2.149553
1154.000000	2.122920
1152.000000	2.095891
1150.000000	2.068168
1148.000000	2.039819
1146.000000	2.011671
1144.000000	1.985370
1142.000000	1.960596
1140.000000	1.939490
1138.000000	1.920197
1136.000000	1.899225
1134.000000	1.874656
1132.000000	1.848419
1130.000000	1.820890
1128.000000	1.793204
1126.000000	1.767060
1124.000000	1.742018
1122.000000	1.715166
1120.000000	1.687025
1118.000000	1.658236
1116.000000	1.629925
1114.000000	1.599696
1112.000000	1.569295
1110.000000	1.540780
1108.000000	1.511708
1106.000000	1.482460
1104.000000	1.454793
1102.000000	1.428246
1100.000000	1.403085
1098.000000	1.378437
1096.000000	1.353979
1094.000000	1.330402
1092.000000	1.307822
1090.000000	1.286406
1088.000000	1.266444
1086.000000	1.247401
1084.000000	1.228528
1082.000000	1.208083
1080.000000	1.188541
1078.000000	1.171179
1076.000000	1.155262
1074.000000	1.141470
1072.000000	1.128866
1070.000000	1.115864
1068.000000	1.102813
1066.000000	1.090500
1064.000000	1.076929
1062.000000	1.062674
1060.000000	1.049330
1058.000000	1.034393
1056.000000	1.014963
1054.000000	0.987037
1052.000000	0.956097
1050.000000	0.935618
1048.000000	0.931552
1046.000000	0.937183
1044.000000	0.939926
1042.000000	0.934679
1040.000000	0.925584
1038.000000	0.913819
1036.000000	0.900424
1034.000000	0.886883
1032.000000	0.872370
1030.000000	0.858162
1028.000000	0.843616
1026.000000	0.827157
1024.000000	0.811095
1022.000000	0.796189
1020.000000	0.781148
1018.000000	0.766498
1016.000000	0.755442
1014.000000	0.746812
1012.000000	0.738522
1010.000000	0.731047
1008.000000	0.724293
1006.000000	0.716668
1004.000000	0.706774
1002.000000	0.699666
1000.000000	0.690005
