PE IR       SUBTECH     SPECTRUM    ASCII       PEDS        4.00        
   -1
TE110A_058_80K_AFTER_120K_2MIN.ASC
20/05/14
14:27:06.00
20/05/14
14:27:06.00
Administrator
TE110A.Thursday, May 14 2020, 006.
1000.000000
#HDR
-1
-1
#GR
cm-1
A
1.0
0.0
6000.000000
-2.000000
2501
8
1.227418
1.175385
#DATA
6000.000000	1.205887
5998.000000	1.206490
5996.000000	1.206715
5994.000000	1.206297
5992.000000	1.205807
5990.000000	1.205698
5988.000000	1.205848
5986.000000	1.205886
5984.000000	1.205710
5982.000000	1.205370
5980.000000	1.205273
5978.000000	1.205567
5976.000000	1.205716
5974.000000	1.205653
5972.000000	1.205448
5970.000000	1.205377
5968.000000	1.205582
5966.000000	1.205420
5964.000000	1.205106
5962.000000	1.205010
5960.000000	1.205086
5958.000000	1.205088
5956.000000	1.204992
5954.000000	1.204952
5952.000000	1.204831
5950.000000	1.204787
5948.000000	1.204716
5946.000000	1.204952
5944.000000	1.205253
5942.000000	1.205180
5940.000000	1.204883
5938.000000	1.204615
5936.000000	1.204725
5934.000000	1.204899
5932.000000	1.204892
5930.000000	1.204649
5928.000000	1.204564
5926.000000	1.204516
5924.000000	1.204540
5922.000000	1.204621
5920.000000	1.204692
5918.000000	1.204608
5916.000000	1.204366
5914.000000	1.204329
5912.000000	1.204477
5910.000000	1.204650
5908.000000	1.204614
5906.000000	1.204465
5904.000000	1.204420
5902.000000	1.204556
5900.000000	1.204704
5898.000000	1.204632
5896.000000	1.204540
5894.000000	1.204365
5892.000000	1.204307
5890.000000	1.204243
5888.000000	1.204028
5886.000000	1.203998
5884.000000	1.204014
5882.000000	1.204241
5880.000000	1.204283
5878.000000	1.204111
5876.000000	1.203904
5874.000000	1.203898
5872.000000	1.204012
5870.000000	1.203833
5868.000000	1.203421
5866.000000	1.203220
5864.000000	1.203327
5862.000000	1.203452
5860.000000	1.203386
5858.000000	1.203450
5856.000000	1.203664
5854.000000	1.203724
5852.000000	1.203549
5850.000000	1.203254
5848.000000	1.203201
5846.000000	1.203202
5844.000000	1.203184
5842.000000	1.203191
5840.000000	1.203074
5838.000000	1.203222
5836.000000	1.203324
5834.000000	1.203196
5832.000000	1.202963
5830.000000	1.202807
5828.000000	1.203157
5826.000000	1.203456
5824.000000	1.203553
5822.000000	1.203356
5820.000000	1.203236
5818.000000	1.203266
5816.000000	1.203443
5814.000000	1.203248
5812.000000	1.202931
5810.000000	1.202703
5808.000000	1.202795
5806.000000	1.203051
5804.000000	1.203070
5802.000000	1.203009
5800.000000	1.202897
5798.000000	1.202838
5796.000000	1.202863
5794.000000	1.202808
5792.000000	1.202800
5790.000000	1.202863
5788.000000	1.202859
5786.000000	1.202993
5784.000000	1.203007
5782.000000	1.202932
5780.000000	1.202808
5778.000000	1.202610
5776.000000	1.202523
5774.000000	1.202682
5772.000000	1.202611
5770.000000	1.202471
5768.000000	1.202345
5766.000000	1.202308
5764.000000	1.202375
5762.000000	1.202182
5760.000000	1.202010
5758.000000	1.202011
5756.000000	1.202105
5754.000000	1.202210
5752.000000	1.202289
5750.000000	1.202166
5748.000000	1.201909
5746.000000	1.201711
5744.000000	1.201654
5742.000000	1.201619
5740.000000	1.201543
5738.000000	1.201550
5736.000000	1.201775
5734.000000	1.201768
5732.000000	1.201590
5730.000000	1.201495
5728.000000	1.201758
5726.000000	1.201940
5724.000000	1.201887
5722.000000	1.201721
5720.000000	1.201486
5718.000000	1.201354
5716.000000	1.201205
5714.000000	1.201339
5712.000000	1.201418
5710.000000	1.201439
5708.000000	1.201530
5706.000000	1.201560
5704.000000	1.201466
5702.000000	1.201274
5700.000000	1.201181
5698.000000	1.201057
5696.000000	1.201034
5694.000000	1.201269
5692.000000	1.201529
5690.000000	1.201678
5688.000000	1.201648
5686.000000	1.201572
5684.000000	1.201657
5682.000000	1.201667
5680.000000	1.201501
5678.000000	1.201111
5676.000000	1.200812
5674.000000	1.200934
5672.000000	1.201265
5670.000000	1.201351
5668.000000	1.201065
5666.000000	1.200833
5664.000000	1.200723
5662.000000	1.200831
5660.000000	1.200768
5658.000000	1.200555
5656.000000	1.200514
5654.000000	1.200580
5652.000000	1.200693
5650.000000	1.200663
5648.000000	1.200516
5646.000000	1.200290
5644.000000	1.200409
5642.000000	1.200731
5640.000000	1.201068
5638.000000	1.200984
5636.000000	1.200658
5634.000000	1.200590
5632.000000	1.200737
5630.000000	1.200759
5628.000000	1.200643
5626.000000	1.200443
5624.000000	1.200457
5622.000000	1.200613
5620.000000	1.200702
5618.000000	1.200622
5616.000000	1.200368
5614.000000	1.200208
5612.000000	1.200299
5610.000000	1.200447
5608.000000	1.200436
5606.000000	1.200374
5604.000000	1.200427
5602.000000	1.200544
5600.000000	1.200506
5598.000000	1.200327
5596.000000	1.200224
5594.000000	1.200110
5592.000000	1.199901
5590.000000	1.199695
5588.000000	1.199676
5586.000000	1.199871
5584.000000	1.199961
5582.000000	1.199973
5580.000000	1.199880
5578.000000	1.199877
5576.000000	1.199957
5574.000000	1.199955
5572.000000	1.199964
5570.000000	1.199917
5568.000000	1.199754
5566.000000	1.199670
5564.000000	1.199598
5562.000000	1.199577
5560.000000	1.199528
5558.000000	1.199566
5556.000000	1.199747
5554.000000	1.199787
5552.000000	1.199655
5550.000000	1.199517
5548.000000	1.199633
5546.000000	1.199725
5544.000000	1.199744
5542.000000	1.199642
5540.000000	1.199548
5538.000000	1.199393
5536.000000	1.199319
5534.000000	1.199263
5532.000000	1.199223
5530.000000	1.199211
5528.000000	1.199326
5526.000000	1.199431
5524.000000	1.199268
5522.000000	1.199164
5520.000000	1.199122
5518.000000	1.199116
5516.000000	1.199109
5514.000000	1.199199
5512.000000	1.199182
5510.000000	1.198957
5508.000000	1.198793
5506.000000	1.198764
5504.000000	1.198805
5502.000000	1.198815
5500.000000	1.198980
5498.000000	1.198953
5496.000000	1.198681
5494.000000	1.198350
5492.000000	1.198398
5490.000000	1.198591
5488.000000	1.198655
5486.000000	1.198574
5484.000000	1.198546
5482.000000	1.198493
5480.000000	1.198275
5478.000000	1.198098
5476.000000	1.198282
5474.000000	1.198563
5472.000000	1.198662
5470.000000	1.198429
5468.000000	1.198295
5466.000000	1.198375
5464.000000	1.198417
5462.000000	1.198335
5460.000000	1.198173
5458.000000	1.198208
5456.000000	1.198388
5454.000000	1.198326
5452.000000	1.198170
5450.000000	1.197878
5448.000000	1.197704
5446.000000	1.197662
5444.000000	1.197865
5442.000000	1.198325
5440.000000	1.198576
5438.000000	1.198284
5436.000000	1.197887
5434.000000	1.197628
5432.000000	1.197514
5430.000000	1.197461
5428.000000	1.197852
5426.000000	1.198413
5424.000000	1.198536
5422.000000	1.198171
5420.000000	1.197822
5418.000000	1.197493
5416.000000	1.197016
5414.000000	1.196832
5412.000000	1.197096
5410.000000	1.197637
5408.000000	1.197989
5406.000000	1.198058
5404.000000	1.197993
5402.000000	1.197795
5400.000000	1.197393
5398.000000	1.196958
5396.000000	1.196826
5394.000000	1.197287
5392.000000	1.197772
5390.000000	1.197815
5388.000000	1.197518
5386.000000	1.197473
5384.000000	1.197630
5382.000000	1.197633
5380.000000	1.197155
5378.000000	1.196934
5376.000000	1.197148
5374.000000	1.197523
5372.000000	1.197793
5370.000000	1.197807
5368.000000	1.197687
5366.000000	1.197427
5364.000000	1.197316
5362.000000	1.197361
5360.000000	1.197388
5358.000000	1.197033
5356.000000	1.196472
5354.000000	1.196320
5352.000000	1.196804
5350.000000	1.197183
5348.000000	1.196807
5346.000000	1.196513
5344.000000	1.196713
5342.000000	1.196795
5340.000000	1.196524
5338.000000	1.196520
5336.000000	1.196980
5334.000000	1.197393
5332.000000	1.197330
5330.000000	1.197063
5328.000000	1.196945
5326.000000	1.196992
5324.000000	1.197124
5322.000000	1.197048
5320.000000	1.196843
5318.000000	1.196732
5316.000000	1.196703
5314.000000	1.196693
5312.000000	1.196631
5310.000000	1.196627
5308.000000	1.196707
5306.000000	1.196819
5304.000000	1.196796
5302.000000	1.196675
5300.000000	1.196727
5298.000000	1.196818
5296.000000	1.196795
5294.000000	1.196512
5292.000000	1.196407
5290.000000	1.196522
5288.000000	1.196611
5286.000000	1.196668
5284.000000	1.196656
5282.000000	1.196635
5280.000000	1.196503
5278.000000	1.196415
5276.000000	1.196427
5274.000000	1.196420
5272.000000	1.196370
5270.000000	1.196384
5268.000000	1.196329
5266.000000	1.196091
5264.000000	1.195985
5262.000000	1.196274
5260.000000	1.196577
5258.000000	1.196456
5256.000000	1.196195
5254.000000	1.196242
5252.000000	1.196358
5250.000000	1.196201
5248.000000	1.196034
5246.000000	1.196222
5244.000000	1.196485
5242.000000	1.196522
5240.000000	1.196427
5238.000000	1.196319
5236.000000	1.196176
5234.000000	1.196066
5232.000000	1.196046
5230.000000	1.196074
5228.000000	1.196084
5226.000000	1.196224
5224.000000	1.196381
5222.000000	1.196384
5220.000000	1.196247
5218.000000	1.196181
5216.000000	1.196253
5214.000000	1.196194
5212.000000	1.195896
5210.000000	1.195599
5208.000000	1.195618
5206.000000	1.195946
5204.000000	1.196283
5202.000000	1.196336
5200.000000	1.196108
5198.000000	1.195923
5196.000000	1.195890
5194.000000	1.195973
5192.000000	1.195999
5190.000000	1.196020
5188.000000	1.195957
5186.000000	1.195805
5184.000000	1.195741
5182.000000	1.195800
5180.000000	1.195820
5178.000000	1.195817
5176.000000	1.195811
5174.000000	1.195804
5172.000000	1.195751
5170.000000	1.195745
5168.000000	1.195764
5166.000000	1.195709
5164.000000	1.195712
5162.000000	1.195873
5160.000000	1.195987
5158.000000	1.195874
5156.000000	1.195697
5154.000000	1.195720
5152.000000	1.195815
5150.000000	1.195822
5148.000000	1.195805
5146.000000	1.195813
5144.000000	1.195864
5142.000000	1.195898
5140.000000	1.195969
5138.000000	1.195984
5136.000000	1.195975
5134.000000	1.195957
5132.000000	1.195938
5130.000000	1.195826
5128.000000	1.195748
5126.000000	1.195879
5124.000000	1.195983
5122.000000	1.195874
5120.000000	1.195811
5118.000000	1.195954
5116.000000	1.196012
5114.000000	1.195757
5112.000000	1.195600
5110.000000	1.195706
5108.000000	1.195891
5106.000000	1.195829
5104.000000	1.195765
5102.000000	1.195773
5100.000000	1.195737
5098.000000	1.195688
5096.000000	1.195774
5094.000000	1.195904
5092.000000	1.195798
5090.000000	1.195629
5088.000000	1.195570
5086.000000	1.195620
5084.000000	1.195704
5082.000000	1.195707
5080.000000	1.195740
5078.000000	1.195780
5076.000000	1.195841
5074.000000	1.195870
5072.000000	1.195800
5070.000000	1.195614
5068.000000	1.195520
5066.000000	1.195605
5064.000000	1.195703
5062.000000	1.195768
5060.000000	1.195854
5058.000000	1.195843
5056.000000	1.195687
5054.000000	1.195708
5052.000000	1.195880
5050.000000	1.195967
5048.000000	1.195826
5046.000000	1.195744
5044.000000	1.195816
5042.000000	1.195902
5040.000000	1.195841
5038.000000	1.195858
5036.000000	1.196048
5034.000000	1.196169
5032.000000	1.196047
5030.000000	1.195875
5028.000000	1.195821
5026.000000	1.195790
5024.000000	1.195742
5022.000000	1.195679
5020.000000	1.195664
5018.000000	1.195756
5016.000000	1.195837
5014.000000	1.195723
5012.000000	1.195542
5010.000000	1.195490
5008.000000	1.195659
5006.000000	1.195746
5004.000000	1.195703
5002.000000	1.195645
5000.000000	1.195663
4998.000000	1.195692
4996.000000	1.195667
4994.000000	1.195572
4992.000000	1.195458
4990.000000	1.195529
4988.000000	1.195682
4986.000000	1.195682
4984.000000	1.195604
4982.000000	1.195548
4980.000000	1.195488
4978.000000	1.195504
4976.000000	1.195593
4974.000000	1.195682
4972.000000	1.195751
4970.000000	1.195751
4968.000000	1.195688
4966.000000	1.195729
4964.000000	1.195830
4962.000000	1.195836
4960.000000	1.195742
4958.000000	1.195734
4956.000000	1.195809
4954.000000	1.195836
4952.000000	1.195762
4950.000000	1.195693
4948.000000	1.195673
4946.000000	1.195716
4944.000000	1.195806
4942.000000	1.195915
4940.000000	1.195950
4938.000000	1.195906
4936.000000	1.195787
4934.000000	1.195753
4932.000000	1.195919
4930.000000	1.196099
4928.000000	1.196107
4926.000000	1.196014
4924.000000	1.195855
4922.000000	1.195710
4920.000000	1.195669
4918.000000	1.195704
4916.000000	1.195687
4914.000000	1.195679
4912.000000	1.195697
4910.000000	1.195642
4908.000000	1.195624
4906.000000	1.195731
4904.000000	1.195864
4902.000000	1.195861
4900.000000	1.195686
4898.000000	1.195553
4896.000000	1.195633
4894.000000	1.195812
4892.000000	1.195824
4890.000000	1.195708
4888.000000	1.195704
4886.000000	1.195753
4884.000000	1.195769
4882.000000	1.195718
4880.000000	1.195754
4878.000000	1.195768
4876.000000	1.195706
4874.000000	1.195661
4872.000000	1.195768
4870.000000	1.195991
4868.000000	1.196134
4866.000000	1.196069
4864.000000	1.195873
4862.000000	1.195769
4860.000000	1.195781
4858.000000	1.195877
4856.000000	1.195935
4854.000000	1.195917
4852.000000	1.195823
4850.000000	1.195790
4848.000000	1.195861
4846.000000	1.195954
4844.000000	1.195922
4842.000000	1.195832
4840.000000	1.195836
4838.000000	1.195885
4836.000000	1.195856
4834.000000	1.195780
4832.000000	1.195779
4830.000000	1.195871
4828.000000	1.195945
4826.000000	1.195914
4824.000000	1.195848
4822.000000	1.195821
4820.000000	1.195836
4818.000000	1.195877
4816.000000	1.195894
4814.000000	1.195865
4812.000000	1.195778
4810.000000	1.195637
4808.000000	1.195462
4806.000000	1.195444
4804.000000	1.195610
4802.000000	1.195807
4800.000000	1.195844
4798.000000	1.195747
4796.000000	1.195648
4794.000000	1.195699
4792.000000	1.195798
4790.000000	1.195772
4788.000000	1.195617
4786.000000	1.195569
4784.000000	1.195698
4782.000000	1.195771
4780.000000	1.195735
4778.000000	1.195700
4776.000000	1.195649
4774.000000	1.195617
4772.000000	1.195701
4770.000000	1.195812
4768.000000	1.195851
4766.000000	1.195882
4764.000000	1.195864
4762.000000	1.195790
4760.000000	1.195709
4758.000000	1.195615
4756.000000	1.195557
4754.000000	1.195670
4752.000000	1.195795
4750.000000	1.195759
4748.000000	1.195724
4746.000000	1.195772
4744.000000	1.195740
4742.000000	1.195646
4740.000000	1.195597
4738.000000	1.195574
4736.000000	1.195605
4734.000000	1.195707
4732.000000	1.195734
4730.000000	1.195605
4728.000000	1.195442
4726.000000	1.195386
4724.000000	1.195413
4722.000000	1.195462
4720.000000	1.195525
4718.000000	1.195606
4716.000000	1.195665
4714.000000	1.195675
4712.000000	1.195685
4710.000000	1.195725
4708.000000	1.195764
4706.000000	1.195742
4704.000000	1.195650
4702.000000	1.195544
4700.000000	1.195532
4698.000000	1.195606
4696.000000	1.195612
4694.000000	1.195554
4692.000000	1.195548
4690.000000	1.195584
4688.000000	1.195585
4686.000000	1.195570
4684.000000	1.195582
4682.000000	1.195581
4680.000000	1.195575
4678.000000	1.195565
4676.000000	1.195508
4674.000000	1.195433
4672.000000	1.195440
4670.000000	1.195536
4668.000000	1.195609
4666.000000	1.195588
4664.000000	1.195569
4662.000000	1.195599
4660.000000	1.195619
4658.000000	1.195596
4656.000000	1.195604
4654.000000	1.195585
4652.000000	1.195591
4650.000000	1.195676
4648.000000	1.195738
4646.000000	1.195693
4644.000000	1.195640
4642.000000	1.195575
4640.000000	1.195505
4638.000000	1.195525
4636.000000	1.195610
4634.000000	1.195661
4632.000000	1.195683
4630.000000	1.195730
4628.000000	1.195739
4626.000000	1.195726
4624.000000	1.195712
4622.000000	1.195669
4620.000000	1.195588
4618.000000	1.195587
4616.000000	1.195602
4614.000000	1.195568
4612.000000	1.195509
4610.000000	1.195489
4608.000000	1.195551
4606.000000	1.195637
4604.000000	1.195620
4602.000000	1.195598
4600.000000	1.195687
4598.000000	1.195731
4596.000000	1.195651
4594.000000	1.195599
4592.000000	1.195624
4590.000000	1.195627
4588.000000	1.195656
4586.000000	1.195703
4584.000000	1.195657
4582.000000	1.195604
4580.000000	1.195612
4578.000000	1.195624
4576.000000	1.195665
4574.000000	1.195728
4572.000000	1.195745
4570.000000	1.195762
4568.000000	1.195774
4566.000000	1.195768
4564.000000	1.195740
4562.000000	1.195645
4560.000000	1.195543
4558.000000	1.195607
4556.000000	1.195768
4554.000000	1.195735
4552.000000	1.195578
4550.000000	1.195604
4548.000000	1.195741
4546.000000	1.195795
4544.000000	1.195798
4542.000000	1.195762
4540.000000	1.195654
4538.000000	1.195532
4536.000000	1.195517
4534.000000	1.195600
4532.000000	1.195625
4530.000000	1.195590
4528.000000	1.195598
4526.000000	1.195593
4524.000000	1.195547
4522.000000	1.195570
4520.000000	1.195588
4518.000000	1.195564
4516.000000	1.195552
4514.000000	1.195523
4512.000000	1.195443
4510.000000	1.195435
4508.000000	1.195432
4506.000000	1.195428
4504.000000	1.195506
4502.000000	1.195557
4500.000000	1.195494
4498.000000	1.195451
4496.000000	1.195493
4494.000000	1.195501
4492.000000	1.195409
4490.000000	1.195347
4488.000000	1.195438
4486.000000	1.195594
4484.000000	1.195672
4482.000000	1.195642
4480.000000	1.195577
4478.000000	1.195618
4476.000000	1.195718
4474.000000	1.195726
4472.000000	1.195624
4470.000000	1.195565
4468.000000	1.195574
4466.000000	1.195555
4464.000000	1.195571
4462.000000	1.195694
4460.000000	1.195733
4458.000000	1.195596
4456.000000	1.195492
4454.000000	1.195535
4452.000000	1.195576
4450.000000	1.195541
4448.000000	1.195528
4446.000000	1.195577
4444.000000	1.195582
4442.000000	1.195563
4440.000000	1.195520
4438.000000	1.195461
4436.000000	1.195439
4434.000000	1.195511
4432.000000	1.195603
4430.000000	1.195639
4428.000000	1.195612
4426.000000	1.195493
4424.000000	1.195286
4422.000000	1.195231
4420.000000	1.195405
4418.000000	1.195487
4416.000000	1.195414
4414.000000	1.195399
4412.000000	1.195432
4410.000000	1.195466
4408.000000	1.195511
4406.000000	1.195507
4404.000000	1.195437
4402.000000	1.195387
4400.000000	1.195403
4398.000000	1.195406
4396.000000	1.195347
4394.000000	1.195318
4392.000000	1.195352
4390.000000	1.195332
4388.000000	1.195289
4386.000000	1.195285
4384.000000	1.195327
4382.000000	1.195376
4380.000000	1.195460
4378.000000	1.195504
4376.000000	1.195478
4374.000000	1.195433
4372.000000	1.195386
4370.000000	1.195358
4368.000000	1.195376
4366.000000	1.195359
4364.000000	1.195304
4362.000000	1.195320
4360.000000	1.195409
4358.000000	1.195498
4356.000000	1.195482
4354.000000	1.195380
4352.000000	1.195335
4350.000000	1.195332
4348.000000	1.195309
4346.000000	1.195306
4344.000000	1.195289
4342.000000	1.195301
4340.000000	1.195383
4338.000000	1.195384
4336.000000	1.195282
4334.000000	1.195255
4332.000000	1.195258
4330.000000	1.195187
4328.000000	1.195086
4326.000000	1.195030
4324.000000	1.195045
4322.000000	1.195128
4320.000000	1.195131
4318.000000	1.195027
4316.000000	1.194967
4314.000000	1.195045
4312.000000	1.195125
4310.000000	1.195159
4308.000000	1.195202
4306.000000	1.195219
4304.000000	1.195182
4302.000000	1.195151
4300.000000	1.195050
4298.000000	1.194870
4296.000000	1.194751
4294.000000	1.194809
4292.000000	1.194949
4290.000000	1.195027
4288.000000	1.194996
4286.000000	1.194965
4284.000000	1.194974
4282.000000	1.194957
4280.000000	1.194871
4278.000000	1.194878
4276.000000	1.194985
4274.000000	1.195018
4272.000000	1.194985
4270.000000	1.195012
4268.000000	1.195007
4266.000000	1.194983
4264.000000	1.195000
4262.000000	1.195012
4260.000000	1.194963
4258.000000	1.194847
4256.000000	1.194769
4254.000000	1.194846
4252.000000	1.194935
4250.000000	1.194947
4248.000000	1.194900
4246.000000	1.194870
4244.000000	1.194896
4242.000000	1.194920
4240.000000	1.194838
4238.000000	1.194690
4236.000000	1.194594
4234.000000	1.194593
4232.000000	1.194580
4230.000000	1.194562
4228.000000	1.194521
4226.000000	1.194474
4224.000000	1.194538
4222.000000	1.194611
4220.000000	1.194543
4218.000000	1.194457
4216.000000	1.194380
4214.000000	1.194351
4212.000000	1.194432
4210.000000	1.194455
4208.000000	1.194347
4206.000000	1.194261
4204.000000	1.194293
4202.000000	1.194381
4200.000000	1.194386
4198.000000	1.194311
4196.000000	1.194248
4194.000000	1.194269
4192.000000	1.194348
4190.000000	1.194332
4188.000000	1.194226
4186.000000	1.194241
4184.000000	1.194344
4182.000000	1.194329
4180.000000	1.194252
4178.000000	1.194235
4176.000000	1.194192
4174.000000	1.194146
4172.000000	1.194163
4170.000000	1.194162
4168.000000	1.194133
4166.000000	1.194168
4164.000000	1.194204
4162.000000	1.194176
4160.000000	1.194100
4158.000000	1.194031
4156.000000	1.193990
4154.000000	1.193983
4152.000000	1.193948
4150.000000	1.193881
4148.000000	1.193821
4146.000000	1.193846
4144.000000	1.193883
4142.000000	1.193802
4140.000000	1.193696
4138.000000	1.193711
4136.000000	1.193757
4134.000000	1.193794
4132.000000	1.193745
4130.000000	1.193603
4128.000000	1.193560
4126.000000	1.193632
4124.000000	1.193636
4122.000000	1.193582
4120.000000	1.193515
4118.000000	1.193456
4116.000000	1.193402
4114.000000	1.193369
4112.000000	1.193356
4110.000000	1.193335
4108.000000	1.193290
4106.000000	1.193276
4104.000000	1.193252
4102.000000	1.193184
4100.000000	1.193108
4098.000000	1.193125
4096.000000	1.193199
4094.000000	1.193250
4092.000000	1.193245
4090.000000	1.193194
4088.000000	1.193123
4086.000000	1.193138
4084.000000	1.193176
4082.000000	1.193108
4080.000000	1.193012
4078.000000	1.192970
4076.000000	1.192958
4074.000000	1.193040
4072.000000	1.193086
4070.000000	1.193022
4068.000000	1.192967
4066.000000	1.192934
4064.000000	1.192855
4062.000000	1.192756
4060.000000	1.192685
4058.000000	1.192661
4056.000000	1.192642
4054.000000	1.192621
4052.000000	1.192612
4050.000000	1.192584
4048.000000	1.192539
4046.000000	1.192511
4044.000000	1.192458
4042.000000	1.192427
4040.000000	1.192418
4038.000000	1.192336
4036.000000	1.192231
4034.000000	1.192190
4032.000000	1.192156
4030.000000	1.192078
4028.000000	1.192004
4026.000000	1.192013
4024.000000	1.192018
4022.000000	1.192011
4020.000000	1.192028
4018.000000	1.191978
4016.000000	1.191866
4014.000000	1.191799
4012.000000	1.191758
4010.000000	1.191735
4008.000000	1.191791
4006.000000	1.191865
4004.000000	1.191824
4002.000000	1.191725
4000.000000	1.191666
3998.000000	1.191680
3996.000000	1.191697
3994.000000	1.191677
3992.000000	1.191663
3990.000000	1.191673
3988.000000	1.191643
3986.000000	1.191585
3984.000000	1.191542
3982.000000	1.191543
3980.000000	1.191553
3978.000000	1.191447
3976.000000	1.191292
3974.000000	1.191271
3972.000000	1.191295
3970.000000	1.191284
3968.000000	1.191294
3966.000000	1.191274
3964.000000	1.191146
3962.000000	1.191064
3960.000000	1.191083
3958.000000	1.191047
3956.000000	1.190956
3954.000000	1.190859
3952.000000	1.190628
3950.000000	1.190408
3948.000000	1.190442
3946.000000	1.190360
3944.000000	1.190108
3942.000000	1.190315
3940.000000	1.190624
3938.000000	1.190514
3936.000000	1.190127
3934.000000	1.189670
3932.000000	1.189741
3930.000000	1.190260
3928.000000	1.190201
3926.000000	1.189813
3924.000000	1.189813
3922.000000	1.189628
3920.000000	1.189014
3918.000000	1.189055
3916.000000	1.190014
3914.000000	1.190578
3912.000000	1.190342
3910.000000	1.189897
3908.000000	1.188686
3906.000000	1.186859
3904.000000	1.186256
3902.000000	1.187072
3900.000000	1.188359
3898.000000	1.189794
3896.000000	1.189950
3894.000000	1.188265
3892.000000	1.187547
3890.000000	1.188420
3888.000000	1.187576
3886.000000	1.186864
3884.000000	1.188283
3882.000000	1.188510
3880.000000	1.188552
3878.000000	1.189238
3876.000000	1.188369
3874.000000	1.186802
3872.000000	1.185192
3870.000000	1.185564
3868.000000	1.187524
3866.000000	1.187415
3864.000000	1.187326
3862.000000	1.188593
3860.000000	1.188657
3858.000000	1.185016
3856.000000	1.178304
3854.000000	1.177887
3852.000000	1.186199
3850.000000	1.191341
3848.000000	1.190017
3846.000000	1.187773
3844.000000	1.186615
3842.000000	1.185187
3840.000000	1.182669
3838.000000	1.182943
3836.000000	1.186493
3834.000000	1.187969
3832.000000	1.187646
3830.000000	1.187880
3828.000000	1.187748
3826.000000	1.187027
3824.000000	1.184915
3822.000000	1.183617
3820.000000	1.184873
3818.000000	1.184289
3816.000000	1.184785
3814.000000	1.188647
3812.000000	1.189199
3810.000000	1.186016
3808.000000	1.184228
3806.000000	1.185349
3804.000000	1.184263
3802.000000	1.182944
3800.000000	1.186134
3798.000000	1.187930
3796.000000	1.187534
3794.000000	1.188042
3792.000000	1.188130
3790.000000	1.187822
3788.000000	1.187544
3786.000000	1.187350
3784.000000	1.187327
3782.000000	1.186802
3780.000000	1.186491
3778.000000	1.187347
3776.000000	1.187788
3774.000000	1.186922
3772.000000	1.185521
3770.000000	1.185298
3768.000000	1.186123
3766.000000	1.186531
3764.000000	1.186647
3762.000000	1.185821
3760.000000	1.185033
3758.000000	1.185512
3756.000000	1.184259
3754.000000	1.180069
3752.000000	1.177939
3750.000000	1.180718
3748.000000	1.181715
3746.000000	1.178491
3744.000000	1.181245
3742.000000	1.187173
3740.000000	1.185552
3738.000000	1.181346
3736.000000	1.180884
3734.000000	1.182651
3732.000000	1.184681
3730.000000	1.185945
3728.000000	1.185056
3726.000000	1.184269
3724.000000	1.184619
3722.000000	1.185000
3720.000000	1.185453
3718.000000	1.185504
3716.000000	1.184040
3714.000000	1.181358
3712.000000	1.181204
3710.000000	1.184066
3708.000000	1.185945
3706.000000	1.185559
3704.000000	1.184212
3702.000000	1.184025
3700.000000	1.185070
3698.000000	1.185272
3696.000000	1.184629
3694.000000	1.183263
3692.000000	1.180540
3690.000000	1.178837
3688.000000	1.181771
3686.000000	1.185570
3684.000000	1.185379
3682.000000	1.183692
3680.000000	1.181619
3678.000000	1.178079
3676.000000	1.177535
3674.000000	1.180391
3672.000000	1.179881
3670.000000	1.180244
3668.000000	1.183808
3666.000000	1.184697
3664.000000	1.183696
3662.000000	1.183162
3660.000000	1.182114
3658.000000	1.180478
3656.000000	1.180885
3654.000000	1.181080
3652.000000	1.177662
3650.000000	1.176147
3648.000000	1.179686
3646.000000	1.182887
3644.000000	1.182954
3642.000000	1.182165
3640.000000	1.181869
3638.000000	1.181559
3636.000000	1.181014
3634.000000	1.180139
3632.000000	1.177451
3630.000000	1.175385
3628.000000	1.178733
3626.000000	1.182146
3624.000000	1.181104
3622.000000	1.178704
3620.000000	1.177835
3618.000000	1.179165
3616.000000	1.179710
3614.000000	1.178761
3612.000000	1.178164
3610.000000	1.178042
3608.000000	1.179091
3606.000000	1.180367
3604.000000	1.180117
3602.000000	1.179391
3600.000000	1.179182
3598.000000	1.179007
3596.000000	1.178821
3594.000000	1.179086
3592.000000	1.178741
3590.000000	1.177290
3588.000000	1.177069
3586.000000	1.178682
3584.000000	1.179606
3582.000000	1.179315
3580.000000	1.179027
3578.000000	1.178948
3576.000000	1.178858
3574.000000	1.178798
3572.000000	1.178339
3570.000000	1.177063
3568.000000	1.176499
3566.000000	1.177773
3564.000000	1.178811
3562.000000	1.178695
3560.000000	1.178607
3558.000000	1.178715
3556.000000	1.178537
3554.000000	1.178260
3552.000000	1.178345
3550.000000	1.178372
3548.000000	1.177978
3546.000000	1.178005
3544.000000	1.178556
3542.000000	1.178888
3540.000000	1.178837
3538.000000	1.178686
3536.000000	1.178748
3534.000000	1.178902
3532.000000	1.178792
3530.000000	1.178594
3528.000000	1.178591
3526.000000	1.178690
3524.000000	1.178857
3522.000000	1.179235
3520.000000	1.179477
3518.000000	1.179514
3516.000000	1.179613
3514.000000	1.179661
3512.000000	1.179618
3510.000000	1.179756
3508.000000	1.180029
3506.000000	1.179984
3504.000000	1.179895
3502.000000	1.180277
3500.000000	1.180686
3498.000000	1.180834
3496.000000	1.181022
3494.000000	1.181250
3492.000000	1.181365
3490.000000	1.181527
3488.000000	1.181834
3486.000000	1.182084
3484.000000	1.182149
3482.000000	1.182312
3480.000000	1.182750
3478.000000	1.183166
3476.000000	1.183444
3474.000000	1.183804
3472.000000	1.184165
3470.000000	1.184356
3468.000000	1.184545
3466.000000	1.184924
3464.000000	1.185383
3462.000000	1.185768
3460.000000	1.186130
3458.000000	1.186496
3456.000000	1.186796
3454.000000	1.187104
3452.000000	1.187483
3450.000000	1.187788
3448.000000	1.188067
3446.000000	1.188553
3444.000000	1.189110
3442.000000	1.189646
3440.000000	1.190124
3438.000000	1.190483
3436.000000	1.190845
3434.000000	1.191304
3432.000000	1.191832
3430.000000	1.192321
3428.000000	1.192793
3426.000000	1.193195
3424.000000	1.193470
3422.000000	1.193747
3420.000000	1.194177
3418.000000	1.194574
3416.000000	1.194810
3414.000000	1.195020
3412.000000	1.195270
3410.000000	1.195492
3408.000000	1.195752
3406.000000	1.196103
3404.000000	1.196333
3402.000000	1.196357
3400.000000	1.196424
3398.000000	1.196703
3396.000000	1.196990
3394.000000	1.197073
3392.000000	1.197185
3390.000000	1.197493
3388.000000	1.197726
3386.000000	1.197818
3384.000000	1.197955
3382.000000	1.198166
3380.000000	1.198342
3378.000000	1.198451
3376.000000	1.198503
3374.000000	1.198533
3372.000000	1.198592
3370.000000	1.198704
3368.000000	1.198853
3366.000000	1.198980
3364.000000	1.199103
3362.000000	1.199275
3360.000000	1.199405
3358.000000	1.199474
3356.000000	1.199588
3354.000000	1.199646
3352.000000	1.199621
3350.000000	1.199675
3348.000000	1.199818
3346.000000	1.199876
3344.000000	1.199838
3342.000000	1.199903
3340.000000	1.200004
3338.000000	1.200033
3336.000000	1.200080
3334.000000	1.200177
3332.000000	1.200234
3330.000000	1.200309
3328.000000	1.200392
3326.000000	1.200454
3324.000000	1.200558
3322.000000	1.200637
3320.000000	1.200677
3318.000000	1.200713
3316.000000	1.200738
3314.000000	1.200795
3312.000000	1.200847
3310.000000	1.200830
3308.000000	1.200816
3306.000000	1.200879
3304.000000	1.201063
3302.000000	1.201254
3300.000000	1.201273
3298.000000	1.201201
3296.000000	1.201168
3294.000000	1.201255
3292.000000	1.201387
3290.000000	1.201464
3288.000000	1.201494
3286.000000	1.201504
3284.000000	1.201545
3282.000000	1.201617
3280.000000	1.201675
3278.000000	1.201721
3276.000000	1.201692
3274.000000	1.201660
3272.000000	1.201696
3270.000000	1.201832
3268.000000	1.202019
3266.000000	1.202076
3264.000000	1.202101
3262.000000	1.202199
3260.000000	1.202210
3258.000000	1.202171
3256.000000	1.202206
3254.000000	1.202319
3252.000000	1.202464
3250.000000	1.202471
3248.000000	1.202364
3246.000000	1.202345
3244.000000	1.202492
3242.000000	1.202607
3240.000000	1.202694
3238.000000	1.202767
3236.000000	1.202749
3234.000000	1.202722
3232.000000	1.202814
3230.000000	1.202986
3228.000000	1.203082
3226.000000	1.203168
3224.000000	1.203250
3222.000000	1.203322
3220.000000	1.203377
3218.000000	1.203411
3216.000000	1.203460
3214.000000	1.203508
3212.000000	1.203527
3210.000000	1.203576
3208.000000	1.203712
3206.000000	1.203807
3204.000000	1.203777
3202.000000	1.203751
3200.000000	1.203754
3198.000000	1.203791
3196.000000	1.203874
3194.000000	1.203921
3192.000000	1.203926
3190.000000	1.203902
3188.000000	1.203899
3186.000000	1.203909
3184.000000	1.203924
3182.000000	1.203971
3180.000000	1.204052
3178.000000	1.204158
3176.000000	1.204191
3174.000000	1.204167
3172.000000	1.204182
3170.000000	1.204218
3168.000000	1.204280
3166.000000	1.204354
3164.000000	1.204431
3162.000000	1.204502
3160.000000	1.204543
3158.000000	1.204579
3156.000000	1.204605
3154.000000	1.204533
3152.000000	1.204492
3150.000000	1.204594
3148.000000	1.204725
3146.000000	1.204812
3144.000000	1.204853
3142.000000	1.204922
3140.000000	1.204958
3138.000000	1.204986
3136.000000	1.205059
3134.000000	1.205144
3132.000000	1.205232
3130.000000	1.205290
3128.000000	1.205329
3126.000000	1.205281
3124.000000	1.205272
3122.000000	1.205293
3120.000000	1.205210
3118.000000	1.205172
3116.000000	1.205289
3114.000000	1.205451
3112.000000	1.205497
3110.000000	1.205435
3108.000000	1.205404
3106.000000	1.205416
3104.000000	1.205398
3102.000000	1.205354
3100.000000	1.205373
3098.000000	1.205406
3096.000000	1.205420
3094.000000	1.205425
3092.000000	1.205337
3090.000000	1.205237
3088.000000	1.205187
3086.000000	1.205119
3084.000000	1.204965
3082.000000	1.204814
3080.000000	1.204780
3078.000000	1.204805
3076.000000	1.204839
3074.000000	1.204806
3072.000000	1.204678
3070.000000	1.204525
3068.000000	1.204440
3066.000000	1.204430
3064.000000	1.204453
3062.000000	1.204428
3060.000000	1.204367
3058.000000	1.204318
3056.000000	1.204254
3054.000000	1.204208
3052.000000	1.204105
3050.000000	1.204014
3048.000000	1.204006
3046.000000	1.203940
3044.000000	1.203853
3042.000000	1.203794
3040.000000	1.203761
3038.000000	1.203706
3036.000000	1.203585
3034.000000	1.203515
3032.000000	1.203547
3030.000000	1.203487
3028.000000	1.203310
3026.000000	1.203150
3024.000000	1.203056
3022.000000	1.203112
3020.000000	1.203317
3018.000000	1.203557
3016.000000	1.203702
3014.000000	1.203772
3012.000000	1.203856
3010.000000	1.203875
3008.000000	1.203777
3006.000000	1.203618
3004.000000	1.203554
3002.000000	1.203518
3000.000000	1.203302
2998.000000	1.203102
2996.000000	1.203012
2994.000000	1.202930
2992.000000	1.202881
2990.000000	1.202841
2988.000000	1.202791
2986.000000	1.202812
2984.000000	1.202786
2982.000000	1.202683
2980.000000	1.202558
2978.000000	1.202508
2976.000000	1.202501
2974.000000	1.202418
2972.000000	1.202357
2970.000000	1.202420
2968.000000	1.202680
2966.000000	1.203206
2964.000000	1.203918
2962.000000	1.204552
2960.000000	1.204837
2958.000000	1.204745
2956.000000	1.204429
2954.000000	1.204004
2952.000000	1.203531
2950.000000	1.203052
2948.000000	1.202563
2946.000000	1.202086
2944.000000	1.201650
2942.000000	1.201268
2940.000000	1.201009
2938.000000	1.200953
2936.000000	1.201088
2934.000000	1.201217
2932.000000	1.201243
2930.000000	1.201287
2928.000000	1.201543
2926.000000	1.202140
2924.000000	1.202948
2922.000000	1.203767
2920.000000	1.204405
2918.000000	1.204683
2916.000000	1.204618
2914.000000	1.204295
2912.000000	1.203893
2910.000000	1.203536
2908.000000	1.203203
2906.000000	1.203018
2904.000000	1.202931
2902.000000	1.202804
2900.000000	1.202676
2898.000000	1.202616
2896.000000	1.202562
2894.000000	1.202440
2892.000000	1.202303
2890.000000	1.202191
2888.000000	1.202095
2886.000000	1.201973
2884.000000	1.201831
2882.000000	1.201653
2880.000000	1.201472
2878.000000	1.201287
2876.000000	1.201078
2874.000000	1.200839
2872.000000	1.200626
2870.000000	1.200310
2868.000000	1.199916
2866.000000	1.199699
2864.000000	1.199837
2862.000000	1.200388
2860.000000	1.201106
2858.000000	1.201664
2856.000000	1.201963
2854.000000	1.202154
2852.000000	1.202358
2850.000000	1.202572
2848.000000	1.202718
2846.000000	1.202642
2844.000000	1.202415
2842.000000	1.202151
2840.000000	1.201918
2838.000000	1.201704
2836.000000	1.201598
2834.000000	1.201516
2832.000000	1.201409
2830.000000	1.201373
2828.000000	1.201378
2826.000000	1.201316
2824.000000	1.201269
2822.000000	1.201252
2820.000000	1.201207
2818.000000	1.201151
2816.000000	1.201059
2814.000000	1.200981
2812.000000	1.200984
2810.000000	1.200992
2808.000000	1.200970
2806.000000	1.200939
2804.000000	1.200957
2802.000000	1.200946
2800.000000	1.200882
2798.000000	1.200865
2796.000000	1.200870
2794.000000	1.200840
2792.000000	1.200799
2790.000000	1.200791
2788.000000	1.200837
2786.000000	1.200879
2784.000000	1.200831
2782.000000	1.200779
2780.000000	1.200774
2778.000000	1.200720
2776.000000	1.200650
2774.000000	1.200630
2772.000000	1.200679
2770.000000	1.200654
2768.000000	1.200597
2766.000000	1.200575
2764.000000	1.200616
2762.000000	1.200604
2760.000000	1.200561
2758.000000	1.200579
2756.000000	1.200602
2754.000000	1.200598
2752.000000	1.200602
2750.000000	1.200590
2748.000000	1.200600
2746.000000	1.200656
2744.000000	1.200683
2742.000000	1.200684
2740.000000	1.200713
2738.000000	1.200750
2736.000000	1.200722
2734.000000	1.200680
2732.000000	1.200690
2730.000000	1.200730
2728.000000	1.200784
2726.000000	1.200862
2724.000000	1.200953
2722.000000	1.200968
2720.000000	1.200965
2718.000000	1.200972
2716.000000	1.200998
2714.000000	1.201062
2712.000000	1.201154
2710.000000	1.201259
2708.000000	1.201309
2706.000000	1.201318
2704.000000	1.201358
2702.000000	1.201417
2700.000000	1.201552
2698.000000	1.201692
2696.000000	1.201766
2694.000000	1.201822
2692.000000	1.201903
2690.000000	1.201928
2688.000000	1.201987
2686.000000	1.202104
2684.000000	1.202166
2682.000000	1.202169
2680.000000	1.202226
2678.000000	1.202347
2676.000000	1.202429
2674.000000	1.202484
2672.000000	1.202521
2670.000000	1.202524
2668.000000	1.202591
2666.000000	1.202700
2664.000000	1.202808
2662.000000	1.202923
2660.000000	1.203055
2658.000000	1.203136
2656.000000	1.203170
2654.000000	1.203139
2652.000000	1.203160
2650.000000	1.203280
2648.000000	1.203392
2646.000000	1.203436
2644.000000	1.203437
2642.000000	1.203456
2640.000000	1.203512
2638.000000	1.203559
2636.000000	1.203580
2634.000000	1.203594
2632.000000	1.203610
2630.000000	1.203596
2628.000000	1.203632
2626.000000	1.203687
2624.000000	1.203709
2622.000000	1.203728
2620.000000	1.203753
2618.000000	1.203773
2616.000000	1.203792
2614.000000	1.203798
2612.000000	1.203831
2610.000000	1.203876
2608.000000	1.203870
2606.000000	1.203850
2604.000000	1.203873
2602.000000	1.203912
2600.000000	1.203982
2598.000000	1.204016
2596.000000	1.204012
2594.000000	1.204032
2592.000000	1.204070
2590.000000	1.204073
2588.000000	1.204098
2586.000000	1.204162
2584.000000	1.204245
2582.000000	1.204300
2580.000000	1.204307
2578.000000	1.204332
2576.000000	1.204346
2574.000000	1.204319
2572.000000	1.204285
2570.000000	1.204279
2568.000000	1.204325
2566.000000	1.204353
2564.000000	1.204379
2562.000000	1.204385
2560.000000	1.204417
2558.000000	1.204433
2556.000000	1.204399
2554.000000	1.204375
2552.000000	1.204376
2550.000000	1.204391
2548.000000	1.204442
2546.000000	1.204478
2544.000000	1.204496
2542.000000	1.204472
2540.000000	1.204456
2538.000000	1.204422
2536.000000	1.204424
2534.000000	1.204420
2532.000000	1.204382
2530.000000	1.204406
2528.000000	1.204426
2526.000000	1.204405
2524.000000	1.204440
2522.000000	1.204434
2520.000000	1.204392
2518.000000	1.204375
2516.000000	1.204366
2514.000000	1.204369
2512.000000	1.204380
2510.000000	1.204344
2508.000000	1.204335
2506.000000	1.204353
2504.000000	1.204361
2502.000000	1.204362
2500.000000	1.204392
2498.000000	1.204384
2496.000000	1.204352
2494.000000	1.204307
2492.000000	1.204289
2490.000000	1.204307
2488.000000	1.204331
2486.000000	1.204309
2484.000000	1.204332
2482.000000	1.204363
2480.000000	1.204348
2478.000000	1.204294
2476.000000	1.204254
2474.000000	1.204259
2472.000000	1.204348
2470.000000	1.204413
2468.000000	1.204424
2466.000000	1.204352
2464.000000	1.204270
2462.000000	1.204278
2460.000000	1.204330
2458.000000	1.204322
2456.000000	1.204294
2454.000000	1.204314
2452.000000	1.204332
2450.000000	1.204281
2448.000000	1.204287
2446.000000	1.204326
2444.000000	1.204359
2442.000000	1.204308
2440.000000	1.204248
2438.000000	1.204230
2436.000000	1.204260
2434.000000	1.204261
2432.000000	1.204239
2430.000000	1.204230
2428.000000	1.204230
2426.000000	1.204241
2424.000000	1.204234
2422.000000	1.204213
2420.000000	1.204245
2418.000000	1.204266
2416.000000	1.204308
2414.000000	1.204295
2412.000000	1.204261
2410.000000	1.204217
2408.000000	1.204191
2406.000000	1.204152
2404.000000	1.204137
2402.000000	1.204125
2400.000000	1.204121
2398.000000	1.204087
2396.000000	1.204089
2394.000000	1.204135
2392.000000	1.204074
2390.000000	1.203990
2388.000000	1.203980
2386.000000	1.203953
2384.000000	1.203908
2382.000000	1.203743
2380.000000	1.203525
2378.000000	1.203307
2376.000000	1.203001
2374.000000	1.202589
2372.000000	1.202214
2370.000000	1.201914
2368.000000	1.201648
2366.000000	1.201425
2364.000000	1.201384
2362.000000	1.201496
2360.000000	1.201736
2358.000000	1.202083
2356.000000	1.202513
2354.000000	1.202982
2352.000000	1.203452
2350.000000	1.203447
2348.000000	1.202795
2346.000000	1.202286
2344.000000	1.202429
2342.000000	1.203086
2340.000000	1.203865
2338.000000	1.204081
2336.000000	1.203694
2334.000000	1.203185
2332.000000	1.202960
2330.000000	1.202979
2328.000000	1.203015
2326.000000	1.203053
2324.000000	1.203173
2322.000000	1.203277
2320.000000	1.203363
2318.000000	1.203425
2316.000000	1.203502
2314.000000	1.203615
2312.000000	1.203777
2310.000000	1.203856
2308.000000	1.203831
2306.000000	1.203816
2304.000000	1.203864
2302.000000	1.203848
2300.000000	1.203862
2298.000000	1.203883
2296.000000	1.203905
2294.000000	1.203873
2292.000000	1.203854
2290.000000	1.203912
2288.000000	1.203908
2286.000000	1.203903
2284.000000	1.203956
2282.000000	1.203904
2280.000000	1.203896
2278.000000	1.203975
2276.000000	1.203990
2274.000000	1.203931
2272.000000	1.203923
2270.000000	1.203866
2268.000000	1.203772
2266.000000	1.203796
2264.000000	1.203883
2262.000000	1.203828
2260.000000	1.203764
2258.000000	1.203743
2256.000000	1.203761
2254.000000	1.203741
2252.000000	1.203610
2250.000000	1.203509
2248.000000	1.203521
2246.000000	1.203504
2244.000000	1.203463
2242.000000	1.203370
2240.000000	1.203393
2238.000000	1.203449
2236.000000	1.203408
2234.000000	1.203294
2232.000000	1.203169
2230.000000	1.203112
2228.000000	1.203058
2226.000000	1.203001
2224.000000	1.203039
2222.000000	1.202985
2220.000000	1.202907
2218.000000	1.202876
2216.000000	1.202873
2214.000000	1.202824
2212.000000	1.202722
2210.000000	1.202649
2208.000000	1.202594
2206.000000	1.202535
2204.000000	1.202582
2202.000000	1.202618
2200.000000	1.202517
2198.000000	1.202389
2196.000000	1.202371
2194.000000	1.202332
2192.000000	1.202326
2190.000000	1.202311
2188.000000	1.202277
2186.000000	1.202225
2184.000000	1.202157
2182.000000	1.202083
2180.000000	1.202063
2178.000000	1.202036
2176.000000	1.202036
2174.000000	1.201913
2172.000000	1.201777
2170.000000	1.201752
2168.000000	1.201757
2166.000000	1.201710
2164.000000	1.201709
2162.000000	1.201634
2160.000000	1.201545
2158.000000	1.201489
2156.000000	1.201454
2154.000000	1.201426
2152.000000	1.201434
2150.000000	1.201389
2148.000000	1.201324
2146.000000	1.201218
2144.000000	1.201121
2142.000000	1.201045
2140.000000	1.201033
2138.000000	1.200995
2136.000000	1.200938
2134.000000	1.200883
2132.000000	1.200880
2130.000000	1.200793
2128.000000	1.200759
2126.000000	1.200777
2124.000000	1.200748
2122.000000	1.200660
2120.000000	1.200579
2118.000000	1.200532
2116.000000	1.200495
2114.000000	1.200427
2112.000000	1.200441
2110.000000	1.200468
2108.000000	1.200378
2106.000000	1.200281
2104.000000	1.200286
2102.000000	1.200316
2100.000000	1.200347
2098.000000	1.200308
2096.000000	1.200273
2094.000000	1.200215
2092.000000	1.200167
2090.000000	1.200109
2088.000000	1.200079
2086.000000	1.200043
2084.000000	1.200050
2082.000000	1.200028
2080.000000	1.199972
2078.000000	1.199870
2076.000000	1.199843
2074.000000	1.199843
2072.000000	1.199872
2070.000000	1.199846
2068.000000	1.199785
2066.000000	1.199684
2064.000000	1.199712
2062.000000	1.199740
2060.000000	1.199708
2058.000000	1.199645
2056.000000	1.199598
2054.000000	1.199555
2052.000000	1.199552
2050.000000	1.199538
2048.000000	1.199476
2046.000000	1.199379
2044.000000	1.199348
2042.000000	1.199354
2040.000000	1.199377
2038.000000	1.199351
2036.000000	1.199257
2034.000000	1.199161
2032.000000	1.199137
2030.000000	1.199073
2028.000000	1.199148
2026.000000	1.199124
2024.000000	1.199024
2022.000000	1.198983
2020.000000	1.198909
2018.000000	1.198809
2016.000000	1.198867
2014.000000	1.198914
2012.000000	1.198933
2010.000000	1.198877
2008.000000	1.198844
2006.000000	1.198808
2004.000000	1.198810
2002.000000	1.198856
2000.000000	1.198844
1998.000000	1.198757
1996.000000	1.198675
1994.000000	1.198381
1992.000000	1.198325
1990.000000	1.198566
1988.000000	1.198623
1986.000000	1.198572
1984.000000	1.198497
1982.000000	1.198469
1980.000000	1.198522
1978.000000	1.198547
1976.000000	1.198504
1974.000000	1.198421
1972.000000	1.198385
1970.000000	1.198266
1968.000000	1.198153
1966.000000	1.198350
1964.000000	1.198466
1962.000000	1.198253
1960.000000	1.198135
1958.000000	1.198405
1956.000000	1.198497
1954.000000	1.198328
1952.000000	1.198351
1950.000000	1.198444
1948.000000	1.198455
1946.000000	1.198271
1944.000000	1.197913
1942.000000	1.198016
1940.000000	1.198444
1938.000000	1.198503
1936.000000	1.198465
1934.000000	1.198409
1932.000000	1.198431
1930.000000	1.198405
1928.000000	1.198389
1926.000000	1.198188
1924.000000	1.198054
1922.000000	1.198257
1920.000000	1.197901
1918.000000	1.197769
1916.000000	1.198596
1914.000000	1.198658
1912.000000	1.198475
1910.000000	1.198355
1908.000000	1.198510
1906.000000	1.198605
1904.000000	1.198672
1902.000000	1.198660
1900.000000	1.198668
1898.000000	1.198542
1896.000000	1.198520
1894.000000	1.198593
1892.000000	1.198315
1890.000000	1.198056
1888.000000	1.198591
1886.000000	1.198718
1884.000000	1.198757
1882.000000	1.198772
1880.000000	1.198790
1878.000000	1.198760
1876.000000	1.198825
1874.000000	1.198701
1872.000000	1.198031
1870.000000	1.197068
1868.000000	1.197721
1866.000000	1.198599
1864.000000	1.198717
1862.000000	1.198583
1860.000000	1.198590
1858.000000	1.198545
1856.000000	1.198638
1854.000000	1.198605
1852.000000	1.198615
1850.000000	1.198399
1848.000000	1.197874
1846.000000	1.196237
1844.000000	1.196478
1842.000000	1.198511
1840.000000	1.198659
1838.000000	1.198350
1836.000000	1.198495
1834.000000	1.198374
1832.000000	1.197352
1830.000000	1.197100
1828.000000	1.197958
1826.000000	1.197679
1824.000000	1.198193
1822.000000	1.198726
1820.000000	1.198710
1818.000000	1.198662
1816.000000	1.198802
1814.000000	1.198576
1812.000000	1.198219
1810.000000	1.198343
1808.000000	1.198769
1806.000000	1.198730
1804.000000	1.198251
1802.000000	1.197605
1800.000000	1.197911
1798.000000	1.198356
1796.000000	1.197833
1794.000000	1.195979
1792.000000	1.196437
1790.000000	1.198480
1788.000000	1.198633
1786.000000	1.197903
1784.000000	1.198112
1782.000000	1.198094
1780.000000	1.198279
1778.000000	1.198487
1776.000000	1.197294
1774.000000	1.194713
1772.000000	1.195366
1770.000000	1.197394
1768.000000	1.197879
1766.000000	1.198872
1764.000000	1.197760
1762.000000	1.197234
1760.000000	1.198361
1758.000000	1.198054
1756.000000	1.198327
1754.000000	1.197558
1752.000000	1.195598
1750.000000	1.196792
1748.000000	1.198187
1746.000000	1.198567
1744.000000	1.198332
1742.000000	1.197521
1740.000000	1.197352
1738.000000	1.197907
1736.000000	1.193777
1734.000000	1.193189
1732.000000	1.198430
1730.000000	1.199654
1728.000000	1.199807
1726.000000	1.199801
1724.000000	1.199753
1722.000000	1.199158
1720.000000	1.195539
1718.000000	1.192973
1716.000000	1.196632
1714.000000	1.199336
1712.000000	1.200127
1710.000000	1.199723
1708.000000	1.198876
1706.000000	1.198073
1704.000000	1.197823
1702.000000	1.192963
1700.000000	1.192961
1698.000000	1.194850
1696.000000	1.194702
1694.000000	1.199958
1692.000000	1.200866
1690.000000	1.199900
1688.000000	1.197945
1686.000000	1.192533
1684.000000	1.194348
1682.000000	1.200157
1680.000000	1.200658
1678.000000	1.199212
1676.000000	1.197296
1674.000000	1.199105
1672.000000	1.198799
1670.000000	1.197839
1668.000000	1.200183
1666.000000	1.200954
1664.000000	1.199384
1662.000000	1.200185
1660.000000	1.201494
1658.000000	1.200753
1656.000000	1.195059
1654.000000	1.188287
1652.000000	1.195139
1650.000000	1.200566
1648.000000	1.197067
1646.000000	1.197959
1644.000000	1.201614
1642.000000	1.202058
1640.000000	1.201068
1638.000000	1.197804
1636.000000	1.196140
1634.000000	1.200612
1632.000000	1.202514
1630.000000	1.201393
1628.000000	1.200951
1626.000000	1.200445
1624.000000	1.199585
1622.000000	1.200946
1620.000000	1.200324
1618.000000	1.196819
1616.000000	1.198782
1614.000000	1.202162
1612.000000	1.201738
1610.000000	1.201804
1608.000000	1.202429
1606.000000	1.203159
1604.000000	1.203295
1602.000000	1.203433
1600.000000	1.203542
1598.000000	1.203576
1596.000000	1.203372
1594.000000	1.203374
1592.000000	1.203393
1590.000000	1.203455
1588.000000	1.203467
1586.000000	1.203454
1584.000000	1.203396
1582.000000	1.203418
1580.000000	1.202498
1578.000000	1.198554
1576.000000	1.198566
1574.000000	1.203090
1572.000000	1.201886
1570.000000	1.200619
1568.000000	1.202369
1566.000000	1.202799
1564.000000	1.201834
1562.000000	1.196626
1560.000000	1.190686
1558.000000	1.195827
1556.000000	1.200670
1554.000000	1.201678
1552.000000	1.202921
1550.000000	1.203002
1548.000000	1.202791
1546.000000	1.201043
1544.000000	1.198703
1542.000000	1.194860
1540.000000	1.194439
1538.000000	1.200852
1536.000000	1.202433
1534.000000	1.200819
1532.000000	1.202614
1530.000000	1.202841
1528.000000	1.201357
1526.000000	1.200463
1524.000000	1.198781
1522.000000	1.196699
1520.000000	1.199478
1518.000000	1.200767
1516.000000	1.201315
1514.000000	1.202044
1512.000000	1.201628
1510.000000	1.199229
1508.000000	1.194087
1506.000000	1.195858
1504.000000	1.201574
1502.000000	1.201037
1500.000000	1.197752
1498.000000	1.195304
1496.000000	1.197931
1494.000000	1.203214
1492.000000	1.204211
1490.000000	1.204012
1488.000000	1.204699
1486.000000	1.205102
1484.000000	1.204883
1482.000000	1.204114
1480.000000	1.203734
1478.000000	1.202510
1476.000000	1.200800
1474.000000	1.198853
1472.000000	1.200264
1470.000000	1.203023
1468.000000	1.202616
1466.000000	1.201007
1464.000000	1.201799
1462.000000	1.202387
1460.000000	1.198863
1458.000000	1.194478
1456.000000	1.197421
1454.000000	1.201668
1452.000000	1.202450
1450.000000	1.203361
1448.000000	1.203927
1446.000000	1.204315
1444.000000	1.203792
1442.000000	1.203399
1440.000000	1.202121
1438.000000	1.199498
1436.000000	1.200627
1434.000000	1.203019
1432.000000	1.202432
1430.000000	1.202282
1428.000000	1.202810
1426.000000	1.202652
1424.000000	1.202218
1422.000000	1.200987
1420.000000	1.198884
1418.000000	1.200877
1416.000000	1.202663
1414.000000	1.202673
1412.000000	1.202321
1410.000000	1.202195
1408.000000	1.201762
1406.000000	1.201407
1404.000000	1.202124
1402.000000	1.202760
1400.000000	1.202213
1398.000000	1.202359
1396.000000	1.201788
1394.000000	1.202162
1392.000000	1.202914
1390.000000	1.201952
1388.000000	1.200907
1386.000000	1.201814
1384.000000	1.202758
1382.000000	1.202940
1380.000000	1.202603
1378.000000	1.202326
1376.000000	1.201822
1374.000000	1.201758
1372.000000	1.202165
1370.000000	1.202057
1368.000000	1.201958
1366.000000	1.201694
1364.000000	1.200947
1362.000000	1.201126
1360.000000	1.201777
1358.000000	1.201883
1356.000000	1.201696
1354.000000	1.201705
1352.000000	1.201667
1350.000000	1.201579
1348.000000	1.201554
1346.000000	1.201563
1344.000000	1.201394
1342.000000	1.201005
1340.000000	1.200778
1338.000000	1.201086
1336.000000	1.201378
1334.000000	1.201483
1332.000000	1.201377
1330.000000	1.201289
1328.000000	1.201131
1326.000000	1.201036
1324.000000	1.200991
1322.000000	1.200866
1320.000000	1.200609
1318.000000	1.200572
1316.000000	1.200529
1314.000000	1.200443
1312.000000	1.200426
1310.000000	1.200445
1308.000000	1.200321
1306.000000	1.200250
1304.000000	1.200229
1302.000000	1.200207
1300.000000	1.200081
1298.000000	1.200030
1296.000000	1.199925
1294.000000	1.199867
1292.000000	1.199830
1290.000000	1.199801
1288.000000	1.199749
1286.000000	1.199823
1284.000000	1.199896
1282.000000	1.199998
1280.000000	1.199898
1278.000000	1.199818
1276.000000	1.199788
1274.000000	1.199861
1272.000000	1.199934
1270.000000	1.200179
1268.000000	1.200689
1266.000000	1.201818
1264.000000	1.203778
1262.000000	1.206339
1260.000000	1.208372
1258.000000	1.209069
1256.000000	1.208043
1254.000000	1.206229
1252.000000	1.204564
1250.000000	1.203608
1248.000000	1.203260
1246.000000	1.203135
1244.000000	1.203069
1242.000000	1.203175
1240.000000	1.203301
1238.000000	1.203550
1236.000000	1.203800
1234.000000	1.204114
1232.000000	1.204447
1230.000000	1.204783
1228.000000	1.205060
1226.000000	1.205277
1224.000000	1.205466
1222.000000	1.205609
1220.000000	1.205628
1218.000000	1.205842
1216.000000	1.206170
1214.000000	1.206577
1212.000000	1.206944
1210.000000	1.207370
1208.000000	1.207626
1206.000000	1.207798
1204.000000	1.208041
1202.000000	1.208431
1200.000000	1.208662
1198.000000	1.208963
1196.000000	1.209242
1194.000000	1.209583
1192.000000	1.209968
1190.000000	1.210245
1188.000000	1.210433
1186.000000	1.210703
1184.000000	1.210745
1182.000000	1.211001
1180.000000	1.212044
1178.000000	1.212915
1176.000000	1.213040
1174.000000	1.213310
1172.000000	1.213717
1170.000000	1.214166
1168.000000	1.214555
1166.000000	1.214982
1164.000000	1.215376
1162.000000	1.215724
1160.000000	1.216084
1158.000000	1.216523
1156.000000	1.216798
1154.000000	1.217150
1152.000000	1.217543
1150.000000	1.217842
1148.000000	1.218053
1146.000000	1.218369
1144.000000	1.218580
1142.000000	1.219111
1140.000000	1.219539
1138.000000	1.219788
1136.000000	1.219931
1134.000000	1.220150
1132.000000	1.220318
1130.000000	1.220556
1128.000000	1.220789
1126.000000	1.220890
1124.000000	1.220752
1122.000000	1.221076
1120.000000	1.221688
1118.000000	1.222138
1116.000000	1.222361
1114.000000	1.222491
1112.000000	1.222608
1110.000000	1.223254
1108.000000	1.224064
1106.000000	1.224596
1104.000000	1.224840
1102.000000	1.225391
1100.000000	1.225834
1098.000000	1.226104
1096.000000	1.226593
1094.000000	1.227304
1092.000000	1.227418
1090.000000	1.227287
1088.000000	1.227367
1086.000000	1.227323
1084.000000	1.226974
1082.000000	1.226566
1080.000000	1.226128
1078.000000	1.225818
1076.000000	1.225863
1074.000000	1.226154
1072.000000	1.225889
1070.000000	1.225293
1068.000000	1.224736
1066.000000	1.224531
1064.000000	1.224028
1062.000000	1.223303
1060.000000	1.222655
1058.000000	1.221980
1056.000000	1.220939
1054.000000	1.220017
1052.000000	1.219691
1050.000000	1.220618
1048.000000	1.221556
1046.000000	1.221445
1044.000000	1.220418
1042.000000	1.219468
1040.000000	1.218556
1038.000000	1.217741
1036.000000	1.217287
1034.000000	1.216942
1032.000000	1.216423
1030.000000	1.215872
1028.000000	1.215422
1026.000000	1.215217
1024.000000	1.215040
1022.000000	1.214788
1020.000000	1.214423
1018.000000	1.214201
1016.000000	1.213042
1014.000000	1.211702
1012.000000	1.210719
1010.000000	1.209108
1008.000000	1.206614
1006.000000	1.204898
1004.000000	1.203350
1002.000000	1.201144
1000.000000	1.199969
