PE IR       SUBTECH     SPECTRUM    ASCII       PEDS        4.00        
   -1
TE108B1_032_133K(accidental heating due to ice clog).ASC
20/02/21
16:14:35.00
20/02/21
16:14:35.00
Administrator
Sample 032 By Administrator Date Friday, February 21 2020
1500.000000
#HDR
-1
-1
#GR
cm-1
A
1.0
0.0
4000.000000
-1.000000
2501
8
0.907568
0.873642
#DATA
4000.000000	0.882527
3999.000000	0.882500
3998.000000	0.882471
3997.000000	0.882450
3996.000000	0.882442
3995.000000	0.882441
3994.000000	0.882435
3993.000000	0.882414
3992.000000	0.882383
3991.000000	0.882354
3990.000000	0.882335
3989.000000	0.882329
3988.000000	0.882327
3987.000000	0.882325
3986.000000	0.882321
3985.000000	0.882319
3984.000000	0.882319
3983.000000	0.882320
3982.000000	0.882315
3981.000000	0.882298
3980.000000	0.882268
3979.000000	0.882230
3978.000000	0.882195
3977.000000	0.882175
3976.000000	0.882173
3975.000000	0.882180
3974.000000	0.882181
3973.000000	0.882163
3972.000000	0.882122
3971.000000	0.882069
3970.000000	0.882020
3969.000000	0.881984
3968.000000	0.881958
3967.000000	0.881937
3966.000000	0.881915
3965.000000	0.881896
3964.000000	0.881882
3963.000000	0.881869
3962.000000	0.881847
3961.000000	0.881806
3960.000000	0.881749
3959.000000	0.881685
3958.000000	0.881627
3957.000000	0.881585
3956.000000	0.881558
3955.000000	0.881541
3954.000000	0.881525
3953.000000	0.881502
3952.000000	0.881467
3951.000000	0.881423
3950.000000	0.881377
3949.000000	0.881337
3948.000000	0.881310
3947.000000	0.881295
3946.000000	0.881281
3945.000000	0.881256
3944.000000	0.881217
3943.000000	0.881173
3942.000000	0.881139
3941.000000	0.881123
3940.000000	0.881120
3939.000000	0.881118
3938.000000	0.881104
3937.000000	0.881075
3936.000000	0.881032
3935.000000	0.880976
3934.000000	0.880907
3933.000000	0.880831
3932.000000	0.880763
3931.000000	0.880720
3930.000000	0.880711
3929.000000	0.880721
3928.000000	0.880726
3927.000000	0.880704
3926.000000	0.880652
3925.000000	0.880585
3924.000000	0.880520
3923.000000	0.880463
3922.000000	0.880407
3921.000000	0.880340
3920.000000	0.880261
3919.000000	0.880178
3918.000000	0.880112
3917.000000	0.880080
3916.000000	0.880084
3915.000000	0.880108
3914.000000	0.880128
3913.000000	0.880125
3912.000000	0.880099
3911.000000	0.880060
3910.000000	0.880020
3909.000000	0.879975
3908.000000	0.879916
3907.000000	0.879835
3906.000000	0.879733
3905.000000	0.879618
3904.000000	0.879504
3903.000000	0.879406
3902.000000	0.879329
3901.000000	0.879276
3900.000000	0.879246
3899.000000	0.879241
3898.000000	0.879263
3897.000000	0.879308
3896.000000	0.879358
3895.000000	0.879390
3894.000000	0.879382
3893.000000	0.879324
3892.000000	0.879235
3891.000000	0.879153
3890.000000	0.879111
3889.000000	0.879103
3888.000000	0.879087
3887.000000	0.879024
3886.000000	0.878924
3885.000000	0.878839
3884.000000	0.878820
3883.000000	0.878858
3882.000000	0.878902
3881.000000	0.878906
3880.000000	0.878875
3879.000000	0.878845
3878.000000	0.878836
3877.000000	0.878829
3876.000000	0.878797
3875.000000	0.878741
3874.000000	0.878675
3873.000000	0.878593
3872.000000	0.878472
3871.000000	0.878304
3870.000000	0.878135
3869.000000	0.878036
3868.000000	0.878038
3867.000000	0.878100
3866.000000	0.878148
3865.000000	0.878136
3864.000000	0.878082
3863.000000	0.878036
3862.000000	0.878026
3861.000000	0.878046
3860.000000	0.878075
3859.000000	0.878093
3858.000000	0.878072
3857.000000	0.877959
3856.000000	0.877695
3855.000000	0.877287
3854.000000	0.876851
3853.000000	0.876569
3852.000000	0.876567
3851.000000	0.876823
3850.000000	0.877193
3849.000000	0.877512
3848.000000	0.877693
3847.000000	0.877743
3846.000000	0.877711
3845.000000	0.877642
3844.000000	0.877564
3843.000000	0.877488
3842.000000	0.877411
3841.000000	0.877304
3840.000000	0.877133
3839.000000	0.876908
3838.000000	0.876695
3837.000000	0.876581
3836.000000	0.876606
3835.000000	0.876727
3834.000000	0.876855
3833.000000	0.876922
3832.000000	0.876922
3831.000000	0.876900
3830.000000	0.876890
3829.000000	0.876891
3828.000000	0.876877
3827.000000	0.876840
3826.000000	0.876798
3825.000000	0.876763
3824.000000	0.876707
3823.000000	0.876593
3822.000000	0.876424
3821.000000	0.876265
3820.000000	0.876178
3819.000000	0.876157
3818.000000	0.876128
3817.000000	0.876033
3816.000000	0.875904
3815.000000	0.875838
3814.000000	0.875896
3813.000000	0.876050
3812.000000	0.876214
3811.000000	0.876315
3810.000000	0.876322
3809.000000	0.876236
3808.000000	0.876084
3807.000000	0.875929
3806.000000	0.875847
3805.000000	0.875852
3804.000000	0.875868
3803.000000	0.875790
3802.000000	0.875604
3801.000000	0.875416
3800.000000	0.875354
3799.000000	0.875447
3798.000000	0.875607
3797.000000	0.875721
3796.000000	0.875751
3795.000000	0.875733
3794.000000	0.875721
3793.000000	0.875729
3792.000000	0.875736
3791.000000	0.875722
3790.000000	0.875689
3789.000000	0.875650
3788.000000	0.875613
3787.000000	0.875578
3786.000000	0.875544
3785.000000	0.875514
3784.000000	0.875495
3783.000000	0.875483
3782.000000	0.875460
3781.000000	0.875409
3780.000000	0.875333
3779.000000	0.875258
3778.000000	0.875220
3777.000000	0.875229
3776.000000	0.875271
3775.000000	0.875319
3774.000000	0.875346
3773.000000	0.875331
3772.000000	0.875256
3771.000000	0.875132
3770.000000	0.875003
3769.000000	0.874923
3768.000000	0.874910
3767.000000	0.874937
3766.000000	0.874957
3765.000000	0.874952
3764.000000	0.874932
3763.000000	0.874912
3762.000000	0.874889
3761.000000	0.874845
3760.000000	0.874777
3759.000000	0.874704
3758.000000	0.874666
3757.000000	0.874683
3756.000000	0.874728
3755.000000	0.874729
3754.000000	0.874618
3753.000000	0.874382
3752.000000	0.874089
3751.000000	0.873848
3750.000000	0.873754
3749.000000	0.873827
3748.000000	0.873987
3747.000000	0.874088
3746.000000	0.874022
3745.000000	0.873817
3744.000000	0.873642
3743.000000	0.873670
3742.000000	0.873924
3741.000000	0.874261
3740.000000	0.874495
3739.000000	0.874533
3738.000000	0.874407
3737.000000	0.874219
3736.000000	0.874061
3735.000000	0.873973
3734.000000	0.873954
3733.000000	0.873980
3732.000000	0.874040
3731.000000	0.874143
3730.000000	0.874289
3729.000000	0.874440
3728.000000	0.874536
3727.000000	0.874550
3726.000000	0.874512
3725.000000	0.874471
3724.000000	0.874453
3723.000000	0.874456
3722.000000	0.874480
3721.000000	0.874530
3720.000000	0.874600
3719.000000	0.874666
3718.000000	0.874707
3717.000000	0.874729
3716.000000	0.874740
3715.000000	0.874728
3714.000000	0.874666
3713.000000	0.874557
3712.000000	0.874448
3711.000000	0.874409
3710.000000	0.874472
3709.000000	0.874612
3708.000000	0.874774
3707.000000	0.874914
3706.000000	0.875017
3705.000000	0.875084
3704.000000	0.875117
3703.000000	0.875126
3702.000000	0.875133
3701.000000	0.875168
3700.000000	0.875247
3699.000000	0.875354
3698.000000	0.875460
3697.000000	0.875546
3696.000000	0.875617
3695.000000	0.875686
3694.000000	0.875759
3693.000000	0.875814
3692.000000	0.875820
3691.000000	0.875753
3690.000000	0.875624
3689.000000	0.875497
3688.000000	0.875464
3687.000000	0.875582
3686.000000	0.875826
3685.000000	0.876104
3684.000000	0.876329
3683.000000	0.876474
3682.000000	0.876563
3681.000000	0.876635
3680.000000	0.876702
3679.000000	0.876742
3678.000000	0.876717
3677.000000	0.876615
3676.000000	0.876492
3675.000000	0.876455
3674.000000	0.876565
3673.000000	0.876774
3672.000000	0.876959
3671.000000	0.877048
3670.000000	0.877088
3669.000000	0.877188
3668.000000	0.877407
3667.000000	0.877704
3666.000000	0.877998
3665.000000	0.878231
3664.000000	0.878398
3663.000000	0.878521
3662.000000	0.878628
3661.000000	0.878741
3660.000000	0.878860
3659.000000	0.878965
3658.000000	0.879035
3657.000000	0.879082
3656.000000	0.879153
3655.000000	0.879289
3654.000000	0.879482
3653.000000	0.879663
3652.000000	0.879753
3651.000000	0.879734
3650.000000	0.879673
3649.000000	0.879679
3648.000000	0.879828
3647.000000	0.880120
3646.000000	0.880483
3645.000000	0.880827
3644.000000	0.881091
3643.000000	0.881271
3642.000000	0.881405
3641.000000	0.881541
3640.000000	0.881707
3639.000000	0.881900
3638.000000	0.882098
3637.000000	0.882280
3636.000000	0.882435
3635.000000	0.882568
3634.000000	0.882698
3633.000000	0.882825
3632.000000	0.882922
3631.000000	0.882954
3630.000000	0.882931
3629.000000	0.882934
3628.000000	0.883061
3627.000000	0.883344
3626.000000	0.883714
3625.000000	0.884062
3624.000000	0.884321
3623.000000	0.884487
3622.000000	0.884585
3621.000000	0.884637
3620.000000	0.884673
3619.000000	0.884740
3618.000000	0.884881
3617.000000	0.885092
3616.000000	0.885322
3615.000000	0.885514
3614.000000	0.885653
3613.000000	0.885767
3612.000000	0.885886
3611.000000	0.886013
3610.000000	0.886135
3609.000000	0.886246
3608.000000	0.886369
3607.000000	0.886534
3606.000000	0.886750
3605.000000	0.886988
3604.000000	0.887204
3603.000000	0.887369
3602.000000	0.887484
3601.000000	0.887579
3600.000000	0.887683
3599.000000	0.887803
3598.000000	0.887929
3597.000000	0.888048
3596.000000	0.888151
3595.000000	0.888243
3594.000000	0.888331
3593.000000	0.888424
3592.000000	0.888525
3591.000000	0.888626
3590.000000	0.888711
3589.000000	0.888767
3588.000000	0.888800
3587.000000	0.888835
3586.000000	0.888897
3585.000000	0.888998
3584.000000	0.889133
3583.000000	0.889280
3582.000000	0.889414
3581.000000	0.889513
3580.000000	0.889569
3579.000000	0.889598
3578.000000	0.889626
3577.000000	0.889680
3576.000000	0.889767
3575.000000	0.889877
3574.000000	0.889986
3573.000000	0.890068
3572.000000	0.890109
3571.000000	0.890107
3570.000000	0.890064
3569.000000	0.889997
3568.000000	0.889939
3567.000000	0.889927
3566.000000	0.889980
3565.000000	0.890076
3564.000000	0.890176
3563.000000	0.890258
3562.000000	0.890324
3561.000000	0.890388
3560.000000	0.890454
3559.000000	0.890518
3558.000000	0.890577
3557.000000	0.890631
3556.000000	0.890676
3555.000000	0.890706
3554.000000	0.890720
3553.000000	0.890724
3552.000000	0.890728
3551.000000	0.890740
3550.000000	0.890757
3549.000000	0.890764
3548.000000	0.890748
3547.000000	0.890715
3546.000000	0.890695
3545.000000	0.890721
3544.000000	0.890802
3543.000000	0.890912
3542.000000	0.891013
3541.000000	0.891079
3540.000000	0.891108
3539.000000	0.891119
3538.000000	0.891126
3537.000000	0.891138
3536.000000	0.891157
3535.000000	0.891182
3534.000000	0.891216
3533.000000	0.891259
3532.000000	0.891307
3531.000000	0.891345
3530.000000	0.891365
3529.000000	0.891371
3528.000000	0.891379
3527.000000	0.891400
3526.000000	0.891437
3525.000000	0.891483
3524.000000	0.891531
3523.000000	0.891576
3522.000000	0.891613
3521.000000	0.891645
3520.000000	0.891680
3519.000000	0.891732
3518.000000	0.891810
3517.000000	0.891906
3516.000000	0.892003
3515.000000	0.892087
3514.000000	0.892157
3513.000000	0.892226
3512.000000	0.892301
3511.000000	0.892381
3510.000000	0.892460
3509.000000	0.892538
3508.000000	0.892622
3507.000000	0.892720
3506.000000	0.892825
3505.000000	0.892921
3504.000000	0.893001
3503.000000	0.893071
3502.000000	0.893151
3501.000000	0.893249
3500.000000	0.893356
3499.000000	0.893452
3498.000000	0.893534
3497.000000	0.893614
3496.000000	0.893711
3495.000000	0.893829
3494.000000	0.893959
3493.000000	0.894085
3492.000000	0.894201
3491.000000	0.894303
3490.000000	0.894393
3489.000000	0.894471
3488.000000	0.894544
3487.000000	0.894623
3486.000000	0.894720
3485.000000	0.894837
3484.000000	0.894961
3483.000000	0.895076
3482.000000	0.895168
3481.000000	0.895246
3480.000000	0.895333
3479.000000	0.895443
3478.000000	0.895573
3477.000000	0.895702
3476.000000	0.895812
3475.000000	0.895903
3474.000000	0.895990
3473.000000	0.896087
3472.000000	0.896192
3471.000000	0.896300
3470.000000	0.896405
3469.000000	0.896515
3468.000000	0.896641
3467.000000	0.896787
3466.000000	0.896941
3465.000000	0.897091
3464.000000	0.897226
3463.000000	0.897348
3462.000000	0.897462
3461.000000	0.897578
3460.000000	0.897696
3459.000000	0.897811
3458.000000	0.897921
3457.000000	0.898029
3456.000000	0.898146
3455.000000	0.898275
3454.000000	0.898405
3453.000000	0.898524
3452.000000	0.898634
3451.000000	0.898743
3450.000000	0.898854
3449.000000	0.898963
3448.000000	0.899060
3447.000000	0.899148
3446.000000	0.899237
3445.000000	0.899330
3444.000000	0.899427
3443.000000	0.899526
3442.000000	0.899629
3441.000000	0.899743
3440.000000	0.899868
3439.000000	0.899995
3438.000000	0.900110
3437.000000	0.900205
3436.000000	0.900289
3435.000000	0.900379
3434.000000	0.900483
3433.000000	0.900597
3432.000000	0.900707
3431.000000	0.900814
3430.000000	0.900921
3429.000000	0.901033
3428.000000	0.901142
3427.000000	0.901239
3426.000000	0.901324
3425.000000	0.901402
3424.000000	0.901480
3423.000000	0.901559
3422.000000	0.901640
3421.000000	0.901721
3420.000000	0.901804
3419.000000	0.901889
3418.000000	0.901969
3417.000000	0.902042
3416.000000	0.902111
3415.000000	0.902189
3414.000000	0.902281
3413.000000	0.902383
3412.000000	0.902486
3411.000000	0.902588
3410.000000	0.902691
3409.000000	0.902792
3408.000000	0.902880
3407.000000	0.902945
3406.000000	0.902986
3405.000000	0.903008
3404.000000	0.903019
3403.000000	0.903023
3402.000000	0.903032
3401.000000	0.903062
3400.000000	0.903124
3399.000000	0.903214
3398.000000	0.903310
3397.000000	0.903384
3396.000000	0.903423
3395.000000	0.903433
3394.000000	0.903431
3393.000000	0.903438
3392.000000	0.903467
3391.000000	0.903519
3390.000000	0.903585
3389.000000	0.903652
3388.000000	0.903707
3387.000000	0.903746
3386.000000	0.903776
3385.000000	0.903801
3384.000000	0.903823
3383.000000	0.903836
3382.000000	0.903838
3381.000000	0.903841
3380.000000	0.903856
3379.000000	0.903891
3378.000000	0.903938
3377.000000	0.903982
3376.000000	0.904016
3375.000000	0.904048
3374.000000	0.904085
3373.000000	0.904122
3372.000000	0.904152
3371.000000	0.904166
3370.000000	0.904169
3369.000000	0.904167
3368.000000	0.904169
3367.000000	0.904179
3366.000000	0.904197
3365.000000	0.904219
3364.000000	0.904244
3363.000000	0.904270
3362.000000	0.904301
3361.000000	0.904336
3360.000000	0.904368
3359.000000	0.904393
3358.000000	0.904410
3357.000000	0.904419
3356.000000	0.904424
3355.000000	0.904426
3354.000000	0.904431
3353.000000	0.904437
3352.000000	0.904442
3351.000000	0.904440
3350.000000	0.904431
3349.000000	0.904418
3348.000000	0.904411
3347.000000	0.904417
3346.000000	0.904439
3345.000000	0.904466
3344.000000	0.904488
3343.000000	0.904501
3342.000000	0.904512
3341.000000	0.904527
3340.000000	0.904545
3339.000000	0.904561
3338.000000	0.904575
3337.000000	0.904592
3336.000000	0.904615
3335.000000	0.904640
3334.000000	0.904658
3333.000000	0.904668
3332.000000	0.904678
3331.000000	0.904693
3330.000000	0.904710
3329.000000	0.904715
3328.000000	0.904702
3327.000000	0.904678
3326.000000	0.904662
3325.000000	0.904665
3324.000000	0.904686
3323.000000	0.904714
3322.000000	0.904746
3321.000000	0.904783
3320.000000	0.904828
3319.000000	0.904876
3318.000000	0.904925
3317.000000	0.904975
3316.000000	0.905019
3315.000000	0.905052
3314.000000	0.905069
3313.000000	0.905080
3312.000000	0.905091
3311.000000	0.905105
3310.000000	0.905113
3309.000000	0.905114
3308.000000	0.905114
3307.000000	0.905120
3306.000000	0.905135
3305.000000	0.905160
3304.000000	0.905192
3303.000000	0.905228
3302.000000	0.905261
3301.000000	0.905283
3300.000000	0.905297
3299.000000	0.905311
3298.000000	0.905339
3297.000000	0.905386
3296.000000	0.905437
3295.000000	0.905472
3294.000000	0.905478
3293.000000	0.905467
3292.000000	0.905459
3291.000000	0.905467
3290.000000	0.905486
3289.000000	0.905505
3288.000000	0.905523
3287.000000	0.905547
3286.000000	0.905579
3285.000000	0.905612
3284.000000	0.905636
3283.000000	0.905651
3282.000000	0.905668
3281.000000	0.905692
3280.000000	0.905719
3279.000000	0.905740
3278.000000	0.905757
3277.000000	0.905776
3276.000000	0.905798
3275.000000	0.905820
3274.000000	0.905833
3273.000000	0.905834
3272.000000	0.905831
3271.000000	0.905836
3270.000000	0.905860
3269.000000	0.905906
3268.000000	0.905964
3267.000000	0.906018
3266.000000	0.906054
3265.000000	0.906073
3264.000000	0.906085
3263.000000	0.906099
3262.000000	0.906117
3261.000000	0.906134
3260.000000	0.906144
3259.000000	0.906149
3258.000000	0.906154
3257.000000	0.906166
3256.000000	0.906192
3255.000000	0.906233
3254.000000	0.906283
3253.000000	0.906332
3252.000000	0.906371
3251.000000	0.906394
3250.000000	0.906406
3249.000000	0.906415
3248.000000	0.906426
3247.000000	0.906438
3246.000000	0.906445
3245.000000	0.906450
3244.000000	0.906461
3243.000000	0.906487
3242.000000	0.906524
3241.000000	0.906558
3240.000000	0.906577
3239.000000	0.906579
3238.000000	0.906573
3237.000000	0.906568
3236.000000	0.906569
3235.000000	0.906578
3234.000000	0.906589
3233.000000	0.906600
3232.000000	0.906620
3231.000000	0.906660
3230.000000	0.906715
3229.000000	0.906765
3228.000000	0.906793
3227.000000	0.906800
3226.000000	0.906804
3225.000000	0.906817
3224.000000	0.906833
3223.000000	0.906841
3222.000000	0.906833
3221.000000	0.906818
3220.000000	0.906808
3219.000000	0.906811
3218.000000	0.906824
3217.000000	0.906837
3216.000000	0.906850
3215.000000	0.906866
3214.000000	0.906885
3213.000000	0.906902
3212.000000	0.906912
3211.000000	0.906921
3210.000000	0.906941
3209.000000	0.906972
3208.000000	0.906998
3207.000000	0.907003
3206.000000	0.906985
3205.000000	0.906954
3204.000000	0.906924
3203.000000	0.906911
3202.000000	0.906920
3201.000000	0.906946
3200.000000	0.906972
3199.000000	0.906979
3198.000000	0.906967
3197.000000	0.906948
3196.000000	0.906942
3195.000000	0.906960
3194.000000	0.906996
3193.000000	0.907029
3192.000000	0.907042
3191.000000	0.907034
3190.000000	0.907020
3189.000000	0.907015
3188.000000	0.907028
3187.000000	0.907053
3186.000000	0.907083
3185.000000	0.907104
3184.000000	0.907105
3183.000000	0.907089
3182.000000	0.907075
3181.000000	0.907077
3180.000000	0.907090
3179.000000	0.907095
3178.000000	0.907082
3177.000000	0.907062
3176.000000	0.907050
3175.000000	0.907054
3174.000000	0.907072
3173.000000	0.907101
3172.000000	0.907138
3171.000000	0.907172
3170.000000	0.907188
3169.000000	0.907187
3168.000000	0.907181
3167.000000	0.907188
3166.000000	0.907207
3165.000000	0.907225
3164.000000	0.907235
3163.000000	0.907244
3162.000000	0.907265
3161.000000	0.907297
3160.000000	0.907326
3159.000000	0.907336
3158.000000	0.907326
3157.000000	0.907311
3156.000000	0.907304
3155.000000	0.907302
3154.000000	0.907293
3153.000000	0.907272
3152.000000	0.907253
3151.000000	0.907256
3150.000000	0.907285
3149.000000	0.907321
3148.000000	0.907340
3147.000000	0.907338
3146.000000	0.907333
3145.000000	0.907344
3144.000000	0.907372
3143.000000	0.907407
3142.000000	0.907435
3141.000000	0.907447
3140.000000	0.907438
3139.000000	0.907411
3138.000000	0.907381
3137.000000	0.907364
3136.000000	0.907364
3135.000000	0.907376
3134.000000	0.907394
3133.000000	0.907414
3132.000000	0.907435
3131.000000	0.907454
3130.000000	0.907467
3129.000000	0.907475
3128.000000	0.907485
3127.000000	0.907500
3126.000000	0.907523
3125.000000	0.907550
3124.000000	0.907568
3123.000000	0.907567
3122.000000	0.907545
3121.000000	0.907516
3120.000000	0.907498
3119.000000	0.907496
3118.000000	0.907507
3117.000000	0.907526
3116.000000	0.907543
3115.000000	0.907553
3114.000000	0.907551
3113.000000	0.907539
3112.000000	0.907528
3111.000000	0.907525
3110.000000	0.907533
3109.000000	0.907543
3108.000000	0.907546
3107.000000	0.907539
3106.000000	0.907529
3105.000000	0.907522
3104.000000	0.907517
3103.000000	0.907504
3102.000000	0.907475
3101.000000	0.907437
3100.000000	0.907401
3099.000000	0.907378
3098.000000	0.907368
3097.000000	0.907373
3096.000000	0.907392
3095.000000	0.907419
3094.000000	0.907439
3093.000000	0.907439
3092.000000	0.907415
3091.000000	0.907371
3090.000000	0.907319
3089.000000	0.907273
3088.000000	0.907247
3087.000000	0.907238
3086.000000	0.907229
3085.000000	0.907207
3084.000000	0.907175
3083.000000	0.907145
3082.000000	0.907122
3081.000000	0.907100
3080.000000	0.907081
3079.000000	0.907066
3078.000000	0.907055
3077.000000	0.907042
3076.000000	0.907025
3075.000000	0.907007
3074.000000	0.906989
3073.000000	0.906967
3072.000000	0.906935
3071.000000	0.906896
3070.000000	0.906862
3069.000000	0.906840
3068.000000	0.906827
3067.000000	0.906816
3066.000000	0.906797
3065.000000	0.906768
3064.000000	0.906736
3063.000000	0.906708
3062.000000	0.906688
3061.000000	0.906669
3060.000000	0.906648
3059.000000	0.906629
3058.000000	0.906617
3057.000000	0.906604
3056.000000	0.906579
3055.000000	0.906540
3054.000000	0.906496
3053.000000	0.906461
3052.000000	0.906435
3051.000000	0.906410
3050.000000	0.906385
3049.000000	0.906363
3048.000000	0.906348
3047.000000	0.906331
3046.000000	0.906300
3045.000000	0.906253
3044.000000	0.906197
3043.000000	0.906149
3042.000000	0.906119
3041.000000	0.906109
3040.000000	0.906113
3039.000000	0.906123
3038.000000	0.906131
3037.000000	0.906126
3036.000000	0.906099
3035.000000	0.906053
3034.000000	0.906002
3033.000000	0.905963
3032.000000	0.905943
3031.000000	0.905937
3030.000000	0.905936
3029.000000	0.905930
3028.000000	0.905919
3027.000000	0.905909
3026.000000	0.905904
3025.000000	0.905898
3024.000000	0.905882
3023.000000	0.905850
3022.000000	0.905805
3021.000000	0.905756
3020.000000	0.905710
3019.000000	0.905673
3018.000000	0.905644
3017.000000	0.905617
3016.000000	0.905579
3015.000000	0.905522
3014.000000	0.905458
3013.000000	0.905404
3012.000000	0.905377
3011.000000	0.905376
3010.000000	0.905387
3009.000000	0.905392
3008.000000	0.905381
3007.000000	0.905357
3006.000000	0.905334
3005.000000	0.905312
3004.000000	0.905288
3003.000000	0.905258
3002.000000	0.905229
3001.000000	0.905204
3000.000000	0.905175
2999.000000	0.905141
2998.000000	0.905109
2997.000000	0.905088
2996.000000	0.905071
2995.000000	0.905041
2994.000000	0.904997
2993.000000	0.904951
2992.000000	0.904913
2991.000000	0.904884
2990.000000	0.904861
2989.000000	0.904847
2988.000000	0.904843
2987.000000	0.904842
2986.000000	0.904833
2985.000000	0.904816
2984.000000	0.904801
2983.000000	0.904791
2982.000000	0.904784
2981.000000	0.904775
2980.000000	0.904765
2979.000000	0.904755
2978.000000	0.904743
2977.000000	0.904731
2976.000000	0.904719
2975.000000	0.904706
2974.000000	0.904690
2973.000000	0.904674
2972.000000	0.904668
2971.000000	0.904680
2970.000000	0.904711
2969.000000	0.904748
2968.000000	0.904771
2967.000000	0.904768
2966.000000	0.904739
2965.000000	0.904690
2964.000000	0.904629
2963.000000	0.904562
2962.000000	0.904492
2961.000000	0.904421
2960.000000	0.904352
2959.000000	0.904289
2958.000000	0.904237
2957.000000	0.904203
2956.000000	0.904182
2955.000000	0.904158
2954.000000	0.904113
2953.000000	0.904045
2952.000000	0.903971
2951.000000	0.903914
2950.000000	0.903882
2949.000000	0.903861
2948.000000	0.903833
2947.000000	0.903797
2946.000000	0.903771
2945.000000	0.903771
2944.000000	0.903798
2943.000000	0.903837
2942.000000	0.903868
2941.000000	0.903875
2940.000000	0.903851
2939.000000	0.903800
2938.000000	0.903741
2937.000000	0.903698
2936.000000	0.903683
2935.000000	0.903683
2934.000000	0.903678
2933.000000	0.903656
2932.000000	0.903622
2931.000000	0.903584
2930.000000	0.903544
2929.000000	0.903495
2928.000000	0.903430
2927.000000	0.903353
2926.000000	0.903268
2925.000000	0.903179
2924.000000	0.903092
2923.000000	0.903016
2922.000000	0.902962
2921.000000	0.902921
2920.000000	0.902877
2919.000000	0.902816
2918.000000	0.902742
2917.000000	0.902672
2916.000000	0.902617
2915.000000	0.902578
2914.000000	0.902554
2913.000000	0.902543
2912.000000	0.902538
2911.000000	0.902532
2910.000000	0.902522
2909.000000	0.902509
2908.000000	0.902489
2907.000000	0.902453
2906.000000	0.902398
2905.000000	0.902338
2904.000000	0.902289
2903.000000	0.902257
2902.000000	0.902232
2901.000000	0.902203
2900.000000	0.902167
2899.000000	0.902128
2898.000000	0.902096
2897.000000	0.902077
2896.000000	0.902066
2895.000000	0.902047
2894.000000	0.902009
2893.000000	0.901953
2892.000000	0.901895
2891.000000	0.901847
2890.000000	0.901809
2889.000000	0.901773
2888.000000	0.901732
2887.000000	0.901680
2886.000000	0.901618
2885.000000	0.901557
2884.000000	0.901507
2883.000000	0.901472
2882.000000	0.901444
2881.000000	0.901416
2880.000000	0.901388
2879.000000	0.901358
2878.000000	0.901324
2877.000000	0.901287
2876.000000	0.901246
2875.000000	0.901204
2874.000000	0.901163
2873.000000	0.901128
2872.000000	0.901106
2871.000000	0.901095
2870.000000	0.901081
2869.000000	0.901050
2868.000000	0.901002
2867.000000	0.900945
2866.000000	0.900887
2865.000000	0.900824
2864.000000	0.900751
2863.000000	0.900668
2862.000000	0.900575
2861.000000	0.900480
2860.000000	0.900393
2859.000000	0.900325
2858.000000	0.900275
2857.000000	0.900231
2856.000000	0.900185
2855.000000	0.900137
2854.000000	0.900093
2853.000000	0.900045
2852.000000	0.899983
2851.000000	0.899904
2850.000000	0.899822
2849.000000	0.899752
2848.000000	0.899705
2847.000000	0.899676
2846.000000	0.899659
2845.000000	0.899649
2844.000000	0.899642
2843.000000	0.899633
2842.000000	0.899618
2841.000000	0.899594
2840.000000	0.899559
2839.000000	0.899518
2838.000000	0.899481
2837.000000	0.899458
2836.000000	0.899448
2835.000000	0.899440
2834.000000	0.899422
2833.000000	0.899397
2832.000000	0.899375
2831.000000	0.899358
2830.000000	0.899341
2829.000000	0.899314
2828.000000	0.899277
2827.000000	0.899233
2826.000000	0.899185
2825.000000	0.899139
2824.000000	0.899103
2823.000000	0.899073
2822.000000	0.899038
2821.000000	0.898990
2820.000000	0.898938
2819.000000	0.898899
2818.000000	0.898877
2817.000000	0.898859
2816.000000	0.898828
2815.000000	0.898784
2814.000000	0.898738
2813.000000	0.898702
2812.000000	0.898675
2811.000000	0.898654
2810.000000	0.898631
2809.000000	0.898600
2808.000000	0.898559
2807.000000	0.898507
2806.000000	0.898450
2805.000000	0.898396
2804.000000	0.898353
2803.000000	0.898327
2802.000000	0.898316
2801.000000	0.898308
2800.000000	0.898292
2799.000000	0.898264
2798.000000	0.898228
2797.000000	0.898192
2796.000000	0.898165
2795.000000	0.898148
2794.000000	0.898138
2793.000000	0.898121
2792.000000	0.898088
2791.000000	0.898043
2790.000000	0.898003
2789.000000	0.897976
2788.000000	0.897958
2787.000000	0.897942
2786.000000	0.897919
2785.000000	0.897888
2784.000000	0.897848
2783.000000	0.897801
2782.000000	0.897755
2781.000000	0.897719
2780.000000	0.897701
2779.000000	0.897698
2778.000000	0.897700
2777.000000	0.897698
2776.000000	0.897686
2775.000000	0.897670
2774.000000	0.897656
2773.000000	0.897646
2772.000000	0.897635
2771.000000	0.897622
2770.000000	0.897608
2769.000000	0.897592
2768.000000	0.897572
2767.000000	0.897548
2766.000000	0.897523
2765.000000	0.897501
2764.000000	0.897479
2763.000000	0.897453
2762.000000	0.897427
2761.000000	0.897403
2760.000000	0.897379
2759.000000	0.897347
2758.000000	0.897309
2757.000000	0.897272
2756.000000	0.897244
2755.000000	0.897221
2754.000000	0.897192
2753.000000	0.897158
2752.000000	0.897127
2751.000000	0.897111
2750.000000	0.897113
2749.000000	0.897126
2748.000000	0.897143
2747.000000	0.897158
2746.000000	0.897165
2745.000000	0.897160
2744.000000	0.897145
2743.000000	0.897130
2742.000000	0.897124
2741.000000	0.897129
2740.000000	0.897140
2739.000000	0.897148
2738.000000	0.897150
2737.000000	0.897149
2736.000000	0.897141
2735.000000	0.897126
2734.000000	0.897108
2733.000000	0.897090
2732.000000	0.897074
2731.000000	0.897059
2730.000000	0.897045
2729.000000	0.897033
2728.000000	0.897027
2727.000000	0.897030
2726.000000	0.897040
2725.000000	0.897049
2724.000000	0.897046
2723.000000	0.897032
2722.000000	0.897016
2721.000000	0.897009
2720.000000	0.897006
2719.000000	0.896994
2718.000000	0.896968
2717.000000	0.896938
2716.000000	0.896922
2715.000000	0.896925
2714.000000	0.896935
2713.000000	0.896940
2712.000000	0.896936
2711.000000	0.896927
2710.000000	0.896917
2709.000000	0.896910
2708.000000	0.896913
2707.000000	0.896930
2706.000000	0.896961
2705.000000	0.896992
2704.000000	0.897011
2703.000000	0.897014
2702.000000	0.897006
2701.000000	0.896992
2700.000000	0.896974
2699.000000	0.896956
2698.000000	0.896946
2697.000000	0.896949
2696.000000	0.896964
2695.000000	0.896984
2694.000000	0.897004
2693.000000	0.897014
2692.000000	0.897009
2691.000000	0.896986
2690.000000	0.896959
2689.000000	0.896942
2688.000000	0.896945
2687.000000	0.896967
2686.000000	0.896997
2685.000000	0.897024
2684.000000	0.897042
2683.000000	0.897052
2682.000000	0.897055
2681.000000	0.897056
2680.000000	0.897055
2679.000000	0.897058
2678.000000	0.897070
2677.000000	0.897092
2676.000000	0.897118
2675.000000	0.897139
2674.000000	0.897151
2673.000000	0.897156
2672.000000	0.897155
2671.000000	0.897156
2670.000000	0.897165
2669.000000	0.897186
2668.000000	0.897210
2667.000000	0.897226
2666.000000	0.897230
2665.000000	0.897233
2664.000000	0.897241
2663.000000	0.897253
2662.000000	0.897263
2661.000000	0.897267
2660.000000	0.897275
2659.000000	0.897295
2658.000000	0.897332
2657.000000	0.897379
2656.000000	0.897423
2655.000000	0.897451
2654.000000	0.897470
2653.000000	0.897490
2652.000000	0.897514
2651.000000	0.897532
2650.000000	0.897537
2649.000000	0.897539
2648.000000	0.897554
2647.000000	0.897586
2646.000000	0.897629
2645.000000	0.897668
2644.000000	0.897693
2643.000000	0.897702
2642.000000	0.897698
2641.000000	0.897696
2640.000000	0.897703
2639.000000	0.897719
2638.000000	0.897735
2637.000000	0.897751
2636.000000	0.897771
2635.000000	0.897798
2634.000000	0.897827
2633.000000	0.897858
2632.000000	0.897893
2631.000000	0.897930
2630.000000	0.897955
2629.000000	0.897962
2628.000000	0.897958
2627.000000	0.897959
2626.000000	0.897976
2625.000000	0.898005
2624.000000	0.898035
2623.000000	0.898060
2622.000000	0.898077
2621.000000	0.898089
2620.000000	0.898104
2619.000000	0.898126
2618.000000	0.898150
2617.000000	0.898164
2616.000000	0.898167
2615.000000	0.898168
2614.000000	0.898179
2613.000000	0.898200
2612.000000	0.898220
2611.000000	0.898233
2610.000000	0.898242
2609.000000	0.898257
2608.000000	0.898284
2607.000000	0.898318
2606.000000	0.898351
2605.000000	0.898381
2604.000000	0.898410
2603.000000	0.898443
2602.000000	0.898476
2601.000000	0.898503
2600.000000	0.898520
2599.000000	0.898530
2598.000000	0.898538
2597.000000	0.898545
2596.000000	0.898553
2595.000000	0.898563
2594.000000	0.898572
2593.000000	0.898576
2592.000000	0.898573
2591.000000	0.898566
2590.000000	0.898568
2589.000000	0.898584
2588.000000	0.898613
2587.000000	0.898638
2586.000000	0.898650
2585.000000	0.898654
2584.000000	0.898665
2583.000000	0.898696
2582.000000	0.898742
2581.000000	0.898786
2580.000000	0.898814
2579.000000	0.898831
2578.000000	0.898847
2577.000000	0.898870
2576.000000	0.898894
2575.000000	0.898909
2574.000000	0.898911
2573.000000	0.898912
2572.000000	0.898923
2571.000000	0.898948
2570.000000	0.898973
2569.000000	0.898981
2568.000000	0.898975
2567.000000	0.898972
2566.000000	0.898986
2565.000000	0.899014
2564.000000	0.899042
2563.000000	0.899061
2562.000000	0.899073
2561.000000	0.899082
2560.000000	0.899093
2559.000000	0.899110
2558.000000	0.899137
2557.000000	0.899170
2556.000000	0.899202
2555.000000	0.899224
2554.000000	0.899234
2553.000000	0.899236
2552.000000	0.899238
2551.000000	0.899249
2550.000000	0.899273
2549.000000	0.899309
2548.000000	0.899347
2547.000000	0.899374
2546.000000	0.899384
2545.000000	0.899379
2544.000000	0.899370
2543.000000	0.899367
2542.000000	0.899376
2541.000000	0.899396
2540.000000	0.899419
2539.000000	0.899444
2538.000000	0.899473
2537.000000	0.899506
2536.000000	0.899537
2535.000000	0.899557
2534.000000	0.899565
2533.000000	0.899571
2532.000000	0.899583
2531.000000	0.899598
2530.000000	0.899610
2529.000000	0.899614
2528.000000	0.899616
2527.000000	0.899623
2526.000000	0.899631
2525.000000	0.899636
2524.000000	0.899639
2523.000000	0.899652
2522.000000	0.899681
2521.000000	0.899722
2520.000000	0.899759
2519.000000	0.899780
2518.000000	0.899786
2517.000000	0.899785
2516.000000	0.899785
2515.000000	0.899791
2514.000000	0.899808
2513.000000	0.899844
2512.000000	0.899897
2511.000000	0.899950
2510.000000	0.899985
2509.000000	0.899994
2508.000000	0.899990
2507.000000	0.899989
2506.000000	0.900001
2505.000000	0.900018
2504.000000	0.900034
2503.000000	0.900049
2502.000000	0.900071
2501.000000	0.900101
2500.000000	0.900130
2499.000000	0.900149
2498.000000	0.900156
2497.000000	0.900163
2496.000000	0.900181
2495.000000	0.900212
2494.000000	0.900249
2493.000000	0.900284
2492.000000	0.900311
2491.000000	0.900329
2490.000000	0.900343
2489.000000	0.900360
2488.000000	0.900383
2487.000000	0.900411
2486.000000	0.900443
2485.000000	0.900478
2484.000000	0.900512
2483.000000	0.900539
2482.000000	0.900559
2481.000000	0.900583
2480.000000	0.900622
2479.000000	0.900675
2478.000000	0.900724
2477.000000	0.900753
2476.000000	0.900760
2475.000000	0.900757
2474.000000	0.900756
2473.000000	0.900768
2472.000000	0.900796
2471.000000	0.900841
2470.000000	0.900894
2469.000000	0.900945
2468.000000	0.900989
2467.000000	0.901028
2466.000000	0.901063
2465.000000	0.901087
2464.000000	0.901101
2463.000000	0.901116
2462.000000	0.901146
2461.000000	0.901193
2460.000000	0.901250
2459.000000	0.901305
2458.000000	0.901348
2457.000000	0.901375
2456.000000	0.901388
2455.000000	0.901397
2454.000000	0.901414
2453.000000	0.901445
2452.000000	0.901484
2451.000000	0.901521
2450.000000	0.901548
2449.000000	0.901571
2448.000000	0.901597
2447.000000	0.901631
2446.000000	0.901669
2445.000000	0.901702
2444.000000	0.901726
2443.000000	0.901748
2442.000000	0.901776
2441.000000	0.901809
2440.000000	0.901839
2439.000000	0.901863
2438.000000	0.901883
2437.000000	0.901897
2436.000000	0.901901
2435.000000	0.901894
2434.000000	0.901893
2433.000000	0.901910
2432.000000	0.901941
2431.000000	0.901964
2430.000000	0.901966
2429.000000	0.901953
2428.000000	0.901938
2427.000000	0.901927
2426.000000	0.901918
2425.000000	0.901911
2424.000000	0.901905
2423.000000	0.901894
2422.000000	0.901871
2421.000000	0.901838
2420.000000	0.901806
2419.000000	0.901782
2418.000000	0.901762
2417.000000	0.901730
2416.000000	0.901684
2415.000000	0.901631
2414.000000	0.901585
2413.000000	0.901553
2412.000000	0.901531
2411.000000	0.901507
2410.000000	0.901470
2409.000000	0.901417
2408.000000	0.901357
2407.000000	0.901302
2406.000000	0.901263
2405.000000	0.901244
2404.000000	0.901238
2403.000000	0.901235
2402.000000	0.901219
2401.000000	0.901188
2400.000000	0.901153
2399.000000	0.901133
2398.000000	0.901138
2397.000000	0.901157
2396.000000	0.901170
2395.000000	0.901164
2394.000000	0.901141
2393.000000	0.901111
2392.000000	0.901086
2391.000000	0.901072
2390.000000	0.901068
2389.000000	0.901068
2388.000000	0.901070
2387.000000	0.901074
2386.000000	0.901075
2385.000000	0.901064
2384.000000	0.901039
2383.000000	0.901004
2382.000000	0.900965
2381.000000	0.900918
2380.000000	0.900853
2379.000000	0.900767
2378.000000	0.900667
2377.000000	0.900560
2376.000000	0.900440
2375.000000	0.900298
2374.000000	0.900133
2373.000000	0.899954
2372.000000	0.899778
2371.000000	0.899618
2370.000000	0.899472
2369.000000	0.899331
2368.000000	0.899181
2367.000000	0.899021
2366.000000	0.898860
2365.000000	0.898712
2364.000000	0.898591
2363.000000	0.898508
2362.000000	0.898472
2361.000000	0.898483
2360.000000	0.898527
2359.000000	0.898595
2358.000000	0.898687
2357.000000	0.898815
2356.000000	0.898986
2355.000000	0.899196
2354.000000	0.899430
2353.000000	0.899674
2352.000000	0.899920
2351.000000	0.900159
2350.000000	0.900373
2349.000000	0.900533
2348.000000	0.900623
2347.000000	0.900669
2346.000000	0.900731
2345.000000	0.900862
2344.000000	0.901066
2343.000000	0.901300
2342.000000	0.901503
2341.000000	0.901616
2340.000000	0.901589
2339.000000	0.901397
2338.000000	0.901067
2337.000000	0.900683
2336.000000	0.900347
2335.000000	0.900115
2334.000000	0.899982
2333.000000	0.899910
2332.000000	0.899875
2331.000000	0.899873
2330.000000	0.899904
2329.000000	0.899955
2328.000000	0.900015
2327.000000	0.900084
2326.000000	0.900172
2325.000000	0.900275
2324.000000	0.900377
2323.000000	0.900462
2322.000000	0.900533
2321.000000	0.900603
2320.000000	0.900678
2319.000000	0.900755
2318.000000	0.900828
2317.000000	0.900890
2316.000000	0.900942
2315.000000	0.900989
2314.000000	0.901042
2313.000000	0.901106
2312.000000	0.901177
2311.000000	0.901246
2310.000000	0.901308
2309.000000	0.901359
2308.000000	0.901401
2307.000000	0.901436
2306.000000	0.901467
2305.000000	0.901494
2304.000000	0.901518
2303.000000	0.901536
2302.000000	0.901552
2301.000000	0.901569
2300.000000	0.901592
2299.000000	0.901619
2298.000000	0.901642
2297.000000	0.901656
2296.000000	0.901662
2295.000000	0.901668
2294.000000	0.901682
2293.000000	0.901702
2292.000000	0.901720
2291.000000	0.901736
2290.000000	0.901759
2289.000000	0.901791
2288.000000	0.901822
2287.000000	0.901837
2286.000000	0.901838
2285.000000	0.901837
2284.000000	0.901845
2283.000000	0.901864
2282.000000	0.901891
2281.000000	0.901916
2280.000000	0.901934
2279.000000	0.901941
2278.000000	0.901944
2277.000000	0.901944
2276.000000	0.901942
2275.000000	0.901937
2274.000000	0.901940
2273.000000	0.901961
2272.000000	0.901994
2271.000000	0.902021
2270.000000	0.902033
2269.000000	0.902036
2268.000000	0.902037
2267.000000	0.902040
2266.000000	0.902046
2265.000000	0.902056
2264.000000	0.902064
2263.000000	0.902064
2262.000000	0.902059
2261.000000	0.902056
2260.000000	0.902059
2259.000000	0.902063
2258.000000	0.902063
2257.000000	0.902064
2256.000000	0.902069
2255.000000	0.902073
2254.000000	0.902065
2253.000000	0.902048
2252.000000	0.902036
2251.000000	0.902034
2250.000000	0.902043
2249.000000	0.902058
2248.000000	0.902076
2247.000000	0.902094
2246.000000	0.902104
2245.000000	0.902103
2244.000000	0.902096
2243.000000	0.902092
2242.000000	0.902098
2241.000000	0.902113
2240.000000	0.902133
2239.000000	0.902150
2238.000000	0.902158
2237.000000	0.902155
2236.000000	0.902145
2235.000000	0.902134
2234.000000	0.902134
2233.000000	0.902146
2232.000000	0.902158
2231.000000	0.902154
2230.000000	0.902132
2229.000000	0.902107
2228.000000	0.902097
2227.000000	0.902102
2226.000000	0.902111
2225.000000	0.902114
2224.000000	0.902112
2223.000000	0.902105
2222.000000	0.902093
2221.000000	0.902076
2220.000000	0.902060
2219.000000	0.902050
2218.000000	0.902049
2217.000000	0.902048
2216.000000	0.902042
2215.000000	0.902031
2214.000000	0.902020
2213.000000	0.902016
2212.000000	0.902018
2211.000000	0.902019
2210.000000	0.902011
2209.000000	0.901992
2208.000000	0.901969
2207.000000	0.901953
2206.000000	0.901948
2205.000000	0.901951
2204.000000	0.901946
2203.000000	0.901920
2202.000000	0.901874
2201.000000	0.901830
2200.000000	0.901805
2199.000000	0.901798
2198.000000	0.901792
2197.000000	0.901776
2196.000000	0.901759
2195.000000	0.901750
2194.000000	0.901742
2193.000000	0.901720
2192.000000	0.901683
2191.000000	0.901652
2190.000000	0.901644
2189.000000	0.901653
2188.000000	0.901659
2187.000000	0.901648
2186.000000	0.901626
2185.000000	0.901607
2184.000000	0.901597
2183.000000	0.901588
2182.000000	0.901573
2181.000000	0.901551
2180.000000	0.901525
2179.000000	0.901501
2178.000000	0.901482
2177.000000	0.901467
2176.000000	0.901451
2175.000000	0.901433
2174.000000	0.901414
2173.000000	0.901402
2172.000000	0.901399
2171.000000	0.901397
2170.000000	0.901378
2169.000000	0.901333
2168.000000	0.901273
2167.000000	0.901219
2166.000000	0.901188
2165.000000	0.901176
2164.000000	0.901164
2163.000000	0.901139
2162.000000	0.901096
2161.000000	0.901040
2160.000000	0.900984
2159.000000	0.900939
2158.000000	0.900915
2157.000000	0.900913
2156.000000	0.900914
2155.000000	0.900899
2154.000000	0.900863
2153.000000	0.900820
2152.000000	0.900787
2151.000000	0.900765
2150.000000	0.900741
2149.000000	0.900707
2148.000000	0.900669
2147.000000	0.900636
2146.000000	0.900610
2145.000000	0.900589
2144.000000	0.900571
2143.000000	0.900555
2142.000000	0.900532
2141.000000	0.900496
2140.000000	0.900448
2139.000000	0.900398
2138.000000	0.900353
2137.000000	0.900309
2136.000000	0.900265
2135.000000	0.900226
2134.000000	0.900193
2133.000000	0.900161
2132.000000	0.900120
2131.000000	0.900074
2130.000000	0.900037
2129.000000	0.900011
2128.000000	0.899983
2127.000000	0.899943
2126.000000	0.899896
2125.000000	0.899858
2124.000000	0.899833
2123.000000	0.899820
2122.000000	0.899813
2121.000000	0.899806
2120.000000	0.899785
2119.000000	0.899742
2118.000000	0.899683
2117.000000	0.899622
2116.000000	0.899568
2115.000000	0.899520
2114.000000	0.899478
2113.000000	0.899449
2112.000000	0.899431
2111.000000	0.899412
2110.000000	0.899379
2109.000000	0.899331
2108.000000	0.899281
2107.000000	0.899237
2106.000000	0.899199
2105.000000	0.899162
2104.000000	0.899117
2103.000000	0.899063
2102.000000	0.899003
2101.000000	0.898946
2100.000000	0.898907
2099.000000	0.898887
2098.000000	0.898877
2097.000000	0.898861
2096.000000	0.898830
2095.000000	0.898786
2094.000000	0.898742
2093.000000	0.898707
2092.000000	0.898680
2091.000000	0.898656
2090.000000	0.898630
2089.000000	0.898598
2088.000000	0.898554
2087.000000	0.898504
2086.000000	0.898458
2085.000000	0.898418
2084.000000	0.898378
2083.000000	0.898327
2082.000000	0.898271
2081.000000	0.898225
2080.000000	0.898198
2079.000000	0.898185
2078.000000	0.898171
2077.000000	0.898146
2076.000000	0.898110
2075.000000	0.898064
2074.000000	0.898018
2073.000000	0.897976
2072.000000	0.897943
2071.000000	0.897918
2070.000000	0.897898
2069.000000	0.897881
2068.000000	0.897858
2067.000000	0.897823
2066.000000	0.897773
2065.000000	0.897716
2064.000000	0.897661
2063.000000	0.897621
2062.000000	0.897600
2061.000000	0.897590
2060.000000	0.897578
2059.000000	0.897549
2058.000000	0.897502
2057.000000	0.897445
2056.000000	0.897392
2055.000000	0.897346
2054.000000	0.897304
2053.000000	0.897262
2052.000000	0.897217
2051.000000	0.897171
2050.000000	0.897132
2049.000000	0.897103
2048.000000	0.897083
2047.000000	0.897059
2046.000000	0.897028
2045.000000	0.896994
2044.000000	0.896963
2043.000000	0.896932
2042.000000	0.896898
2041.000000	0.896858
2040.000000	0.896819
2039.000000	0.896784
2038.000000	0.896752
2037.000000	0.896720
2036.000000	0.896685
2035.000000	0.896644
2034.000000	0.896596
2033.000000	0.896551
2032.000000	0.896520
2031.000000	0.896505
2030.000000	0.896493
2029.000000	0.896466
2028.000000	0.896419
2027.000000	0.896361
2026.000000	0.896306
2025.000000	0.896257
2024.000000	0.896217
2023.000000	0.896188
2022.000000	0.896166
2021.000000	0.896139
2020.000000	0.896099
2019.000000	0.896050
2018.000000	0.896007
2017.000000	0.895977
2016.000000	0.895958
2015.000000	0.895943
2014.000000	0.895931
2013.000000	0.895919
2012.000000	0.895900
2011.000000	0.895870
2010.000000	0.895833
2009.000000	0.895792
2008.000000	0.895747
2007.000000	0.895702
2006.000000	0.895665
2005.000000	0.895636
2004.000000	0.895610
2003.000000	0.895584
2002.000000	0.895566
2001.000000	0.895564
2000.000000	0.895571
1999.000000	0.895572
1998.000000	0.895557
1997.000000	0.895529
1996.000000	0.895493
1995.000000	0.895453
1994.000000	0.895412
1993.000000	0.895368
1992.000000	0.895321
1991.000000	0.895274
1990.000000	0.895242
1989.000000	0.895232
1988.000000	0.895237
1987.000000	0.895239
1986.000000	0.895227
1985.000000	0.895208
1984.000000	0.895190
1983.000000	0.895175
1982.000000	0.895157
1981.000000	0.895137
1980.000000	0.895114
1979.000000	0.895089
1978.000000	0.895066
1977.000000	0.895047
1976.000000	0.895034
1975.000000	0.895024
1974.000000	0.895013
1973.000000	0.895000
1972.000000	0.894983
1971.000000	0.894963
1970.000000	0.894943
1969.000000	0.894927
1968.000000	0.894915
1967.000000	0.894908
1966.000000	0.894911
1965.000000	0.894925
1964.000000	0.894941
1963.000000	0.894949
1962.000000	0.894946
1961.000000	0.894938
1960.000000	0.894922
1959.000000	0.894895
1958.000000	0.894856
1957.000000	0.894819
1956.000000	0.894790
1955.000000	0.894770
1954.000000	0.894757
1953.000000	0.894750
1952.000000	0.894750
1951.000000	0.894747
1950.000000	0.894736
1949.000000	0.894719
1948.000000	0.894702
1947.000000	0.894689
1946.000000	0.894679
1945.000000	0.894668
1944.000000	0.894654
1943.000000	0.894642
1942.000000	0.894640
1941.000000	0.894653
1940.000000	0.894669
1939.000000	0.894676
1938.000000	0.894673
1937.000000	0.894666
1936.000000	0.894655
1935.000000	0.894638
1934.000000	0.894617
1933.000000	0.894605
1932.000000	0.894607
1931.000000	0.894616
1930.000000	0.894626
1929.000000	0.894634
1928.000000	0.894638
1927.000000	0.894632
1926.000000	0.894616
1925.000000	0.894595
1924.000000	0.894578
1923.000000	0.894570
1922.000000	0.894570
1921.000000	0.894567
1920.000000	0.894548
1919.000000	0.894513
1918.000000	0.894492
1917.000000	0.894512
1916.000000	0.894568
1915.000000	0.894621
1914.000000	0.894644
1913.000000	0.894640
1912.000000	0.894628
1911.000000	0.894615
1910.000000	0.894603
1909.000000	0.894600
1908.000000	0.894612
1907.000000	0.894633
1906.000000	0.894656
1905.000000	0.894681
1904.000000	0.894707
1903.000000	0.894726
1902.000000	0.894729
1901.000000	0.894723
1900.000000	0.894720
1899.000000	0.894725
1898.000000	0.894734
1897.000000	0.894743
1896.000000	0.894748
1895.000000	0.894746
1894.000000	0.894742
1893.000000	0.894740
1892.000000	0.894736
1891.000000	0.894722
1890.000000	0.894702
1889.000000	0.894699
1888.000000	0.894727
1887.000000	0.894774
1886.000000	0.894815
1885.000000	0.894840
1884.000000	0.894850
1883.000000	0.894849
1882.000000	0.894840
1881.000000	0.894833
1880.000000	0.894830
1879.000000	0.894826
1878.000000	0.894817
1877.000000	0.894813
1876.000000	0.894821
1875.000000	0.894837
1874.000000	0.894856
1873.000000	0.894876
1872.000000	0.894886
1871.000000	0.894862
1870.000000	0.894803
1869.000000	0.894745
1868.000000	0.894733
1867.000000	0.894775
1866.000000	0.894839
1865.000000	0.894895
1864.000000	0.894931
1863.000000	0.894946
1862.000000	0.894940
1861.000000	0.894923
1860.000000	0.894911
1859.000000	0.894911
1858.000000	0.894924
1857.000000	0.894947
1856.000000	0.894979
1855.000000	0.895009
1854.000000	0.895027
1853.000000	0.895030
1852.000000	0.895028
1851.000000	0.895028
1850.000000	0.895031
1849.000000	0.895036
1848.000000	0.895034
1847.000000	0.895001
1846.000000	0.894922
1845.000000	0.894823
1844.000000	0.894765
1843.000000	0.894795
1842.000000	0.894896
1841.000000	0.895012
1840.000000	0.895095
1839.000000	0.895140
1838.000000	0.895165
1837.000000	0.895180
1836.000000	0.895181
1835.000000	0.895173
1834.000000	0.895164
1833.000000	0.895155
1832.000000	0.895129
1831.000000	0.895080
1830.000000	0.895039
1829.000000	0.895048
1828.000000	0.895107
1827.000000	0.895170
1826.000000	0.895205
1825.000000	0.895227
1824.000000	0.895272
1823.000000	0.895339
1822.000000	0.895399
1821.000000	0.895431
1820.000000	0.895439
1819.000000	0.895438
1818.000000	0.895439
1817.000000	0.895453
1816.000000	0.895482
1815.000000	0.895513
1814.000000	0.895527
1813.000000	0.895523
1812.000000	0.895514
1811.000000	0.895512
1810.000000	0.895518
1809.000000	0.895532
1808.000000	0.895554
1807.000000	0.895577
1806.000000	0.895591
1805.000000	0.895595
1804.000000	0.895589
1803.000000	0.895569
1802.000000	0.895540
1801.000000	0.895521
1800.000000	0.895532
1799.000000	0.895572
1798.000000	0.895624
1797.000000	0.895669
1796.000000	0.895682
1795.000000	0.895635
1794.000000	0.895526
1793.000000	0.895413
1792.000000	0.895374
1791.000000	0.895441
1790.000000	0.895571
1789.000000	0.895690
1788.000000	0.895755
1787.000000	0.895758
1786.000000	0.895727
1785.000000	0.895705
1784.000000	0.895724
1783.000000	0.895774
1782.000000	0.895821
1781.000000	0.895845
1780.000000	0.895863
1779.000000	0.895893
1778.000000	0.895937
1777.000000	0.895976
1776.000000	0.895982
1775.000000	0.895924
1774.000000	0.895796
1773.000000	0.895660
1772.000000	0.895609
1771.000000	0.895676
1770.000000	0.895803
1769.000000	0.895911
1768.000000	0.895989
1767.000000	0.896075
1766.000000	0.896176
1765.000000	0.896246
1764.000000	0.896248
1763.000000	0.896205
1762.000000	0.896179
1761.000000	0.896215
1760.000000	0.896296
1759.000000	0.896368
1758.000000	0.896395
1757.000000	0.896397
1756.000000	0.896417
1755.000000	0.896461
1754.000000	0.896478
1753.000000	0.896425
1752.000000	0.896332
1751.000000	0.896277
1750.000000	0.896307
1749.000000	0.896400
1748.000000	0.896506
1747.000000	0.896599
1746.000000	0.896675
1745.000000	0.896733
1744.000000	0.896772
1743.000000	0.896788
1742.000000	0.896773
1741.000000	0.896730
1740.000000	0.896700
1739.000000	0.896738
1738.000000	0.896826
1737.000000	0.896846
1736.000000	0.896687
1735.000000	0.896404
1734.000000	0.896213
1733.000000	0.896281
1732.000000	0.896563
1731.000000	0.896871
1730.000000	0.897072
1729.000000	0.897171
1728.000000	0.897237
1727.000000	0.897298
1726.000000	0.897347
1725.000000	0.897384
1724.000000	0.897415
1723.000000	0.897445
1722.000000	0.897459
1721.000000	0.897425
1720.000000	0.897297
1719.000000	0.897069
1718.000000	0.896830
1717.000000	0.896727
1716.000000	0.896832
1715.000000	0.897072
1714.000000	0.897320
1713.000000	0.897506
1712.000000	0.897626
1711.000000	0.897684
1710.000000	0.897687
1709.000000	0.897660
1708.000000	0.897625
1707.000000	0.897581
1706.000000	0.897537
1705.000000	0.897533
1704.000000	0.897564
1703.000000	0.897518
1702.000000	0.897299
1701.000000	0.897001
1700.000000	0.896848
1699.000000	0.896924
1698.000000	0.897069
1697.000000	0.897099
1696.000000	0.897051
1695.000000	0.897121
1694.000000	0.897388
1693.000000	0.897727
1692.000000	0.897960
1691.000000	0.898033
1690.000000	0.898016
1689.000000	0.897981
1688.000000	0.897912
1687.000000	0.897728
1686.000000	0.897412
1685.000000	0.897100
1684.000000	0.897006
1683.000000	0.897215
1682.000000	0.897590
1681.000000	0.897914
1680.000000	0.898085
1679.000000	0.898140
1678.000000	0.898121
1677.000000	0.898028
1676.000000	0.897894
1675.000000	0.897820
1674.000000	0.897873
1673.000000	0.897993
1672.000000	0.898057
1671.000000	0.898016
1670.000000	0.897942
1669.000000	0.897933
1668.000000	0.898024
1667.000000	0.898170
1666.000000	0.898286
1665.000000	0.898309
1664.000000	0.898241
1663.000000	0.898157
1662.000000	0.898143
1661.000000	0.898221
1660.000000	0.898336
1659.000000	0.898426
1658.000000	0.898464
1657.000000	0.898415
1656.000000	0.898194
1655.000000	0.897745
1654.000000	0.897197
1653.000000	0.896862
1652.000000	0.896980
1651.000000	0.897465
1650.000000	0.897975
1649.000000	0.898221
1648.000000	0.898178
1647.000000	0.898035
1646.000000	0.897988
1645.000000	0.898111
1644.000000	0.898345
1643.000000	0.898572
1642.000000	0.898700
1641.000000	0.898716
1640.000000	0.898669
1639.000000	0.898577
1638.000000	0.898408
1637.000000	0.898166
1636.000000	0.897965
1635.000000	0.897952
1634.000000	0.898150
1633.000000	0.898435
1632.000000	0.898656
1631.000000	0.898757
1630.000000	0.898767
1629.000000	0.898740
1628.000000	0.898712
1627.000000	0.898693
1626.000000	0.898665
1625.000000	0.898612
1624.000000	0.898549
1623.000000	0.898526
1622.000000	0.898568
1621.000000	0.898634
1620.000000	0.898634
1619.000000	0.898508
1618.000000	0.898292
1617.000000	0.898119
1616.000000	0.898128
1615.000000	0.898343
1614.000000	0.898644
1613.000000	0.898876
1612.000000	0.898974
1611.000000	0.898980
1610.000000	0.898959
1609.000000	0.898936
1608.000000	0.898914
1607.000000	0.898905
1606.000000	0.898912
1605.000000	0.898922
1604.000000	0.898925
1603.000000	0.898933
1602.000000	0.898952
1601.000000	0.898970
1600.000000	0.898972
1599.000000	0.898967
1598.000000	0.898975
1597.000000	0.898997
1596.000000	0.899018
1595.000000	0.899034
1594.000000	0.899052
1593.000000	0.899070
1592.000000	0.899086
1591.000000	0.899103
1590.000000	0.899125
1589.000000	0.899150
1588.000000	0.899166
1587.000000	0.899167
1586.000000	0.899157
1585.000000	0.899147
1584.000000	0.899146
1583.000000	0.899158
1582.000000	0.899182
1581.000000	0.899205
1580.000000	0.899191
1579.000000	0.899090
1578.000000	0.898881
1577.000000	0.898634
1576.000000	0.898502
1575.000000	0.898595
1574.000000	0.898850
1573.000000	0.899076
1572.000000	0.899135
1571.000000	0.899056
1570.000000	0.898972
1569.000000	0.898978
1568.000000	0.899066
1567.000000	0.899171
1566.000000	0.899245
1565.000000	0.899283
1564.000000	0.899295
1563.000000	0.899241
1562.000000	0.899031
1561.000000	0.898615
1560.000000	0.898112
1559.000000	0.897790
1558.000000	0.897835
1557.000000	0.898167
1556.000000	0.898534
1555.000000	0.898774
1554.000000	0.898913
1553.000000	0.899037
1552.000000	0.899168
1551.000000	0.899269
1550.000000	0.899330
1549.000000	0.899367
1548.000000	0.899366
1547.000000	0.899295
1546.000000	0.899156
1545.000000	0.898995
1544.000000	0.898848
1543.000000	0.898694
1542.000000	0.898486
1541.000000	0.898239
1540.000000	0.898071
1539.000000	0.898130
1538.000000	0.898445
1537.000000	0.898858
1536.000000	0.899139
1535.000000	0.899190
1534.000000	0.899109
1533.000000	0.899067
1532.000000	0.899132
1531.000000	0.899249
1530.000000	0.899335
1529.000000	0.899352
1528.000000	0.899310
1527.000000	0.899240
1526.000000	0.899183
1525.000000	0.899144
1524.000000	0.899071
1523.000000	0.898915
1522.000000	0.898729
1521.000000	0.898646
1520.000000	0.898738
1519.000000	0.898931
1518.000000	0.899097
1517.000000	0.899189
1516.000000	0.899254
1515.000000	0.899331
1514.000000	0.899401
1513.000000	0.899439
1512.000000	0.899448
1511.000000	0.899422
1510.000000	0.899309
1509.000000	0.899060
1508.000000	0.898717
1507.000000	0.898432
1506.000000	0.898374
1505.000000	0.898602
1504.000000	0.899014
1503.000000	0.899430
1502.000000	0.899727
1501.000000	0.899889
1500.000000	0.899961
