PE IR       SUBTECH     SPECTRUM    ASCII       PEDS        4.00        
   -1
TE108B1_024_119K.ASC
20/02/21
15:42:59.00
20/02/21
15:42:59.00
Administrator
Sample 024 By Administrator Date Friday, February 21 2020
1500.000000
#HDR
-1
-1
#GR
cm-1
A
1.0
0.0
4000.000000
-1.000000
2501
8
1.006371
0.935717
#DATA
4000.000000	0.948063
3999.000000	0.947983
3998.000000	0.947955
3997.000000	0.947963
3996.000000	0.947967
3995.000000	0.947952
3994.000000	0.947933
3993.000000	0.947931
3992.000000	0.947943
3991.000000	0.947951
3990.000000	0.947938
3989.000000	0.947897
3988.000000	0.947831
3987.000000	0.947756
3986.000000	0.947697
3985.000000	0.947670
3984.000000	0.947664
3983.000000	0.947653
3982.000000	0.947623
3981.000000	0.947580
3980.000000	0.947539
3979.000000	0.947506
3978.000000	0.947479
3977.000000	0.947455
3976.000000	0.947429
3975.000000	0.947398
3974.000000	0.947357
3973.000000	0.947302
3972.000000	0.947238
3971.000000	0.947171
3970.000000	0.947114
3969.000000	0.947069
3968.000000	0.947031
3967.000000	0.946988
3966.000000	0.946937
3965.000000	0.946878
3964.000000	0.946811
3963.000000	0.946738
3962.000000	0.946654
3961.000000	0.946561
3960.000000	0.946465
3959.000000	0.946378
3958.000000	0.946311
3957.000000	0.946267
3956.000000	0.946234
3955.000000	0.946194
3954.000000	0.946137
3953.000000	0.946066
3952.000000	0.945990
3951.000000	0.945913
3950.000000	0.945825
3949.000000	0.945719
3948.000000	0.945601
3947.000000	0.945486
3946.000000	0.945388
3945.000000	0.945303
3944.000000	0.945216
3943.000000	0.945120
3942.000000	0.945026
3941.000000	0.944951
3940.000000	0.944903
3939.000000	0.944870
3938.000000	0.944825
3937.000000	0.944746
3936.000000	0.944626
3935.000000	0.944478
3934.000000	0.944327
3933.000000	0.944198
3932.000000	0.944101
3931.000000	0.944029
3930.000000	0.943964
3929.000000	0.943885
3928.000000	0.943780
3927.000000	0.943650
3926.000000	0.943503
3925.000000	0.943352
3924.000000	0.943214
3923.000000	0.943098
3922.000000	0.943005
3921.000000	0.942925
3920.000000	0.942843
3919.000000	0.942744
3918.000000	0.942629
3917.000000	0.942513
3916.000000	0.942419
3915.000000	0.942361
3914.000000	0.942330
3913.000000	0.942303
3912.000000	0.942254
3911.000000	0.942177
3910.000000	0.942077
3909.000000	0.941957
3908.000000	0.941806
3907.000000	0.941609
3906.000000	0.941364
3905.000000	0.941102
3904.000000	0.940869
3903.000000	0.940700
3902.000000	0.940599
3901.000000	0.940547
3900.000000	0.940527
3899.000000	0.940533
3898.000000	0.940558
3897.000000	0.940585
3896.000000	0.940587
3895.000000	0.940538
3894.000000	0.940426
3893.000000	0.940267
3892.000000	0.940106
3891.000000	0.939987
3890.000000	0.939924
3889.000000	0.939877
3888.000000	0.939785
3887.000000	0.939624
3886.000000	0.939440
3885.000000	0.939307
3884.000000	0.939257
3883.000000	0.939245
3882.000000	0.939184
3881.000000	0.939040
3880.000000	0.938862
3879.000000	0.938740
3878.000000	0.938717
3877.000000	0.938762
3876.000000	0.938809
3875.000000	0.938816
3874.000000	0.938766
3873.000000	0.938651
3872.000000	0.938467
3871.000000	0.938247
3870.000000	0.938068
3869.000000	0.937999
3868.000000	0.938033
3867.000000	0.938087
3866.000000	0.938075
3865.000000	0.937985
3864.000000	0.937877
3863.000000	0.937814
3862.000000	0.937810
3861.000000	0.937834
3860.000000	0.937853
3859.000000	0.937843
3858.000000	0.937756
3857.000000	0.937522
3856.000000	0.937097
3855.000000	0.936553
3854.000000	0.936076
3853.000000	0.935866
3852.000000	0.935995
3851.000000	0.936361
3850.000000	0.936766
3849.000000	0.937053
3848.000000	0.937178
3847.000000	0.937186
3846.000000	0.937138
3845.000000	0.937065
3844.000000	0.936978
3843.000000	0.936886
3842.000000	0.936787
3841.000000	0.936654
3840.000000	0.936457
3839.000000	0.936213
3838.000000	0.935998
3837.000000	0.935909
3836.000000	0.935980
3835.000000	0.936152
3834.000000	0.936316
3833.000000	0.936397
3832.000000	0.936401
3831.000000	0.936387
3830.000000	0.936398
3829.000000	0.936430
3828.000000	0.936456
3827.000000	0.936469
3826.000000	0.936471
3825.000000	0.936444
3824.000000	0.936345
3823.000000	0.936166
3822.000000	0.935977
3821.000000	0.935882
3820.000000	0.935918
3819.000000	0.936000
3818.000000	0.936003
3817.000000	0.935892
3816.000000	0.935771
3815.000000	0.935780
3814.000000	0.935960
3813.000000	0.936217
3812.000000	0.936420
3811.000000	0.936494
3810.000000	0.936435
3809.000000	0.936276
3808.000000	0.936077
3807.000000	0.935927
3806.000000	0.935894
3805.000000	0.935960
3804.000000	0.936012
3803.000000	0.935952
3802.000000	0.935809
3801.000000	0.935717
3800.000000	0.935790
3799.000000	0.936010
3798.000000	0.936260
3797.000000	0.936440
3796.000000	0.936539
3795.000000	0.936605
3794.000000	0.936677
3793.000000	0.936753
3792.000000	0.936816
3791.000000	0.936861
3790.000000	0.936899
3789.000000	0.936934
3788.000000	0.936962
3787.000000	0.936982
3786.000000	0.937006
3785.000000	0.937053
3784.000000	0.937121
3783.000000	0.937184
3782.000000	0.937203
3781.000000	0.937166
3780.000000	0.937104
3779.000000	0.937072
3778.000000	0.937108
3777.000000	0.937200
3776.000000	0.937307
3775.000000	0.937389
3774.000000	0.937434
3773.000000	0.937445
3772.000000	0.937433
3771.000000	0.937412
3770.000000	0.937404
3769.000000	0.937425
3768.000000	0.937466
3767.000000	0.937515
3766.000000	0.937574
3765.000000	0.937655
3764.000000	0.937754
3763.000000	0.937842
3762.000000	0.937891
3761.000000	0.937903
3760.000000	0.937914
3759.000000	0.937961
3758.000000	0.938048
3757.000000	0.938135
3756.000000	0.938151
3755.000000	0.938034
3754.000000	0.937773
3753.000000	0.937438
3752.000000	0.937155
3751.000000	0.937045
3750.000000	0.937150
3749.000000	0.937412
3748.000000	0.937687
3747.000000	0.937826
3746.000000	0.937775
3745.000000	0.937638
3744.000000	0.937614
3743.000000	0.937839
3742.000000	0.938266
3741.000000	0.938704
3740.000000	0.938975
3739.000000	0.939031
3738.000000	0.938950
3737.000000	0.938854
3736.000000	0.938826
3735.000000	0.938886
3734.000000	0.939010
3733.000000	0.939163
3732.000000	0.939337
3731.000000	0.939544
3730.000000	0.939784
3729.000000	0.940019
3728.000000	0.940205
3727.000000	0.940330
3726.000000	0.940425
3725.000000	0.940527
3724.000000	0.940645
3723.000000	0.940766
3722.000000	0.940887
3721.000000	0.941019
3720.000000	0.941175
3719.000000	0.941358
3718.000000	0.941566
3717.000000	0.941782
3716.000000	0.941966
3715.000000	0.942075
3714.000000	0.942097
3713.000000	0.942081
3712.000000	0.942120
3711.000000	0.942285
3710.000000	0.942586
3709.000000	0.942979
3708.000000	0.943403
3707.000000	0.943810
3706.000000	0.944178
3705.000000	0.944496
3704.000000	0.944771
3703.000000	0.945030
3702.000000	0.945310
3701.000000	0.945642
3700.000000	0.946029
3699.000000	0.946452
3698.000000	0.946878
3697.000000	0.947284
3696.000000	0.947656
3695.000000	0.947989
3694.000000	0.948281
3693.000000	0.948527
3692.000000	0.948721
3691.000000	0.948869
3690.000000	0.949020
3689.000000	0.949274
3688.000000	0.949727
3687.000000	0.950396
3686.000000	0.951191
3685.000000	0.951974
3684.000000	0.952655
3683.000000	0.953222
3682.000000	0.953721
3681.000000	0.954195
3680.000000	0.954655
3679.000000	0.955083
3678.000000	0.955455
3677.000000	0.955792
3676.000000	0.956179
3675.000000	0.956710
3674.000000	0.957389
3673.000000	0.958106
3672.000000	0.958738
3671.000000	0.959281
3670.000000	0.959846
3669.000000	0.960540
3668.000000	0.961351
3667.000000	0.962175
3666.000000	0.962919
3665.000000	0.963570
3664.000000	0.964175
3663.000000	0.964781
3662.000000	0.965400
3661.000000	0.966011
3660.000000	0.966576
3659.000000	0.967072
3658.000000	0.967517
3657.000000	0.967971
3656.000000	0.968492
3655.000000	0.969092
3654.000000	0.969715
3653.000000	0.970259
3652.000000	0.970660
3651.000000	0.970945
3650.000000	0.971223
3649.000000	0.971617
3648.000000	0.972172
3647.000000	0.972845
3646.000000	0.973546
3645.000000	0.974197
3644.000000	0.974764
3643.000000	0.975255
3642.000000	0.975700
3641.000000	0.976130
3640.000000	0.976557
3639.000000	0.976968
3638.000000	0.977341
3637.000000	0.977662
3636.000000	0.977945
3635.000000	0.978223
3634.000000	0.978522
3633.000000	0.978825
3632.000000	0.979076
3631.000000	0.979232
3630.000000	0.979333
3629.000000	0.979490
3628.000000	0.979798
3627.000000	0.980248
3626.000000	0.980739
3625.000000	0.981163
3624.000000	0.981474
3623.000000	0.981685
3622.000000	0.981825
3621.000000	0.981926
3620.000000	0.982031
3619.000000	0.982188
3618.000000	0.982412
3617.000000	0.982672
3616.000000	0.982913
3615.000000	0.983098
3614.000000	0.983234
3613.000000	0.983349
3612.000000	0.983459
3611.000000	0.983564
3610.000000	0.983671
3609.000000	0.983804
3608.000000	0.983996
3607.000000	0.984242
3606.000000	0.984495
3605.000000	0.984700
3604.000000	0.984840
3603.000000	0.984935
3602.000000	0.985014
3601.000000	0.985085
3600.000000	0.985148
3599.000000	0.985211
3598.000000	0.985291
3597.000000	0.985390
3596.000000	0.985489
3595.000000	0.985571
3594.000000	0.985639
3593.000000	0.985712
3592.000000	0.985787
3591.000000	0.985832
3590.000000	0.985813
3589.000000	0.985741
3588.000000	0.985676
3587.000000	0.985682
3586.000000	0.985775
3585.000000	0.985924
3584.000000	0.986080
3583.000000	0.986217
3582.000000	0.986324
3581.000000	0.986394
3580.000000	0.986426
3579.000000	0.986433
3578.000000	0.986444
3577.000000	0.986477
3576.000000	0.986525
3575.000000	0.986568
3574.000000	0.986593
3573.000000	0.986609
3572.000000	0.986623
3571.000000	0.986625
3570.000000	0.986597
3569.000000	0.986534
3568.000000	0.986458
3567.000000	0.986407
3566.000000	0.986404
3565.000000	0.986449
3564.000000	0.986526
3563.000000	0.986620
3562.000000	0.986718
3561.000000	0.986805
3560.000000	0.986861
3559.000000	0.986872
3558.000000	0.986848
3557.000000	0.986821
3556.000000	0.986822
3555.000000	0.986852
3554.000000	0.986890
3553.000000	0.986913
3552.000000	0.986920
3551.000000	0.986928
3550.000000	0.986953
3549.000000	0.986988
3548.000000	0.987017
3547.000000	0.987026
3546.000000	0.987013
3545.000000	0.986994
3544.000000	0.986993
3543.000000	0.987028
3542.000000	0.987094
3541.000000	0.987170
3540.000000	0.987231
3539.000000	0.987271
3538.000000	0.987295
3537.000000	0.987317
3536.000000	0.987351
3535.000000	0.987402
3534.000000	0.987464
3533.000000	0.987526
3532.000000	0.987582
3531.000000	0.987630
3530.000000	0.987668
3529.000000	0.987695
3528.000000	0.987719
3527.000000	0.987756
3526.000000	0.987809
3525.000000	0.987869
3524.000000	0.987924
3523.000000	0.987972
3522.000000	0.988023
3521.000000	0.988089
3520.000000	0.988173
3519.000000	0.988269
3518.000000	0.988369
3517.000000	0.988461
3516.000000	0.988534
3515.000000	0.988585
3514.000000	0.988617
3513.000000	0.988633
3512.000000	0.988649
3511.000000	0.988692
3510.000000	0.988786
3509.000000	0.988926
3508.000000	0.989079
3507.000000	0.989207
3506.000000	0.989300
3505.000000	0.989375
3504.000000	0.989454
3503.000000	0.989540
3502.000000	0.989626
3501.000000	0.989708
3500.000000	0.989792
3499.000000	0.989885
3498.000000	0.989986
3497.000000	0.990088
3496.000000	0.990186
3495.000000	0.990285
3494.000000	0.990386
3493.000000	0.990480
3492.000000	0.990557
3491.000000	0.990617
3490.000000	0.990673
3489.000000	0.990739
3488.000000	0.990828
3487.000000	0.990939
3486.000000	0.991072
3485.000000	0.991218
3484.000000	0.991368
3483.000000	0.991508
3482.000000	0.991627
3481.000000	0.991722
3480.000000	0.991800
3479.000000	0.991866
3478.000000	0.991931
3477.000000	0.992007
3476.000000	0.992104
3475.000000	0.992225
3474.000000	0.992357
3473.000000	0.992478
3472.000000	0.992580
3471.000000	0.992672
3470.000000	0.992775
3469.000000	0.992899
3468.000000	0.993044
3467.000000	0.993206
3466.000000	0.993379
3465.000000	0.993556
3464.000000	0.993723
3463.000000	0.993871
3462.000000	0.994001
3461.000000	0.994130
3460.000000	0.994272
3459.000000	0.994426
3458.000000	0.994573
3457.000000	0.994693
3456.000000	0.994793
3455.000000	0.994901
3454.000000	0.995038
3453.000000	0.995191
3452.000000	0.995323
3451.000000	0.995418
3450.000000	0.995493
3449.000000	0.995581
3448.000000	0.995703
3447.000000	0.995852
3446.000000	0.996008
3445.000000	0.996150
3444.000000	0.996270
3443.000000	0.996383
3442.000000	0.996513
3441.000000	0.996674
3440.000000	0.996849
3439.000000	0.997012
3438.000000	0.997148
3437.000000	0.997263
3436.000000	0.997366
3435.000000	0.997464
3434.000000	0.997562
3433.000000	0.997669
3432.000000	0.997787
3431.000000	0.997913
3430.000000	0.998038
3429.000000	0.998159
3428.000000	0.998274
3427.000000	0.998387
3426.000000	0.998506
3425.000000	0.998633
3424.000000	0.998760
3423.000000	0.998870
3422.000000	0.998955
3421.000000	0.999029
3420.000000	0.999111
3419.000000	0.999204
3418.000000	0.999301
3417.000000	0.999394
3416.000000	0.999489
3415.000000	0.999592
3414.000000	0.999704
3413.000000	0.999826
3412.000000	0.999960
3411.000000	1.000100
3410.000000	1.000230
3409.000000	1.000337
3408.000000	1.000424
3407.000000	1.000507
3406.000000	1.000589
3405.000000	1.000661
3404.000000	1.000711
3403.000000	1.000741
3402.000000	1.000770
3401.000000	1.000815
3400.000000	1.000875
3399.000000	1.000934
3398.000000	1.000981
3397.000000	1.001022
3396.000000	1.001070
3395.000000	1.001129
3394.000000	1.001187
3393.000000	1.001237
3392.000000	1.001285
3391.000000	1.001341
3390.000000	1.001404
3389.000000	1.001460
3388.000000	1.001509
3387.000000	1.001569
3386.000000	1.001643
3385.000000	1.001713
3384.000000	1.001756
3383.000000	1.001772
3382.000000	1.001787
3381.000000	1.001824
3380.000000	1.001887
3379.000000	1.001960
3378.000000	1.002019
3377.000000	1.002056
3376.000000	1.002083
3375.000000	1.002123
3374.000000	1.002184
3373.000000	1.002246
3372.000000	1.002278
3371.000000	1.002270
3370.000000	1.002247
3369.000000	1.002241
3368.000000	1.002264
3367.000000	1.002302
3366.000000	1.002335
3365.000000	1.002355
3364.000000	1.002370
3363.000000	1.002391
3362.000000	1.002427
3361.000000	1.002473
3360.000000	1.002509
3359.000000	1.002522
3358.000000	1.002518
3357.000000	1.002518
3356.000000	1.002535
3355.000000	1.002563
3354.000000	1.002587
3353.000000	1.002600
3352.000000	1.002607
3351.000000	1.002622
3350.000000	1.002648
3349.000000	1.002677
3348.000000	1.002696
3347.000000	1.002698
3346.000000	1.002687
3345.000000	1.002671
3344.000000	1.002657
3343.000000	1.002648
3342.000000	1.002646
3341.000000	1.002661
3340.000000	1.002704
3339.000000	1.002771
3338.000000	1.002841
3337.000000	1.002892
3336.000000	1.002914
3335.000000	1.002917
3334.000000	1.002912
3333.000000	1.002904
3332.000000	1.002898
3331.000000	1.002895
3330.000000	1.002901
3329.000000	1.002924
3328.000000	1.002980
3327.000000	1.003070
3326.000000	1.003172
3325.000000	1.003247
3324.000000	1.003272
3323.000000	1.003265
3322.000000	1.003254
3321.000000	1.003251
3320.000000	1.003246
3319.000000	1.003235
3318.000000	1.003234
3317.000000	1.003268
3316.000000	1.003337
3315.000000	1.003424
3314.000000	1.003506
3313.000000	1.003569
3312.000000	1.003611
3311.000000	1.003632
3310.000000	1.003636
3309.000000	1.003626
3308.000000	1.003613
3307.000000	1.003610
3306.000000	1.003632
3305.000000	1.003680
3304.000000	1.003744
3303.000000	1.003810
3302.000000	1.003870
3301.000000	1.003922
3300.000000	1.003970
3299.000000	1.004023
3298.000000	1.004083
3297.000000	1.004139
3296.000000	1.004170
3295.000000	1.004170
3294.000000	1.004156
3293.000000	1.004153
3292.000000	1.004169
3291.000000	1.004199
3290.000000	1.004234
3289.000000	1.004274
3288.000000	1.004313
3287.000000	1.004343
3286.000000	1.004356
3285.000000	1.004358
3284.000000	1.004360
3283.000000	1.004372
3282.000000	1.004394
3281.000000	1.004422
3280.000000	1.004457
3279.000000	1.004500
3278.000000	1.004549
3277.000000	1.004597
3276.000000	1.004637
3275.000000	1.004664
3274.000000	1.004688
3273.000000	1.004718
3272.000000	1.004757
3271.000000	1.004798
3270.000000	1.004842
3269.000000	1.004891
3268.000000	1.004940
3267.000000	1.004976
3266.000000	1.004985
3265.000000	1.004972
3264.000000	1.004953
3263.000000	1.004942
3262.000000	1.004944
3261.000000	1.004951
3260.000000	1.004956
3259.000000	1.004962
3258.000000	1.004978
3257.000000	1.005006
3256.000000	1.005034
3255.000000	1.005060
3254.000000	1.005112
3253.000000	1.005213
3252.000000	1.005348
3251.000000	1.005456
3250.000000	1.005490
3249.000000	1.005460
3248.000000	1.005418
3247.000000	1.005399
3246.000000	1.005401
3245.000000	1.005406
3244.000000	1.005409
3243.000000	1.005423
3242.000000	1.005456
3241.000000	1.005505
3240.000000	1.005553
3239.000000	1.005588
3238.000000	1.005606
3237.000000	1.005612
3236.000000	1.005613
3235.000000	1.005611
3234.000000	1.005607
3233.000000	1.005610
3232.000000	1.005625
3231.000000	1.005651
3230.000000	1.005684
3229.000000	1.005721
3228.000000	1.005758
3227.000000	1.005790
3226.000000	1.005809
3225.000000	1.005819
3224.000000	1.005836
3223.000000	1.005878
3222.000000	1.005947
3221.000000	1.006020
3220.000000	1.006066
3219.000000	1.006071
3218.000000	1.006059
3217.000000	1.006064
3216.000000	1.006090
3215.000000	1.006112
3214.000000	1.006111
3213.000000	1.006102
3212.000000	1.006111
3211.000000	1.006141
3210.000000	1.006172
3209.000000	1.006188
3208.000000	1.006189
3207.000000	1.006177
3206.000000	1.006149
3205.000000	1.006110
3204.000000	1.006075
3203.000000	1.006049
3202.000000	1.006032
3201.000000	1.006024
3200.000000	1.006032
3199.000000	1.006058
3198.000000	1.006087
3197.000000	1.006103
3196.000000	1.006106
3195.000000	1.006102
3194.000000	1.006094
3193.000000	1.006089
3192.000000	1.006096
3191.000000	1.006127
3190.000000	1.006169
3189.000000	1.006198
3188.000000	1.006201
3187.000000	1.006180
3186.000000	1.006155
3185.000000	1.006137
3184.000000	1.006133
3183.000000	1.006141
3182.000000	1.006148
3181.000000	1.006143
3180.000000	1.006120
3179.000000	1.006088
3178.000000	1.006063
3177.000000	1.006058
3176.000000	1.006076
3175.000000	1.006104
3174.000000	1.006120
3173.000000	1.006112
3172.000000	1.006090
3171.000000	1.006074
3170.000000	1.006076
3169.000000	1.006085
3168.000000	1.006085
3167.000000	1.006077
3166.000000	1.006074
3165.000000	1.006090
3164.000000	1.006121
3163.000000	1.006154
3162.000000	1.006175
3161.000000	1.006179
3160.000000	1.006172
3159.000000	1.006165
3158.000000	1.006164
3157.000000	1.006164
3156.000000	1.006154
3155.000000	1.006134
3154.000000	1.006117
3153.000000	1.006113
3152.000000	1.006122
3151.000000	1.006132
3150.000000	1.006145
3149.000000	1.006166
3148.000000	1.006194
3147.000000	1.006217
3146.000000	1.006225
3145.000000	1.006229
3144.000000	1.006245
3143.000000	1.006269
3142.000000	1.006285
3141.000000	1.006283
3140.000000	1.006272
3139.000000	1.006270
3138.000000	1.006281
3137.000000	1.006301
3136.000000	1.006321
3135.000000	1.006332
3134.000000	1.006329
3133.000000	1.006320
3132.000000	1.006307
3131.000000	1.006286
3130.000000	1.006255
3129.000000	1.006238
3128.000000	1.006263
3127.000000	1.006324
3126.000000	1.006371
3125.000000	1.006361
3124.000000	1.006299
3123.000000	1.006230
3122.000000	1.006187
3121.000000	1.006172
3120.000000	1.006170
3119.000000	1.006168
3118.000000	1.006157
3117.000000	1.006136
3116.000000	1.006124
3115.000000	1.006146
3114.000000	1.006200
3113.000000	1.006250
3112.000000	1.006257
3111.000000	1.006222
3110.000000	1.006184
3109.000000	1.006180
3108.000000	1.006219
3107.000000	1.006276
3106.000000	1.006310
3105.000000	1.006294
3104.000000	1.006237
3103.000000	1.006172
3102.000000	1.006123
3101.000000	1.006090
3100.000000	1.006059
3099.000000	1.006024
3098.000000	1.005986
3097.000000	1.005936
3096.000000	1.005862
3095.000000	1.005770
3094.000000	1.005691
3093.000000	1.005649
3092.000000	1.005638
3091.000000	1.005636
3090.000000	1.005622
3089.000000	1.005586
3088.000000	1.005529
3087.000000	1.005460
3086.000000	1.005399
3085.000000	1.005357
3084.000000	1.005330
3083.000000	1.005306
3082.000000	1.005273
3081.000000	1.005231
3080.000000	1.005189
3079.000000	1.005158
3078.000000	1.005142
3077.000000	1.005129
3076.000000	1.005097
3075.000000	1.005033
3074.000000	1.004944
3073.000000	1.004857
3072.000000	1.004792
3071.000000	1.004749
3070.000000	1.004716
3069.000000	1.004674
3068.000000	1.004615
3067.000000	1.004545
3066.000000	1.004474
3065.000000	1.004411
3064.000000	1.004358
3063.000000	1.004314
3062.000000	1.004276
3061.000000	1.004240
3060.000000	1.004196
3059.000000	1.004133
3058.000000	1.004053
3057.000000	1.003977
3056.000000	1.003927
3055.000000	1.003908
3054.000000	1.003899
3053.000000	1.003878
3052.000000	1.003834
3051.000000	1.003777
3050.000000	1.003720
3049.000000	1.003672
3048.000000	1.003634
3047.000000	1.003604
3046.000000	1.003570
3045.000000	1.003519
3044.000000	1.003445
3043.000000	1.003353
3042.000000	1.003256
3041.000000	1.003163
3040.000000	1.003081
3039.000000	1.003023
3038.000000	1.002995
3037.000000	1.002983
3036.000000	1.002968
3035.000000	1.002946
3034.000000	1.002926
3033.000000	1.002909
3032.000000	1.002880
3031.000000	1.002825
3030.000000	1.002751
3029.000000	1.002676
3028.000000	1.002615
3027.000000	1.002583
3026.000000	1.002582
3025.000000	1.002594
3024.000000	1.002581
3023.000000	1.002514
3022.000000	1.002399
3021.000000	1.002274
3020.000000	1.002176
3019.000000	1.002119
3018.000000	1.002087
3017.000000	1.002048
3016.000000	1.001977
3015.000000	1.001873
3014.000000	1.001763
3013.000000	1.001665
3012.000000	1.001578
3011.000000	1.001499
3010.000000	1.001438
3009.000000	1.001395
3008.000000	1.001351
3007.000000	1.001307
3006.000000	1.001312
3005.000000	1.001399
3004.000000	1.001499
3003.000000	1.001480
3002.000000	1.001296
3001.000000	1.001046
3000.000000	1.000872
2999.000000	1.000806
2998.000000	1.000779
2997.000000	1.000723
2996.000000	1.000638
2995.000000	1.000555
2994.000000	1.000493
2993.000000	1.000452
2992.000000	1.000422
2991.000000	1.000378
2990.000000	1.000290
2989.000000	1.000154
2988.000000	0.999998
2987.000000	0.999854
2986.000000	0.999732
2985.000000	0.999631
2984.000000	0.999544
2983.000000	0.999458
2982.000000	0.999360
2981.000000	0.999255
2980.000000	0.999163
2979.000000	0.999099
2978.000000	0.999054
2977.000000	0.999020
2976.000000	0.998999
2975.000000	0.998984
2974.000000	0.998942
2973.000000	0.998847
2972.000000	0.998715
2971.000000	0.998593
2970.000000	0.998509
2969.000000	0.998445
2968.000000	0.998362
2967.000000	0.998246
2966.000000	0.998112
2965.000000	0.997978
2964.000000	0.997845
2963.000000	0.997705
2962.000000	0.997546
2961.000000	0.997373
2960.000000	0.997195
2959.000000	0.997025
2958.000000	0.996870
2957.000000	0.996735
2956.000000	0.996615
2955.000000	0.996497
2954.000000	0.996368
2953.000000	0.996235
2952.000000	0.996108
2951.000000	0.995990
2950.000000	0.995867
2949.000000	0.995732
2948.000000	0.995597
2947.000000	0.995482
2946.000000	0.995391
2945.000000	0.995310
2944.000000	0.995225
2943.000000	0.995129
2942.000000	0.995019
2941.000000	0.994890
2940.000000	0.994738
2939.000000	0.994569
2938.000000	0.994403
2937.000000	0.994248
2936.000000	0.994097
2935.000000	0.993929
2934.000000	0.993737
2933.000000	0.993538
2932.000000	0.993357
2931.000000	0.993196
2930.000000	0.993039
2929.000000	0.992872
2928.000000	0.992697
2927.000000	0.992522
2926.000000	0.992351
2925.000000	0.992179
2924.000000	0.992002
2923.000000	0.991814
2922.000000	0.991620
2921.000000	0.991433
2920.000000	0.991264
2919.000000	0.991108
2918.000000	0.990953
2917.000000	0.990793
2916.000000	0.990628
2915.000000	0.990460
2914.000000	0.990286
2913.000000	0.990110
2912.000000	0.989941
2911.000000	0.989782
2910.000000	0.989627
2909.000000	0.989475
2908.000000	0.989331
2907.000000	0.989196
2906.000000	0.989050
2905.000000	0.988876
2904.000000	0.988678
2903.000000	0.988474
2902.000000	0.988279
2901.000000	0.988102
2900.000000	0.987953
2899.000000	0.987833
2898.000000	0.987726
2897.000000	0.987603
2896.000000	0.987451
2895.000000	0.987284
2894.000000	0.987118
2893.000000	0.986953
2892.000000	0.986780
2891.000000	0.986594
2890.000000	0.986404
2889.000000	0.986220
2888.000000	0.986048
2887.000000	0.985889
2886.000000	0.985738
2885.000000	0.985587
2884.000000	0.985432
2883.000000	0.985270
2882.000000	0.985108
2881.000000	0.984957
2880.000000	0.984822
2879.000000	0.984688
2878.000000	0.984530
2877.000000	0.984338
2876.000000	0.984123
2875.000000	0.983913
2874.000000	0.983730
2873.000000	0.983578
2872.000000	0.983449
2871.000000	0.983330
2870.000000	0.983208
2869.000000	0.983070
2868.000000	0.982912
2867.000000	0.982740
2866.000000	0.982569
2865.000000	0.982409
2864.000000	0.982258
2863.000000	0.982105
2862.000000	0.981937
2861.000000	0.981748
2860.000000	0.981543
2859.000000	0.981339
2858.000000	0.981157
2857.000000	0.981006
2856.000000	0.980876
2855.000000	0.980746
2854.000000	0.980602
2853.000000	0.980446
2852.000000	0.980291
2851.000000	0.980138
2850.000000	0.979983
2849.000000	0.979829
2848.000000	0.979688
2847.000000	0.979571
2846.000000	0.979474
2845.000000	0.979384
2844.000000	0.979296
2843.000000	0.979207
2842.000000	0.979109
2841.000000	0.978992
2840.000000	0.978853
2839.000000	0.978707
2838.000000	0.978575
2837.000000	0.978474
2836.000000	0.978408
2835.000000	0.978361
2834.000000	0.978306
2833.000000	0.978220
2832.000000	0.978104
2831.000000	0.977972
2830.000000	0.977840
2829.000000	0.977716
2828.000000	0.977603
2827.000000	0.977497
2826.000000	0.977388
2825.000000	0.977272
2824.000000	0.977156
2823.000000	0.977052
2822.000000	0.976961
2821.000000	0.976866
2820.000000	0.976755
2819.000000	0.976637
2818.000000	0.976535
2817.000000	0.976456
2816.000000	0.976387
2815.000000	0.976309
2814.000000	0.976212
2813.000000	0.976095
2812.000000	0.975972
2811.000000	0.975861
2810.000000	0.975777
2809.000000	0.975722
2808.000000	0.975676
2807.000000	0.975621
2806.000000	0.975546
2805.000000	0.975451
2804.000000	0.975340
2803.000000	0.975224
2802.000000	0.975117
2801.000000	0.975028
2800.000000	0.974950
2799.000000	0.974867
2798.000000	0.974775
2797.000000	0.974691
2796.000000	0.974628
2795.000000	0.974576
2794.000000	0.974515
2793.000000	0.974430
2792.000000	0.974335
2791.000000	0.974252
2790.000000	0.974190
2789.000000	0.974140
2788.000000	0.974080
2787.000000	0.974006
2786.000000	0.973933
2785.000000	0.973881
2784.000000	0.973848
2783.000000	0.973814
2782.000000	0.973761
2781.000000	0.973697
2780.000000	0.973637
2779.000000	0.973588
2778.000000	0.973540
2777.000000	0.973485
2776.000000	0.973424
2775.000000	0.973358
2774.000000	0.973292
2773.000000	0.973230
2772.000000	0.973174
2771.000000	0.973115
2770.000000	0.973042
2769.000000	0.972957
2768.000000	0.972884
2767.000000	0.972840
2766.000000	0.972818
2765.000000	0.972805
2764.000000	0.972788
2763.000000	0.972766
2762.000000	0.972734
2761.000000	0.972688
2760.000000	0.972630
2759.000000	0.972568
2758.000000	0.972508
2757.000000	0.972454
2756.000000	0.972415
2755.000000	0.972394
2754.000000	0.972379
2753.000000	0.972352
2752.000000	0.972304
2751.000000	0.972245
2750.000000	0.972194
2749.000000	0.972162
2748.000000	0.972154
2747.000000	0.972159
2746.000000	0.972155
2745.000000	0.972120
2744.000000	0.972054
2743.000000	0.971985
2742.000000	0.971947
2741.000000	0.971948
2740.000000	0.971974
2739.000000	0.971997
2738.000000	0.971997
2737.000000	0.971968
2736.000000	0.971916
2735.000000	0.971859
2734.000000	0.971815
2733.000000	0.971792
2732.000000	0.971782
2731.000000	0.971778
2730.000000	0.971783
2729.000000	0.971795
2728.000000	0.971814
2727.000000	0.971832
2726.000000	0.971844
2725.000000	0.971843
2724.000000	0.971824
2723.000000	0.971786
2722.000000	0.971742
2721.000000	0.971711
2720.000000	0.971699
2719.000000	0.971698
2718.000000	0.971691
2717.000000	0.971672
2716.000000	0.971643
2715.000000	0.971613
2714.000000	0.971591
2713.000000	0.971586
2712.000000	0.971600
2711.000000	0.971624
2710.000000	0.971650
2709.000000	0.971672
2708.000000	0.971686
2707.000000	0.971689
2706.000000	0.971684
2705.000000	0.971679
2704.000000	0.971682
2703.000000	0.971687
2702.000000	0.971686
2701.000000	0.971682
2700.000000	0.971695
2699.000000	0.971735
2698.000000	0.971791
2697.000000	0.971842
2696.000000	0.971879
2695.000000	0.971908
2694.000000	0.971927
2693.000000	0.971924
2692.000000	0.971897
2691.000000	0.971864
2690.000000	0.971848
2689.000000	0.971852
2688.000000	0.971866
2687.000000	0.971883
2686.000000	0.971910
2685.000000	0.971959
2684.000000	0.972023
2683.000000	0.972086
2682.000000	0.972132
2681.000000	0.972162
2680.000000	0.972188
2679.000000	0.972226
2678.000000	0.972276
2677.000000	0.972331
2676.000000	0.972385
2675.000000	0.972431
2674.000000	0.972463
2673.000000	0.972476
2672.000000	0.972478
2671.000000	0.972491
2670.000000	0.972533
2669.000000	0.972595
2668.000000	0.972654
2667.000000	0.972693
2666.000000	0.972718
2665.000000	0.972746
2664.000000	0.972780
2663.000000	0.972815
2662.000000	0.972847
2661.000000	0.972876
2660.000000	0.972902
2659.000000	0.972927
2658.000000	0.972959
2657.000000	0.973011
2656.000000	0.973087
2655.000000	0.973173
2654.000000	0.973255
2653.000000	0.973331
2652.000000	0.973403
2651.000000	0.973471
2650.000000	0.973537
2649.000000	0.973609
2648.000000	0.973697
2647.000000	0.973796
2646.000000	0.973885
2645.000000	0.973946
2644.000000	0.973983
2643.000000	0.974017
2642.000000	0.974068
2641.000000	0.974141
2640.000000	0.974226
2639.000000	0.974308
2638.000000	0.974378
2637.000000	0.974436
2636.000000	0.974489
2635.000000	0.974543
2634.000000	0.974601
2633.000000	0.974665
2632.000000	0.974739
2631.000000	0.974823
2630.000000	0.974917
2629.000000	0.975019
2628.000000	0.975121
2627.000000	0.975211
2626.000000	0.975281
2625.000000	0.975337
2624.000000	0.975398
2623.000000	0.975468
2622.000000	0.975539
2621.000000	0.975606
2620.000000	0.975676
2619.000000	0.975756
2618.000000	0.975841
2617.000000	0.975923
2616.000000	0.976004
2615.000000	0.976093
2614.000000	0.976185
2613.000000	0.976267
2612.000000	0.976326
2611.000000	0.976372
2610.000000	0.976421
2609.000000	0.976484
2608.000000	0.976564
2607.000000	0.976656
2606.000000	0.976752
2605.000000	0.976847
2604.000000	0.976939
2603.000000	0.977031
2602.000000	0.977122
2601.000000	0.977209
2600.000000	0.977294
2599.000000	0.977391
2598.000000	0.977510
2597.000000	0.977641
2596.000000	0.977762
2595.000000	0.977860
2594.000000	0.977945
2593.000000	0.978036
2592.000000	0.978139
2591.000000	0.978247
2590.000000	0.978348
2589.000000	0.978436
2588.000000	0.978519
2587.000000	0.978608
2586.000000	0.978708
2585.000000	0.978811
2584.000000	0.978904
2583.000000	0.978983
2582.000000	0.979056
2581.000000	0.979132
2580.000000	0.979215
2579.000000	0.979301
2578.000000	0.979386
2577.000000	0.979474
2576.000000	0.979564
2575.000000	0.979651
2574.000000	0.979738
2573.000000	0.979832
2572.000000	0.979939
2571.000000	0.980054
2570.000000	0.980173
2569.000000	0.980300
2568.000000	0.980444
2567.000000	0.980603
2566.000000	0.980765
2565.000000	0.980908
2564.000000	0.981022
2563.000000	0.981107
2562.000000	0.981179
2561.000000	0.981258
2560.000000	0.981359
2559.000000	0.981482
2558.000000	0.981620
2557.000000	0.981762
2556.000000	0.981900
2555.000000	0.982028
2554.000000	0.982144
2553.000000	0.982254
2552.000000	0.982369
2551.000000	0.982490
2550.000000	0.982613
2549.000000	0.982731
2548.000000	0.982846
2547.000000	0.982966
2546.000000	0.983092
2545.000000	0.983225
2544.000000	0.983360
2543.000000	0.983494
2542.000000	0.983623
2541.000000	0.983748
2540.000000	0.983871
2539.000000	0.983994
2538.000000	0.984112
2537.000000	0.984224
2536.000000	0.984338
2535.000000	0.984471
2534.000000	0.984628
2533.000000	0.984804
2532.000000	0.984980
2531.000000	0.985134
2530.000000	0.985256
2529.000000	0.985354
2528.000000	0.985451
2527.000000	0.985568
2526.000000	0.985710
2525.000000	0.985863
2524.000000	0.986010
2523.000000	0.986148
2522.000000	0.986280
2521.000000	0.986415
2520.000000	0.986555
2519.000000	0.986703
2518.000000	0.986858
2517.000000	0.987013
2516.000000	0.987157
2515.000000	0.987280
2514.000000	0.987393
2513.000000	0.987518
2512.000000	0.987669
2511.000000	0.987836
2510.000000	0.987998
2509.000000	0.988140
2508.000000	0.988259
2507.000000	0.988365
2506.000000	0.988464
2505.000000	0.988567
2504.000000	0.988678
2503.000000	0.988794
2502.000000	0.988910
2501.000000	0.989027
2500.000000	0.989149
2499.000000	0.989272
2498.000000	0.989383
2497.000000	0.989481
2496.000000	0.989578
2495.000000	0.989685
2494.000000	0.989792
2493.000000	0.989885
2492.000000	0.989963
2491.000000	0.990037
2490.000000	0.990120
2489.000000	0.990218
2488.000000	0.990333
2487.000000	0.990461
2486.000000	0.990588
2485.000000	0.990696
2484.000000	0.990778
2483.000000	0.990836
2482.000000	0.990882
2481.000000	0.990930
2480.000000	0.990992
2479.000000	0.991068
2478.000000	0.991144
2477.000000	0.991206
2476.000000	0.991253
2475.000000	0.991294
2474.000000	0.991332
2473.000000	0.991369
2472.000000	0.991409
2471.000000	0.991459
2470.000000	0.991516
2469.000000	0.991573
2468.000000	0.991627
2467.000000	0.991682
2466.000000	0.991741
2465.000000	0.991798
2464.000000	0.991848
2463.000000	0.991896
2462.000000	0.991946
2461.000000	0.991992
2460.000000	0.992029
2459.000000	0.992051
2458.000000	0.992060
2457.000000	0.992057
2456.000000	0.992045
2455.000000	0.992037
2454.000000	0.992041
2453.000000	0.992063
2452.000000	0.992097
2451.000000	0.992129
2450.000000	0.992141
2449.000000	0.992121
2448.000000	0.992077
2447.000000	0.992033
2446.000000	0.992001
2445.000000	0.991979
2444.000000	0.991956
2443.000000	0.991936
2442.000000	0.991932
2441.000000	0.991950
2440.000000	0.991980
2439.000000	0.992002
2438.000000	0.991996
2437.000000	0.991947
2436.000000	0.991859
2435.000000	0.991755
2434.000000	0.991672
2433.000000	0.991630
2432.000000	0.991618
2431.000000	0.991600
2430.000000	0.991559
2429.000000	0.991502
2428.000000	0.991449
2427.000000	0.991403
2426.000000	0.991357
2425.000000	0.991305
2424.000000	0.991255
2423.000000	0.991213
2422.000000	0.991169
2421.000000	0.991114
2420.000000	0.991052
2419.000000	0.990996
2418.000000	0.990950
2417.000000	0.990912
2416.000000	0.990874
2415.000000	0.990834
2414.000000	0.990795
2413.000000	0.990756
2412.000000	0.990718
2411.000000	0.990677
2410.000000	0.990630
2409.000000	0.990580
2408.000000	0.990536
2407.000000	0.990501
2406.000000	0.990470
2405.000000	0.990431
2404.000000	0.990390
2403.000000	0.990366
2402.000000	0.990363
2401.000000	0.990360
2400.000000	0.990328
2399.000000	0.990260
2398.000000	0.990176
2397.000000	0.990109
2396.000000	0.990081
2395.000000	0.990092
2394.000000	0.990118
2393.000000	0.990130
2392.000000	0.990124
2391.000000	0.990116
2390.000000	0.990117
2389.000000	0.990117
2388.000000	0.990103
2387.000000	0.990073
2386.000000	0.990029
2385.000000	0.989975
2384.000000	0.989914
2383.000000	0.989861
2382.000000	0.989822
2381.000000	0.989782
2380.000000	0.989724
2379.000000	0.989652
2378.000000	0.989577
2377.000000	0.989488
2376.000000	0.989360
2375.000000	0.989182
2374.000000	0.988968
2373.000000	0.988732
2372.000000	0.988480
2371.000000	0.988224
2370.000000	0.987985
2369.000000	0.987768
2368.000000	0.987558
2367.000000	0.987350
2366.000000	0.987166
2365.000000	0.987031
2364.000000	0.986942
2363.000000	0.986882
2362.000000	0.986851
2361.000000	0.986869
2360.000000	0.986949
2359.000000	0.987078
2358.000000	0.987241
2357.000000	0.987440
2356.000000	0.987685
2355.000000	0.987983
2354.000000	0.988327
2353.000000	0.988704
2352.000000	0.989090
2351.000000	0.989455
2350.000000	0.989767
2349.000000	0.990010
2348.000000	0.990200
2347.000000	0.990385
2346.000000	0.990636
2345.000000	0.991011
2344.000000	0.991521
2343.000000	0.992103
2342.000000	0.992625
2341.000000	0.992919
2340.000000	0.992852
2339.000000	0.992397
2338.000000	0.991675
2337.000000	0.990893
2336.000000	0.990241
2335.000000	0.989798
2334.000000	0.989546
2333.000000	0.989433
2332.000000	0.989424
2331.000000	0.989491
2330.000000	0.989594
2329.000000	0.989698
2328.000000	0.989795
2327.000000	0.989904
2326.000000	0.990036
2325.000000	0.990176
2324.000000	0.990302
2323.000000	0.990411
2322.000000	0.990520
2321.000000	0.990635
2320.000000	0.990751
2319.000000	0.990864
2318.000000	0.990983
2317.000000	0.991109
2316.000000	0.991236
2315.000000	0.991357
2314.000000	0.991476
2313.000000	0.991599
2312.000000	0.991715
2311.000000	0.991810
2310.000000	0.991876
2309.000000	0.991918
2308.000000	0.991946
2307.000000	0.991977
2306.000000	0.992025
2305.000000	0.992091
2304.000000	0.992161
2303.000000	0.992223
2302.000000	0.992282
2301.000000	0.992354
2300.000000	0.992440
2299.000000	0.992526
2298.000000	0.992597
2297.000000	0.992653
2296.000000	0.992701
2295.000000	0.992744
2294.000000	0.992784
2293.000000	0.992818
2292.000000	0.992846
2291.000000	0.992868
2290.000000	0.992897
2289.000000	0.992939
2288.000000	0.992985
2287.000000	0.993016
2286.000000	0.993032
2285.000000	0.993054
2284.000000	0.993097
2283.000000	0.993154
2282.000000	0.993212
2281.000000	0.993267
2280.000000	0.993320
2279.000000	0.993369
2278.000000	0.993410
2277.000000	0.993447
2276.000000	0.993486
2275.000000	0.993523
2274.000000	0.993550
2273.000000	0.993572
2272.000000	0.993602
2271.000000	0.993642
2270.000000	0.993683
2269.000000	0.993716
2268.000000	0.993740
2267.000000	0.993762
2266.000000	0.993781
2265.000000	0.993802
2264.000000	0.993831
2263.000000	0.993872
2262.000000	0.993917
2261.000000	0.993959
2260.000000	0.993995
2259.000000	0.994029
2258.000000	0.994059
2257.000000	0.994081
2256.000000	0.994101
2255.000000	0.994133
2254.000000	0.994184
2253.000000	0.994246
2252.000000	0.994296
2251.000000	0.994317
2250.000000	0.994303
2249.000000	0.994266
2248.000000	0.994229
2247.000000	0.994216
2246.000000	0.994234
2245.000000	0.994274
2244.000000	0.994319
2243.000000	0.994356
2242.000000	0.994384
2241.000000	0.994405
2240.000000	0.994420
2239.000000	0.994432
2238.000000	0.994448
2237.000000	0.994470
2236.000000	0.994498
2235.000000	0.994534
2234.000000	0.994581
2233.000000	0.994632
2232.000000	0.994664
2231.000000	0.994660
2230.000000	0.994631
2229.000000	0.994604
2228.000000	0.994593
2227.000000	0.994591
2226.000000	0.994592
2225.000000	0.994605
2224.000000	0.994634
2223.000000	0.994675
2222.000000	0.994714
2221.000000	0.994744
2220.000000	0.994757
2219.000000	0.994745
2218.000000	0.994715
2217.000000	0.994687
2216.000000	0.994678
2215.000000	0.994683
2214.000000	0.994690
2213.000000	0.994699
2212.000000	0.994720
2211.000000	0.994756
2210.000000	0.994792
2209.000000	0.994811
2208.000000	0.994808
2207.000000	0.994788
2206.000000	0.994763
2205.000000	0.994743
2204.000000	0.994733
2203.000000	0.994725
2202.000000	0.994711
2201.000000	0.994694
2200.000000	0.994686
2199.000000	0.994685
2198.000000	0.994677
2197.000000	0.994659
2196.000000	0.994642
2195.000000	0.994638
2194.000000	0.994643
2193.000000	0.994650
2192.000000	0.994655
2191.000000	0.994652
2190.000000	0.994624
2189.000000	0.994561
2188.000000	0.994486
2187.000000	0.994443
2186.000000	0.994452
2185.000000	0.994487
2184.000000	0.994509
2183.000000	0.994504
2182.000000	0.994488
2181.000000	0.994474
2180.000000	0.994459
2179.000000	0.994436
2178.000000	0.994402
2177.000000	0.994363
2176.000000	0.994319
2175.000000	0.994272
2174.000000	0.994230
2173.000000	0.994199
2172.000000	0.994175
2171.000000	0.994147
2170.000000	0.994102
2169.000000	0.994039
2168.000000	0.993971
2167.000000	0.993916
2166.000000	0.993886
2165.000000	0.993877
2164.000000	0.993865
2163.000000	0.993833
2162.000000	0.993788
2161.000000	0.993748
2160.000000	0.993719
2159.000000	0.993688
2158.000000	0.993646
2157.000000	0.993600
2156.000000	0.993559
2155.000000	0.993519
2154.000000	0.993474
2153.000000	0.993421
2152.000000	0.993360
2151.000000	0.993287
2150.000000	0.993201
2149.000000	0.993115
2148.000000	0.993041
2147.000000	0.992980
2146.000000	0.992928
2145.000000	0.992888
2144.000000	0.992859
2143.000000	0.992824
2142.000000	0.992764
2141.000000	0.992676
2140.000000	0.992573
2139.000000	0.992476
2138.000000	0.992396
2137.000000	0.992349
2136.000000	0.992337
2135.000000	0.992338
2134.000000	0.992312
2133.000000	0.992239
2132.000000	0.992137
2131.000000	0.992039
2130.000000	0.991955
2129.000000	0.991877
2128.000000	0.991789
2127.000000	0.991685
2126.000000	0.991572
2125.000000	0.991470
2124.000000	0.991395
2123.000000	0.991341
2122.000000	0.991280
2121.000000	0.991195
2120.000000	0.991098
2119.000000	0.991012
2118.000000	0.990931
2117.000000	0.990831
2116.000000	0.990702
2115.000000	0.990570
2114.000000	0.990472
2113.000000	0.990419
2112.000000	0.990397
2111.000000	0.990376
2110.000000	0.990327
2109.000000	0.990228
2108.000000	0.990077
2107.000000	0.989905
2106.000000	0.989754
2105.000000	0.989647
2104.000000	0.989569
2103.000000	0.989485
2102.000000	0.989373
2101.000000	0.989236
2100.000000	0.989098
2099.000000	0.988989
2098.000000	0.988920
2097.000000	0.988870
2096.000000	0.988799
2095.000000	0.988682
2094.000000	0.988531
2093.000000	0.988381
2092.000000	0.988256
2091.000000	0.988149
2090.000000	0.988049
2089.000000	0.987950
2088.000000	0.987850
2087.000000	0.987741
2086.000000	0.987615
2085.000000	0.987480
2084.000000	0.987354
2083.000000	0.987239
2082.000000	0.987129
2081.000000	0.987013
2080.000000	0.986890
2079.000000	0.986762
2078.000000	0.986627
2077.000000	0.986486
2076.000000	0.986345
2075.000000	0.986213
2074.000000	0.986086
2073.000000	0.985961
2072.000000	0.985834
2071.000000	0.985713
2070.000000	0.985604
2069.000000	0.985511
2068.000000	0.985421
2067.000000	0.985307
2066.000000	0.985157
2065.000000	0.984992
2064.000000	0.984851
2063.000000	0.984751
2062.000000	0.984665
2061.000000	0.984555
2060.000000	0.984414
2059.000000	0.984268
2058.000000	0.984144
2057.000000	0.984042
2056.000000	0.983945
2055.000000	0.983842
2054.000000	0.983732
2053.000000	0.983615
2052.000000	0.983489
2051.000000	0.983353
2050.000000	0.983215
2049.000000	0.983086
2048.000000	0.982967
2047.000000	0.982852
2046.000000	0.982731
2045.000000	0.982605
2044.000000	0.982476
2043.000000	0.982353
2042.000000	0.982237
2041.000000	0.982124
2040.000000	0.982007
2039.000000	0.981878
2038.000000	0.981741
2037.000000	0.981608
2036.000000	0.981495
2035.000000	0.981404
2034.000000	0.981319
2033.000000	0.981226
2032.000000	0.981126
2031.000000	0.981033
2030.000000	0.980946
2029.000000	0.980848
2028.000000	0.980730
2027.000000	0.980599
2026.000000	0.980465
2025.000000	0.980333
2024.000000	0.980208
2023.000000	0.980106
2022.000000	0.980030
2021.000000	0.979961
2020.000000	0.979879
2019.000000	0.979787
2018.000000	0.979704
2017.000000	0.979624
2016.000000	0.979525
2015.000000	0.979402
2014.000000	0.979284
2013.000000	0.979197
2012.000000	0.979126
2011.000000	0.979041
2010.000000	0.978934
2009.000000	0.978824
2008.000000	0.978735
2007.000000	0.978671
2006.000000	0.978618
2005.000000	0.978536
2004.000000	0.978394
2003.000000	0.978215
2002.000000	0.978080
2001.000000	0.978051
2000.000000	0.978094
1999.000000	0.978106
1998.000000	0.978036
1997.000000	0.977923
1996.000000	0.977823
1995.000000	0.977735
1994.000000	0.977620
1993.000000	0.977478
1992.000000	0.977357
1991.000000	0.977292
1990.000000	0.977277
1989.000000	0.977288
1988.000000	0.977301
1987.000000	0.977293
1986.000000	0.977239
1985.000000	0.977139
1984.000000	0.977027
1983.000000	0.976941
1982.000000	0.976893
1981.000000	0.976870
1980.000000	0.976851
1979.000000	0.976822
1978.000000	0.976773
1977.000000	0.976712
1976.000000	0.976653
1975.000000	0.976610
1974.000000	0.976581
1973.000000	0.976555
1972.000000	0.976525
1971.000000	0.976482
1970.000000	0.976416
1969.000000	0.976327
1968.000000	0.976240
1967.000000	0.976184
1966.000000	0.976163
1965.000000	0.976154
1964.000000	0.976135
1963.000000	0.976107
1962.000000	0.976083
1961.000000	0.976062
1960.000000	0.976030
1959.000000	0.975987
1958.000000	0.975945
1957.000000	0.975907
1956.000000	0.975867
1955.000000	0.975825
1954.000000	0.975795
1953.000000	0.975786
1952.000000	0.975786
1951.000000	0.975775
1950.000000	0.975751
1949.000000	0.975730
1948.000000	0.975717
1947.000000	0.975703
1946.000000	0.975671
1945.000000	0.975618
1944.000000	0.975558
1943.000000	0.975517
1942.000000	0.975516
1941.000000	0.975548
1940.000000	0.975583
1939.000000	0.975596
1938.000000	0.975589
1937.000000	0.975581
1936.000000	0.975580
1935.000000	0.975578
1934.000000	0.975571
1933.000000	0.975569
1932.000000	0.975574
1931.000000	0.975575
1930.000000	0.975562
1929.000000	0.975546
1928.000000	0.975539
1927.000000	0.975540
1926.000000	0.975534
1925.000000	0.975518
1924.000000	0.975511
1923.000000	0.975527
1922.000000	0.975555
1921.000000	0.975557
1920.000000	0.975504
1919.000000	0.975415
1918.000000	0.975354
1917.000000	0.975375
1916.000000	0.975463
1915.000000	0.975561
1914.000000	0.975624
1913.000000	0.975651
1912.000000	0.975662
1911.000000	0.975667
1910.000000	0.975673
1909.000000	0.975683
1908.000000	0.975696
1907.000000	0.975706
1906.000000	0.975710
1905.000000	0.975716
1904.000000	0.975734
1903.000000	0.975759
1902.000000	0.975782
1901.000000	0.975798
1900.000000	0.975810
1899.000000	0.975824
1898.000000	0.975844
1897.000000	0.975869
1896.000000	0.975893
1895.000000	0.975908
1894.000000	0.975917
1893.000000	0.975925
1892.000000	0.975925
1891.000000	0.975907
1890.000000	0.975887
1889.000000	0.975899
1888.000000	0.975956
1887.000000	0.976033
1886.000000	0.976093
1885.000000	0.976126
1884.000000	0.976149
1883.000000	0.976182
1882.000000	0.976226
1881.000000	0.976263
1880.000000	0.976273
1879.000000	0.976260
1878.000000	0.976258
1877.000000	0.976299
1876.000000	0.976375
1875.000000	0.976450
1874.000000	0.976503
1873.000000	0.976535
1872.000000	0.976544
1871.000000	0.976525
1870.000000	0.976495
1869.000000	0.976502
1868.000000	0.976576
1867.000000	0.976693
1866.000000	0.976810
1865.000000	0.976907
1864.000000	0.976984
1863.000000	0.977037
1862.000000	0.977067
1861.000000	0.977095
1860.000000	0.977142
1859.000000	0.977208
1858.000000	0.977273
1857.000000	0.977335
1856.000000	0.977396
1855.000000	0.977453
1854.000000	0.977497
1853.000000	0.977537
1852.000000	0.977581
1851.000000	0.977621
1850.000000	0.977647
1849.000000	0.977672
1848.000000	0.977707
1847.000000	0.977723
1846.000000	0.977685
1845.000000	0.977625
1844.000000	0.977634
1843.000000	0.977764
1842.000000	0.977964
1841.000000	0.978134
1840.000000	0.978235
1839.000000	0.978298
1838.000000	0.978368
1837.000000	0.978453
1836.000000	0.978537
1835.000000	0.978605
1834.000000	0.978657
1833.000000	0.978692
1832.000000	0.978714
1831.000000	0.978739
1830.000000	0.978794
1829.000000	0.978896
1828.000000	0.979024
1827.000000	0.979142
1826.000000	0.979235
1825.000000	0.979326
1824.000000	0.979446
1823.000000	0.979593
1822.000000	0.979743
1821.000000	0.979877
1820.000000	0.979988
1819.000000	0.980075
1818.000000	0.980143
1817.000000	0.980207
1816.000000	0.980286
1815.000000	0.980382
1814.000000	0.980479
1813.000000	0.980561
1812.000000	0.980630
1811.000000	0.980707
1810.000000	0.980816
1809.000000	0.980961
1808.000000	0.981121
1807.000000	0.981264
1806.000000	0.981377
1805.000000	0.981465
1804.000000	0.981531
1803.000000	0.981576
1802.000000	0.981613
1801.000000	0.981665
1800.000000	0.981742
1799.000000	0.981837
1798.000000	0.981953
1797.000000	0.982092
1796.000000	0.982223
1795.000000	0.982284
1794.000000	0.982256
1793.000000	0.982217
1792.000000	0.982275
1791.000000	0.982468
1790.000000	0.982737
1789.000000	0.983001
1788.000000	0.983210
1787.000000	0.983351
1786.000000	0.983444
1785.000000	0.983532
1784.000000	0.983650
1783.000000	0.983793
1782.000000	0.983934
1781.000000	0.984066
1780.000000	0.984205
1779.000000	0.984351
1778.000000	0.984490
1777.000000	0.984606
1776.000000	0.984681
1775.000000	0.984677
1774.000000	0.984595
1773.000000	0.984533
1772.000000	0.984616
1771.000000	0.984861
1770.000000	0.985154
1769.000000	0.985387
1768.000000	0.985576
1767.000000	0.985792
1766.000000	0.986042
1765.000000	0.986254
1764.000000	0.986377
1763.000000	0.986435
1762.000000	0.986499
1761.000000	0.986619
1760.000000	0.986789
1759.000000	0.986961
1758.000000	0.987097
1757.000000	0.987223
1756.000000	0.987395
1755.000000	0.987607
1754.000000	0.987770
1753.000000	0.987810
1752.000000	0.987771
1751.000000	0.987775
1750.000000	0.987888
1749.000000	0.988075
1748.000000	0.988276
1747.000000	0.988463
1746.000000	0.988637
1745.000000	0.988791
1744.000000	0.988922
1743.000000	0.989033
1742.000000	0.989120
1741.000000	0.989179
1740.000000	0.989249
1739.000000	0.989383
1738.000000	0.989541
1737.000000	0.989574
1736.000000	0.989382
1735.000000	0.989095
1734.000000	0.988996
1733.000000	0.989244
1732.000000	0.989712
1731.000000	0.990156
1730.000000	0.990455
1729.000000	0.990654
1728.000000	0.990820
1727.000000	0.990956
1726.000000	0.991046
1725.000000	0.991106
1724.000000	0.991157
1723.000000	0.991193
1722.000000	0.991193
1721.000000	0.991120
1720.000000	0.990933
1719.000000	0.990650
1718.000000	0.990399
1717.000000	0.990352
1716.000000	0.990549
1715.000000	0.990865
1714.000000	0.991157
1713.000000	0.991389
1712.000000	0.991582
1711.000000	0.991723
1710.000000	0.991788
1709.000000	0.991790
1708.000000	0.991757
1707.000000	0.991694
1706.000000	0.991631
1705.000000	0.991631
1704.000000	0.991665
1703.000000	0.991564
1702.000000	0.991224
1701.000000	0.990825
1700.000000	0.990672
1699.000000	0.990815
1698.000000	0.990991
1697.000000	0.991001
1696.000000	0.990974
1695.000000	0.991160
1694.000000	0.991572
1693.000000	0.991974
1692.000000	0.992174
1691.000000	0.992200
1690.000000	0.992188
1689.000000	0.992189
1688.000000	0.992112
1687.000000	0.991839
1686.000000	0.991393
1685.000000	0.991007
1684.000000	0.990960
1683.000000	0.991299
1682.000000	0.991786
1681.000000	0.992149
1680.000000	0.992317
1679.000000	0.992370
1678.000000	0.992347
1677.000000	0.992229
1676.000000	0.992076
1675.000000	0.992034
1674.000000	0.992152
1673.000000	0.992299
1672.000000	0.992317
1671.000000	0.992204
1670.000000	0.992096
1669.000000	0.992112
1668.000000	0.992254
1667.000000	0.992439
1666.000000	0.992563
1665.000000	0.992566
1664.000000	0.992480
1663.000000	0.992409
1662.000000	0.992435
1661.000000	0.992537
1660.000000	0.992639
1659.000000	0.992701
1658.000000	0.992720
1657.000000	0.992624
1656.000000	0.992265
1655.000000	0.991601
1654.000000	0.990889
1653.000000	0.990570
1652.000000	0.990884
1651.000000	0.991608
1650.000000	0.992260
1649.000000	0.992519
1648.000000	0.992424
1647.000000	0.992240
1646.000000	0.992202
1645.000000	0.992370
1644.000000	0.992643
1643.000000	0.992871
1642.000000	0.992966
1641.000000	0.992950
1640.000000	0.992889
1639.000000	0.992778
1638.000000	0.992558
1637.000000	0.992253
1636.000000	0.992033
1635.000000	0.992067
1634.000000	0.992345
1633.000000	0.992685
1632.000000	0.992912
1631.000000	0.992975
1630.000000	0.992925
1629.000000	0.992845
1628.000000	0.992802
1627.000000	0.992809
1626.000000	0.992822
1625.000000	0.992790
1624.000000	0.992726
1623.000000	0.992707
1622.000000	0.992774
1621.000000	0.992867
1620.000000	0.992859
1619.000000	0.992670
1618.000000	0.992365
1617.000000	0.992145
1616.000000	0.992188
1615.000000	0.992489
1614.000000	0.992851
1613.000000	0.993076
1612.000000	0.993127
1611.000000	0.993095
1610.000000	0.993067
1609.000000	0.993055
1608.000000	0.993053
1607.000000	0.993070
1606.000000	0.993094
1605.000000	0.993096
1604.000000	0.993070
1603.000000	0.993055
1602.000000	0.993080
1601.000000	0.993125
1600.000000	0.993160
1599.000000	0.993180
1598.000000	0.993192
1597.000000	0.993191
1596.000000	0.993175
1595.000000	0.993160
1594.000000	0.993167
1593.000000	0.993192
1592.000000	0.993218
1591.000000	0.993234
1590.000000	0.993243
1589.000000	0.993249
1588.000000	0.993256
1587.000000	0.993270
1586.000000	0.993293
1585.000000	0.993318
1584.000000	0.993329
1583.000000	0.993318
1582.000000	0.993294
1581.000000	0.993262
1580.000000	0.993188
1579.000000	0.992996
1578.000000	0.992661
1577.000000	0.992305
1576.000000	0.992152
1575.000000	0.992326
1574.000000	0.992697
1573.000000	0.992992
1572.000000	0.993050
1571.000000	0.992934
1570.000000	0.992827
1569.000000	0.992851
1568.000000	0.992990
1567.000000	0.993144
1566.000000	0.993236
1565.000000	0.993265
1564.000000	0.993254
1563.000000	0.993149
1562.000000	0.992815
1561.000000	0.992218
1560.000000	0.991576
1559.000000	0.991252
1558.000000	0.991414
1557.000000	0.991872
1556.000000	0.992302
1555.000000	0.992551
1554.000000	0.992679
1553.000000	0.992787
1552.000000	0.992892
1551.000000	0.992968
1550.000000	0.993011
1549.000000	0.993037
1548.000000	0.993039
1547.000000	0.992993
1546.000000	0.992885
1545.000000	0.992728
1544.000000	0.992531
1543.000000	0.992282
1542.000000	0.991965
1541.000000	0.991642
1540.000000	0.991483
1539.000000	0.991648
1538.000000	0.992100
1537.000000	0.992577
1536.000000	0.992823
1535.000000	0.992811
1534.000000	0.992728
1533.000000	0.992748
1532.000000	0.992879
1531.000000	0.993018
1530.000000	0.993082
1529.000000	0.993048
1528.000000	0.992935
1527.000000	0.992801
1526.000000	0.992712
1525.000000	0.992662
1524.000000	0.992556
1523.000000	0.992337
1522.000000	0.992105
1521.000000	0.992033
1520.000000	0.992169
1519.000000	0.992390
1518.000000	0.992558
1517.000000	0.992669
1516.000000	0.992790
1515.000000	0.992929
1514.000000	0.993024
1513.000000	0.993048
1512.000000	0.993028
1511.000000	0.992973
1510.000000	0.992812
1509.000000	0.992477
1508.000000	0.992029
1507.000000	0.991691
1506.000000	0.991691
1505.000000	0.992067
1504.000000	0.992622
1503.000000	0.993088
1502.000000	0.993330
1501.000000	0.993386
1500.000000	0.993341
