PE IR       SUBTECH     SPECTRUM    ASCII       PEDS        4.00        
   -1
TE108B1_008_90K.ASC
20/02/21
14:48:23.00
20/02/21
14:48:37.00
Administrator
Sample 008 By Administrator Date Friday, February 21 2020
1500.000000
#HDR
-1
-1
#GR
cm-1
A
1.0
0.0
4000.000000
-1.000000
2501
8
1.068863
0.983630
#DATA
4000.000000	0.998434
3999.000000	0.998432
3998.000000	0.998439
3997.000000	0.998461
3996.000000	0.998496
3995.000000	0.998532
3994.000000	0.998551
3993.000000	0.998540
3992.000000	0.998498
3991.000000	0.998441
3990.000000	0.998388
3989.000000	0.998351
3988.000000	0.998327
3987.000000	0.998306
3986.000000	0.998281
3985.000000	0.998252
3984.000000	0.998225
3983.000000	0.998203
3982.000000	0.998183
3981.000000	0.998160
3980.000000	0.998129
3979.000000	0.998091
3978.000000	0.998047
3977.000000	0.997994
3976.000000	0.997933
3975.000000	0.997875
3974.000000	0.997831
3973.000000	0.997801
3972.000000	0.997770
3971.000000	0.997721
3970.000000	0.997647
3969.000000	0.997556
3968.000000	0.997467
3967.000000	0.997389
3966.000000	0.997320
3965.000000	0.997252
3964.000000	0.997181
3963.000000	0.997111
3962.000000	0.997043
3961.000000	0.996969
3960.000000	0.996883
3959.000000	0.996789
3958.000000	0.996702
3957.000000	0.996633
3956.000000	0.996581
3955.000000	0.996532
3954.000000	0.996468
3953.000000	0.996382
3952.000000	0.996275
3951.000000	0.996156
3950.000000	0.996033
3949.000000	0.995916
3948.000000	0.995808
3947.000000	0.995702
3946.000000	0.995587
3945.000000	0.995456
3944.000000	0.995317
3943.000000	0.995196
3942.000000	0.995108
3941.000000	0.995047
3940.000000	0.994984
3939.000000	0.994893
3938.000000	0.994765
3937.000000	0.994607
3936.000000	0.994438
3935.000000	0.994271
3934.000000	0.994118
3933.000000	0.993984
3932.000000	0.993872
3931.000000	0.993780
3930.000000	0.993698
3929.000000	0.993609
3928.000000	0.993496
3927.000000	0.993352
3926.000000	0.993190
3925.000000	0.993036
3924.000000	0.992914
3923.000000	0.992821
3922.000000	0.992728
3921.000000	0.992600
3920.000000	0.992427
3919.000000	0.992234
3918.000000	0.992058
3917.000000	0.991928
3916.000000	0.991843
3915.000000	0.991780
3914.000000	0.991712
3913.000000	0.991626
3912.000000	0.991525
3911.000000	0.991416
3910.000000	0.991296
3909.000000	0.991149
3908.000000	0.990954
3907.000000	0.990707
3906.000000	0.990431
3905.000000	0.990164
3904.000000	0.989940
3903.000000	0.989763
3902.000000	0.989619
3901.000000	0.989499
3900.000000	0.989415
3899.000000	0.989383
3898.000000	0.989400
3897.000000	0.989431
3896.000000	0.989427
3895.000000	0.989348
3894.000000	0.989193
3893.000000	0.988996
3892.000000	0.988819
3891.000000	0.988712
3890.000000	0.988665
3889.000000	0.988610
3888.000000	0.988475
3887.000000	0.988257
3886.000000	0.988034
3885.000000	0.987898
3884.000000	0.987862
3883.000000	0.987852
3882.000000	0.987783
3881.000000	0.987647
3880.000000	0.987513
3879.000000	0.987443
3878.000000	0.987422
3877.000000	0.987383
3876.000000	0.987285
3875.000000	0.987146
3874.000000	0.987002
3873.000000	0.986850
3872.000000	0.986655
3871.000000	0.986421
3870.000000	0.986211
3869.000000	0.986100
3868.000000	0.986098
3867.000000	0.986137
3866.000000	0.986138
3865.000000	0.986081
3864.000000	0.986006
3863.000000	0.985957
3862.000000	0.985939
3861.000000	0.985932
3860.000000	0.985923
3859.000000	0.985899
3858.000000	0.985804
3857.000000	0.985551
3856.000000	0.985095
3855.000000	0.984523
3854.000000	0.984042
3853.000000	0.983858
3852.000000	0.984030
3851.000000	0.984436
3850.000000	0.984869
3849.000000	0.985168
3848.000000	0.985292
3847.000000	0.985284
3846.000000	0.985206
3845.000000	0.985102
3844.000000	0.985001
3843.000000	0.984913
3842.000000	0.984813
3841.000000	0.984643
3840.000000	0.984369
3839.000000	0.984043
3838.000000	0.983794
3837.000000	0.983733
3836.000000	0.983860
3835.000000	0.984067
3834.000000	0.984232
3833.000000	0.984307
3832.000000	0.984335
3831.000000	0.984378
3830.000000	0.984454
3829.000000	0.984528
3828.000000	0.984561
3827.000000	0.984544
3826.000000	0.984491
3825.000000	0.984390
3824.000000	0.984218
3823.000000	0.983983
3822.000000	0.983769
3821.000000	0.983681
3820.000000	0.983741
3819.000000	0.983844
3818.000000	0.983855
3817.000000	0.983744
3816.000000	0.983630
3815.000000	0.983660
3814.000000	0.983866
3813.000000	0.984143
3812.000000	0.984353
3811.000000	0.984421
3810.000000	0.984351
3809.000000	0.984193
3808.000000	0.984030
3807.000000	0.983948
3806.000000	0.983981
3805.000000	0.984058
3804.000000	0.984059
3803.000000	0.983940
3802.000000	0.983798
3801.000000	0.983785
3800.000000	0.983952
3799.000000	0.984205
3798.000000	0.984411
3797.000000	0.984523
3796.000000	0.984599
3795.000000	0.984706
3794.000000	0.984849
3793.000000	0.984977
3792.000000	0.985045
3791.000000	0.985062
3790.000000	0.985065
3789.000000	0.985082
3788.000000	0.985116
3787.000000	0.985155
3786.000000	0.985196
3785.000000	0.985245
3784.000000	0.985307
3783.000000	0.985371
3782.000000	0.985418
3781.000000	0.985443
3780.000000	0.985467
3779.000000	0.985517
3778.000000	0.985601
3777.000000	0.985693
3776.000000	0.985766
3775.000000	0.985815
3774.000000	0.985854
3773.000000	0.985882
3772.000000	0.985889
3771.000000	0.985884
3770.000000	0.985905
3769.000000	0.985983
3768.000000	0.986107
3767.000000	0.986228
3766.000000	0.986318
3765.000000	0.986388
3764.000000	0.986467
3763.000000	0.986553
3762.000000	0.986613
3761.000000	0.986628
3760.000000	0.986620
3759.000000	0.986646
3758.000000	0.986741
3757.000000	0.986881
3756.000000	0.986989
3755.000000	0.986982
3754.000000	0.986827
3753.000000	0.986567
3752.000000	0.986308
3751.000000	0.986180
3750.000000	0.986266
3749.000000	0.986537
3748.000000	0.986834
3747.000000	0.986968
3746.000000	0.986876
3745.000000	0.986706
3744.000000	0.986705
3743.000000	0.987006
3742.000000	0.987509
3741.000000	0.987990
3740.000000	0.988271
3739.000000	0.988325
3738.000000	0.988233
3737.000000	0.988108
3736.000000	0.988040
3735.000000	0.988070
3734.000000	0.988197
3733.000000	0.988395
3732.000000	0.988647
3731.000000	0.988941
3730.000000	0.989242
3729.000000	0.989490
3728.000000	0.989647
3727.000000	0.989739
3726.000000	0.989833
3725.000000	0.989970
3724.000000	0.990140
3723.000000	0.990321
3722.000000	0.990513
3721.000000	0.990731
3720.000000	0.990980
3719.000000	0.991243
3718.000000	0.991505
3717.000000	0.991745
3716.000000	0.991924
3715.000000	0.992005
3714.000000	0.992021
3713.000000	0.992127
3712.000000	0.992538
3711.000000	0.993347
3710.000000	0.994400
3709.000000	0.995363
3708.000000	0.995957
3707.000000	0.996153
3706.000000	0.996135
3705.000000	0.996117
3704.000000	0.996196
3703.000000	0.996365
3702.000000	0.996602
3701.000000	0.996917
3700.000000	0.997318
3699.000000	0.997778
3698.000000	0.998257
3697.000000	0.998727
3696.000000	0.999184
3695.000000	0.999629
3694.000000	1.000055
3693.000000	1.000444
3692.000000	1.000770
3691.000000	1.001032
3690.000000	1.001287
3689.000000	1.001652
3688.000000	1.002231
3687.000000	1.003030
3686.000000	1.003933
3685.000000	1.004794
3684.000000	1.005536
3683.000000	1.006183
3682.000000	1.006807
3681.000000	1.007452
3680.000000	1.008103
3679.000000	1.008699
3678.000000	1.009202
3677.000000	1.009659
3676.000000	1.010207
3675.000000	1.010967
3674.000000	1.011915
3673.000000	1.012879
3672.000000	1.013699
3671.000000	1.014385
3670.000000	1.015094
3669.000000	1.015960
3668.000000	1.016966
3667.000000	1.017992
3666.000000	1.018940
3665.000000	1.019798
3664.000000	1.020602
3663.000000	1.021383
3662.000000	1.022148
3661.000000	1.022891
3660.000000	1.023598
3659.000000	1.024262
3658.000000	1.024898
3657.000000	1.025556
3656.000000	1.026281
3655.000000	1.027068
3654.000000	1.027837
3653.000000	1.028493
3652.000000	1.028997
3651.000000	1.029410
3650.000000	1.029852
3649.000000	1.030426
3648.000000	1.031156
3647.000000	1.031979
3646.000000	1.032799
3645.000000	1.033540
3644.000000	1.034188
3643.000000	1.034769
3642.000000	1.035316
3641.000000	1.035844
3640.000000	1.036355
3639.000000	1.036856
3638.000000	1.037347
3637.000000	1.037810
3636.000000	1.038227
3635.000000	1.038605
3634.000000	1.038973
3633.000000	1.039325
3632.000000	1.039608
3631.000000	1.039780
3630.000000	1.039896
3629.000000	1.040093
3628.000000	1.040478
3627.000000	1.041022
3626.000000	1.041598
3625.000000	1.042094
3624.000000	1.042474
3623.000000	1.042756
3622.000000	1.042961
3621.000000	1.043111
3620.000000	1.043252
3619.000000	1.043448
3618.000000	1.043725
3617.000000	1.044045
3616.000000	1.044333
3615.000000	1.044548
3614.000000	1.044709
3613.000000	1.044865
3612.000000	1.045041
3611.000000	1.045226
3610.000000	1.045400
3609.000000	1.045564
3608.000000	1.045738
3607.000000	1.045928
3606.000000	1.046113
3605.000000	1.046287
3604.000000	1.046488
3603.000000	1.046774
3602.000000	1.047150
3601.000000	1.047533
3600.000000	1.047810
3599.000000	1.047924
3598.000000	1.047910
3597.000000	1.047849
3596.000000	1.047807
3595.000000	1.047802
3594.000000	1.047833
3593.000000	1.047886
3592.000000	1.047937
3591.000000	1.047958
3590.000000	1.047938
3589.000000	1.047906
3588.000000	1.047913
3587.000000	1.047988
3586.000000	1.048115
3585.000000	1.048249
3584.000000	1.048359
3583.000000	1.048447
3582.000000	1.048526
3581.000000	1.048596
3580.000000	1.048641
3579.000000	1.048648
3578.000000	1.048625
3577.000000	1.048595
3576.000000	1.048586
3575.000000	1.048613
3574.000000	1.048677
3573.000000	1.048759
3572.000000	1.048828
3571.000000	1.048848
3570.000000	1.048791
3569.000000	1.048673
3568.000000	1.048555
3567.000000	1.048513
3566.000000	1.048580
3565.000000	1.048718
3564.000000	1.048856
3563.000000	1.048946
3562.000000	1.048990
3561.000000	1.049009
3560.000000	1.049017
3559.000000	1.049022
3558.000000	1.049033
3557.000000	1.049056
3556.000000	1.049081
3555.000000	1.049088
3554.000000	1.049074
3553.000000	1.049055
3552.000000	1.049057
3551.000000	1.049084
3550.000000	1.049120
3549.000000	1.049146
3548.000000	1.049156
3547.000000	1.049156
3546.000000	1.049159
3545.000000	1.049176
3544.000000	1.049215
3543.000000	1.049278
3542.000000	1.049349
3541.000000	1.049408
3540.000000	1.049441
3539.000000	1.049460
3538.000000	1.049482
3537.000000	1.049513
3536.000000	1.049542
3535.000000	1.049559
3534.000000	1.049565
3533.000000	1.049570
3532.000000	1.049577
3531.000000	1.049581
3530.000000	1.049571
3529.000000	1.049547
3528.000000	1.049519
3527.000000	1.049509
3526.000000	1.049525
3525.000000	1.049558
3524.000000	1.049600
3523.000000	1.049659
3522.000000	1.049748
3521.000000	1.049867
3520.000000	1.049991
3519.000000	1.050090
3518.000000	1.050155
3517.000000	1.050196
3516.000000	1.050227
3515.000000	1.050255
3514.000000	1.050281
3513.000000	1.050309
3512.000000	1.050344
3511.000000	1.050386
3510.000000	1.050435
3509.000000	1.050494
3508.000000	1.050567
3507.000000	1.050645
3506.000000	1.050710
3505.000000	1.050750
3504.000000	1.050774
3503.000000	1.050813
3502.000000	1.050893
3501.000000	1.051006
3500.000000	1.051124
3499.000000	1.051215
3498.000000	1.051273
3497.000000	1.051317
3496.000000	1.051373
3495.000000	1.051458
3494.000000	1.051565
3493.000000	1.051670
3492.000000	1.051752
3491.000000	1.051807
3490.000000	1.051848
3489.000000	1.051886
3488.000000	1.051930
3487.000000	1.051985
3486.000000	1.052060
3485.000000	1.052156
3484.000000	1.052264
3483.000000	1.052368
3482.000000	1.052460
3481.000000	1.052541
3480.000000	1.052618
3479.000000	1.052693
3478.000000	1.052768
3477.000000	1.052841
3476.000000	1.052913
3475.000000	1.052992
3474.000000	1.053085
3473.000000	1.053191
3472.000000	1.053304
3471.000000	1.053420
3470.000000	1.053544
3469.000000	1.053679
3468.000000	1.053822
3467.000000	1.053964
3466.000000	1.054096
3465.000000	1.054211
3464.000000	1.054303
3463.000000	1.054373
3462.000000	1.054439
3461.000000	1.054527
3460.000000	1.054656
3459.000000	1.054820
3458.000000	1.054990
3457.000000	1.055135
3456.000000	1.055242
3455.000000	1.055327
3454.000000	1.055416
3453.000000	1.055526
3452.000000	1.055653
3451.000000	1.055789
3450.000000	1.055931
3449.000000	1.056082
3448.000000	1.056239
3447.000000	1.056390
3446.000000	1.056524
3445.000000	1.056640
3444.000000	1.056745
3443.000000	1.056849
3442.000000	1.056960
3441.000000	1.057080
3440.000000	1.057211
3439.000000	1.057350
3438.000000	1.057495
3437.000000	1.057640
3436.000000	1.057775
3435.000000	1.057894
3434.000000	1.058006
3433.000000	1.058125
3432.000000	1.058265
3431.000000	1.058423
3430.000000	1.058589
3429.000000	1.058751
3428.000000	1.058902
3427.000000	1.059040
3426.000000	1.059169
3425.000000	1.059299
3424.000000	1.059438
3423.000000	1.059590
3422.000000	1.059741
3421.000000	1.059872
3420.000000	1.059978
3419.000000	1.060070
3418.000000	1.060171
3417.000000	1.060292
3416.000000	1.060425
3415.000000	1.060551
3414.000000	1.060661
3413.000000	1.060754
3412.000000	1.060846
3411.000000	1.060956
3410.000000	1.061096
3409.000000	1.061257
3408.000000	1.061411
3407.000000	1.061528
3406.000000	1.061601
3405.000000	1.061643
3404.000000	1.061675
3403.000000	1.061706
3402.000000	1.061745
3401.000000	1.061799
3400.000000	1.061871
3399.000000	1.061955
3398.000000	1.062042
3397.000000	1.062128
3396.000000	1.062208
3395.000000	1.062271
3394.000000	1.062306
3393.000000	1.062325
3392.000000	1.062360
3391.000000	1.062440
3390.000000	1.062558
3389.000000	1.062681
3388.000000	1.062779
3387.000000	1.062846
3386.000000	1.062890
3385.000000	1.062930
3384.000000	1.062980
3383.000000	1.063049
3382.000000	1.063127
3381.000000	1.063194
3380.000000	1.063231
3379.000000	1.063243
3378.000000	1.063252
3377.000000	1.063279
3376.000000	1.063330
3375.000000	1.063401
3374.000000	1.063479
3373.000000	1.063541
3372.000000	1.063570
3371.000000	1.063571
3370.000000	1.063573
3369.000000	1.063598
3368.000000	1.063642
3367.000000	1.063688
3366.000000	1.063726
3365.000000	1.063766
3364.000000	1.063816
3363.000000	1.063876
3362.000000	1.063936
3361.000000	1.063986
3360.000000	1.064020
3359.000000	1.064043
3358.000000	1.064067
3357.000000	1.064098
3356.000000	1.064127
3355.000000	1.064146
3354.000000	1.064158
3353.000000	1.064177
3352.000000	1.064215
3351.000000	1.064263
3350.000000	1.064309
3349.000000	1.064341
3348.000000	1.064357
3347.000000	1.064359
3346.000000	1.064355
3345.000000	1.064360
3344.000000	1.064386
3343.000000	1.064432
3342.000000	1.064490
3341.000000	1.064544
3340.000000	1.064581
3339.000000	1.064593
3338.000000	1.064588
3337.000000	1.064584
3336.000000	1.064595
3335.000000	1.064613
3334.000000	1.064622
3333.000000	1.064620
3332.000000	1.064629
3331.000000	1.064666
3330.000000	1.064728
3329.000000	1.064785
3328.000000	1.064810
3327.000000	1.064804
3326.000000	1.064795
3325.000000	1.064809
3324.000000	1.064855
3323.000000	1.064919
3322.000000	1.064980
3321.000000	1.065029
3320.000000	1.065063
3319.000000	1.065086
3318.000000	1.065101
3317.000000	1.065112
3316.000000	1.065128
3315.000000	1.065157
3314.000000	1.065202
3313.000000	1.065258
3312.000000	1.065313
3311.000000	1.065359
3310.000000	1.065391
3309.000000	1.065411
3308.000000	1.065423
3307.000000	1.065434
3306.000000	1.065451
3305.000000	1.065482
3304.000000	1.065530
3303.000000	1.065588
3302.000000	1.065649
3301.000000	1.065703
3300.000000	1.065744
3299.000000	1.065775
3298.000000	1.065805
3297.000000	1.065842
3296.000000	1.065888
3295.000000	1.065936
3294.000000	1.065981
3293.000000	1.066024
3292.000000	1.066068
3291.000000	1.066118
3290.000000	1.066176
3289.000000	1.066239
3288.000000	1.066298
3287.000000	1.066341
3286.000000	1.066365
3285.000000	1.066379
3284.000000	1.066388
3283.000000	1.066398
3282.000000	1.066410
3281.000000	1.066437
3280.000000	1.066491
3279.000000	1.066564
3278.000000	1.066631
3277.000000	1.066666
3276.000000	1.066668
3275.000000	1.066658
3274.000000	1.066660
3273.000000	1.066681
3272.000000	1.066713
3271.000000	1.066751
3270.000000	1.066794
3269.000000	1.066840
3268.000000	1.066882
3267.000000	1.066911
3266.000000	1.066928
3265.000000	1.066949
3264.000000	1.066991
3263.000000	1.067055
3262.000000	1.067125
3261.000000	1.067184
3260.000000	1.067222
3259.000000	1.067237
3258.000000	1.067231
3257.000000	1.067219
3256.000000	1.067225
3255.000000	1.067263
3254.000000	1.067330
3253.000000	1.067404
3252.000000	1.067461
3251.000000	1.067494
3250.000000	1.067510
3249.000000	1.067529
3248.000000	1.067570
3247.000000	1.067638
3246.000000	1.067712
3245.000000	1.067764
3244.000000	1.067777
3243.000000	1.067767
3242.000000	1.067764
3241.000000	1.067786
3240.000000	1.067827
3239.000000	1.067870
3238.000000	1.067909
3237.000000	1.067949
3236.000000	1.067993
3235.000000	1.068040
3234.000000	1.068088
3233.000000	1.068140
3232.000000	1.068198
3231.000000	1.068254
3230.000000	1.068294
3229.000000	1.068309
3228.000000	1.068306
3227.000000	1.068306
3226.000000	1.068328
3225.000000	1.068379
3224.000000	1.068453
3223.000000	1.068538
3222.000000	1.068618
3221.000000	1.068682
3220.000000	1.068718
3219.000000	1.068729
3218.000000	1.068726
3217.000000	1.068721
3216.000000	1.068717
3215.000000	1.068705
3214.000000	1.068688
3213.000000	1.068677
3212.000000	1.068685
3211.000000	1.068710
3210.000000	1.068740
3209.000000	1.068768
3208.000000	1.068792
3207.000000	1.068808
3206.000000	1.068811
3205.000000	1.068804
3204.000000	1.068799
3203.000000	1.068811
3202.000000	1.068838
3201.000000	1.068862
3200.000000	1.068863
3199.000000	1.068839
3198.000000	1.068807
3197.000000	1.068791
3196.000000	1.068799
3195.000000	1.068819
3194.000000	1.068834
3193.000000	1.068835
3192.000000	1.068827
3191.000000	1.068817
3190.000000	1.068809
3189.000000	1.068802
3188.000000	1.068800
3187.000000	1.068803
3186.000000	1.068809
3185.000000	1.068807
3184.000000	1.068792
3183.000000	1.068760
3182.000000	1.068713
3181.000000	1.068667
3180.000000	1.068638
3179.000000	1.068636
3178.000000	1.068653
3177.000000	1.068673
3176.000000	1.068687
3175.000000	1.068697
3174.000000	1.068703
3173.000000	1.068696
3172.000000	1.068669
3171.000000	1.068630
3170.000000	1.068596
3169.000000	1.068580
3168.000000	1.068579
3167.000000	1.068584
3166.000000	1.068591
3165.000000	1.068600
3164.000000	1.068613
3163.000000	1.068623
3162.000000	1.068629
3161.000000	1.068636
3160.000000	1.068651
3159.000000	1.068671
3158.000000	1.068682
3157.000000	1.068675
3156.000000	1.068653
3155.000000	1.068626
3154.000000	1.068605
3153.000000	1.068593
3152.000000	1.068592
3151.000000	1.068607
3150.000000	1.068636
3149.000000	1.068668
3148.000000	1.068689
3147.000000	1.068692
3146.000000	1.068684
3145.000000	1.068674
3144.000000	1.068666
3143.000000	1.068660
3142.000000	1.068653
3141.000000	1.068647
3140.000000	1.068645
3139.000000	1.068649
3138.000000	1.068659
3137.000000	1.068674
3136.000000	1.068690
3135.000000	1.068702
3134.000000	1.068707
3133.000000	1.068711
3132.000000	1.068724
3131.000000	1.068751
3130.000000	1.068784
3129.000000	1.068811
3128.000000	1.068824
3127.000000	1.068819
3126.000000	1.068802
3125.000000	1.068780
3124.000000	1.068766
3123.000000	1.068773
3122.000000	1.068797
3121.000000	1.068815
3120.000000	1.068809
3119.000000	1.068777
3118.000000	1.068740
3117.000000	1.068724
3116.000000	1.068737
3115.000000	1.068768
3114.000000	1.068798
3113.000000	1.068813
3112.000000	1.068817
3111.000000	1.068818
3110.000000	1.068815
3109.000000	1.068798
3108.000000	1.068760
3107.000000	1.068709
3106.000000	1.068671
3105.000000	1.068655
3104.000000	1.068652
3103.000000	1.068634
3102.000000	1.068588
3101.000000	1.068522
3100.000000	1.068457
3099.000000	1.068408
3098.000000	1.068373
3097.000000	1.068347
3096.000000	1.068326
3095.000000	1.068313
3094.000000	1.068304
3093.000000	1.068283
3092.000000	1.068236
3091.000000	1.068164
3090.000000	1.068087
3089.000000	1.068027
3088.000000	1.067986
3087.000000	1.067944
3086.000000	1.067884
3085.000000	1.067806
3084.000000	1.067725
3083.000000	1.067650
3082.000000	1.067585
3081.000000	1.067531
3080.000000	1.067488
3079.000000	1.067453
3078.000000	1.067408
3077.000000	1.067340
3076.000000	1.067252
3075.000000	1.067161
3074.000000	1.067086
3073.000000	1.067033
3072.000000	1.066995
3071.000000	1.066955
3070.000000	1.066899
3069.000000	1.066822
3068.000000	1.066727
3067.000000	1.066628
3066.000000	1.066541
3065.000000	1.066477
3064.000000	1.066430
3063.000000	1.066382
3062.000000	1.066319
3061.000000	1.066248
3060.000000	1.066182
3059.000000	1.066125
3058.000000	1.066066
3057.000000	1.065992
3056.000000	1.065905
3055.000000	1.065812
3054.000000	1.065720
3053.000000	1.065630
3052.000000	1.065543
3051.000000	1.065458
3050.000000	1.065370
3049.000000	1.065282
3048.000000	1.065206
3047.000000	1.065145
3046.000000	1.065086
3045.000000	1.065006
3044.000000	1.064906
3043.000000	1.064815
3042.000000	1.064758
3041.000000	1.064727
3040.000000	1.064698
3039.000000	1.064654
3038.000000	1.064594
3037.000000	1.064521
3036.000000	1.064430
3035.000000	1.064322
3034.000000	1.064209
3033.000000	1.064107
3032.000000	1.064028
3031.000000	1.063966
3030.000000	1.063904
3029.000000	1.063828
3028.000000	1.063731
3027.000000	1.063629
3026.000000	1.063537
3025.000000	1.063461
3024.000000	1.063387
3023.000000	1.063300
3022.000000	1.063194
3021.000000	1.063069
3020.000000	1.062934
3019.000000	1.062803
3018.000000	1.062691
3017.000000	1.062609
3016.000000	1.062545
3015.000000	1.062475
3014.000000	1.062381
3013.000000	1.062265
3012.000000	1.062142
3011.000000	1.062023
3010.000000	1.061914
3009.000000	1.061819
3008.000000	1.061738
3007.000000	1.061660
3006.000000	1.061564
3005.000000	1.061433
3004.000000	1.061276
3003.000000	1.061117
3002.000000	1.060978
3001.000000	1.060854
3000.000000	1.060732
2999.000000	1.060599
2998.000000	1.060456
2997.000000	1.060307
2996.000000	1.060151
2995.000000	1.059985
2994.000000	1.059806
2993.000000	1.059627
2992.000000	1.059464
2991.000000	1.059325
2990.000000	1.059204
2989.000000	1.059081
2988.000000	1.058940
2987.000000	1.058785
2986.000000	1.058635
2985.000000	1.058501
2984.000000	1.058372
2983.000000	1.058233
2982.000000	1.058071
2981.000000	1.057893
2980.000000	1.057715
2979.000000	1.057555
2978.000000	1.057419
2977.000000	1.057293
2976.000000	1.057154
2975.000000	1.056990
2974.000000	1.056809
2973.000000	1.056639
2972.000000	1.056492
2971.000000	1.056358
2970.000000	1.056216
2969.000000	1.056056
2968.000000	1.055886
2967.000000	1.055713
2966.000000	1.055534
2965.000000	1.055337
2964.000000	1.055122
2963.000000	1.054897
2962.000000	1.054671
2961.000000	1.054451
2960.000000	1.054238
2959.000000	1.054031
2958.000000	1.053824
2957.000000	1.053608
2956.000000	1.053380
2955.000000	1.053145
2954.000000	1.052912
2953.000000	1.052693
2952.000000	1.052498
2951.000000	1.052320
2950.000000	1.052137
2949.000000	1.051930
2948.000000	1.051701
2947.000000	1.051475
2946.000000	1.051276
2945.000000	1.051107
2944.000000	1.050955
2943.000000	1.050803
2942.000000	1.050639
2941.000000	1.050450
2940.000000	1.050228
2939.000000	1.049978
2938.000000	1.049721
2937.000000	1.049480
2936.000000	1.049267
2935.000000	1.049073
2934.000000	1.048880
2933.000000	1.048669
2932.000000	1.048445
2931.000000	1.048225
2930.000000	1.048027
2929.000000	1.047846
2928.000000	1.047665
2927.000000	1.047469
2926.000000	1.047264
2925.000000	1.047059
2924.000000	1.046860
2923.000000	1.046662
2922.000000	1.046452
2921.000000	1.046216
2920.000000	1.045959
2919.000000	1.045700
2918.000000	1.045463
2917.000000	1.045255
2916.000000	1.045066
2915.000000	1.044881
2914.000000	1.044694
2913.000000	1.044506
2912.000000	1.044315
2911.000000	1.044119
2910.000000	1.043912
2909.000000	1.043693
2908.000000	1.043465
2907.000000	1.043238
2906.000000	1.043024
2905.000000	1.042828
2904.000000	1.042640
2903.000000	1.042456
2902.000000	1.042273
2901.000000	1.042096
2900.000000	1.041922
2899.000000	1.041743
2898.000000	1.041551
2897.000000	1.041344
2896.000000	1.041124
2895.000000	1.040900
2894.000000	1.040686
2893.000000	1.040494
2892.000000	1.040323
2891.000000	1.040163
2890.000000	1.040000
2889.000000	1.039828
2888.000000	1.039650
2887.000000	1.039471
2886.000000	1.039294
2885.000000	1.039119
2884.000000	1.038940
2883.000000	1.038756
2882.000000	1.038567
2881.000000	1.038380
2880.000000	1.038200
2879.000000	1.038031
2878.000000	1.037866
2877.000000	1.037701
2876.000000	1.037531
2875.000000	1.037360
2874.000000	1.037190
2873.000000	1.037019
2872.000000	1.036850
2871.000000	1.036691
2870.000000	1.036546
2869.000000	1.036406
2868.000000	1.036257
2867.000000	1.036091
2866.000000	1.035918
2865.000000	1.035746
2864.000000	1.035574
2863.000000	1.035392
2862.000000	1.035202
2861.000000	1.035016
2860.000000	1.034845
2859.000000	1.034687
2858.000000	1.034537
2857.000000	1.034395
2856.000000	1.034262
2855.000000	1.034135
2854.000000	1.034006
2853.000000	1.033864
2852.000000	1.033708
2851.000000	1.033550
2850.000000	1.033409
2849.000000	1.033297
2848.000000	1.033209
2847.000000	1.033129
2846.000000	1.033047
2845.000000	1.032955
2844.000000	1.032839
2843.000000	1.032689
2842.000000	1.032515
2841.000000	1.032353
2840.000000	1.032237
2839.000000	1.032170
2838.000000	1.032119
2837.000000	1.032048
2836.000000	1.031947
2835.000000	1.031832
2834.000000	1.031731
2833.000000	1.031653
2832.000000	1.031581
2831.000000	1.031487
2830.000000	1.031362
2829.000000	1.031224
2828.000000	1.031100
2827.000000	1.030996
2826.000000	1.030895
2825.000000	1.030787
2824.000000	1.030682
2823.000000	1.030588
2822.000000	1.030494
2821.000000	1.030380
2820.000000	1.030248
2819.000000	1.030118
2818.000000	1.030010
2817.000000	1.029918
2816.000000	1.029825
2815.000000	1.029730
2814.000000	1.029643
2813.000000	1.029572
2812.000000	1.029509
2811.000000	1.029437
2810.000000	1.029354
2809.000000	1.029269
2808.000000	1.029191
2807.000000	1.029122
2806.000000	1.029054
2805.000000	1.028980
2804.000000	1.028904
2803.000000	1.028829
2802.000000	1.028758
2801.000000	1.028684
2800.000000	1.028602
2799.000000	1.028509
2798.000000	1.028408
2797.000000	1.028309
2796.000000	1.028226
2795.000000	1.028162
2794.000000	1.028109
2793.000000	1.028051
2792.000000	1.027983
2791.000000	1.027916
2790.000000	1.027862
2789.000000	1.027819
2788.000000	1.027777
2787.000000	1.027725
2786.000000	1.027663
2785.000000	1.027600
2784.000000	1.027544
2783.000000	1.027492
2782.000000	1.027433
2781.000000	1.027359
2780.000000	1.027271
2779.000000	1.027185
2778.000000	1.027115
2777.000000	1.027069
2776.000000	1.027045
2775.000000	1.027030
2774.000000	1.027009
2773.000000	1.026976
2772.000000	1.026934
2771.000000	1.026891
2770.000000	1.026844
2769.000000	1.026787
2768.000000	1.026727
2767.000000	1.026677
2766.000000	1.026640
2765.000000	1.026605
2764.000000	1.026562
2763.000000	1.026514
2762.000000	1.026473
2761.000000	1.026442
2760.000000	1.026409
2759.000000	1.026363
2758.000000	1.026307
2757.000000	1.026254
2756.000000	1.026216
2755.000000	1.026197
2754.000000	1.026197
2753.000000	1.026206
2752.000000	1.026212
2751.000000	1.026202
2750.000000	1.026172
2749.000000	1.026122
2748.000000	1.026062
2747.000000	1.026004
2746.000000	1.025958
2745.000000	1.025934
2744.000000	1.025933
2743.000000	1.025945
2742.000000	1.025959
2741.000000	1.025967
2740.000000	1.025971
2739.000000	1.025972
2738.000000	1.025963
2737.000000	1.025939
2736.000000	1.025902
2735.000000	1.025865
2734.000000	1.025834
2733.000000	1.025804
2732.000000	1.025772
2731.000000	1.025741
2730.000000	1.025716
2729.000000	1.025698
2728.000000	1.025688
2727.000000	1.025687
2726.000000	1.025696
2725.000000	1.025705
2724.000000	1.025704
2723.000000	1.025691
2722.000000	1.025674
2721.000000	1.025660
2720.000000	1.025654
2719.000000	1.025657
2718.000000	1.025663
2717.000000	1.025664
2716.000000	1.025658
2715.000000	1.025655
2714.000000	1.025672
2713.000000	1.025706
2712.000000	1.025742
2711.000000	1.025765
2710.000000	1.025772
2709.000000	1.025770
2708.000000	1.025763
2707.000000	1.025752
2706.000000	1.025741
2705.000000	1.025737
2704.000000	1.025747
2703.000000	1.025772
2702.000000	1.025806
2701.000000	1.025837
2700.000000	1.025858
2699.000000	1.025879
2698.000000	1.025905
2697.000000	1.025932
2696.000000	1.025952
2695.000000	1.025970
2694.000000	1.025994
2693.000000	1.026023
2692.000000	1.026051
2691.000000	1.026074
2690.000000	1.026101
2689.000000	1.026135
2688.000000	1.026168
2687.000000	1.026200
2686.000000	1.026242
2685.000000	1.026302
2684.000000	1.026369
2683.000000	1.026426
2682.000000	1.026465
2681.000000	1.026491
2680.000000	1.026516
2679.000000	1.026549
2678.000000	1.026596
2677.000000	1.026659
2676.000000	1.026730
2675.000000	1.026794
2674.000000	1.026845
2673.000000	1.026883
2672.000000	1.026910
2671.000000	1.026931
2670.000000	1.026957
2669.000000	1.026994
2668.000000	1.027043
2667.000000	1.027095
2666.000000	1.027143
2665.000000	1.027189
2664.000000	1.027242
2663.000000	1.027307
2662.000000	1.027383
2661.000000	1.027464
2660.000000	1.027541
2659.000000	1.027609
2658.000000	1.027673
2657.000000	1.027739
2656.000000	1.027815
2655.000000	1.027904
2654.000000	1.028003
2653.000000	1.028101
2652.000000	1.028184
2651.000000	1.028246
2650.000000	1.028295
2649.000000	1.028347
2648.000000	1.028409
2647.000000	1.028478
2646.000000	1.028554
2645.000000	1.028638
2644.000000	1.028730
2643.000000	1.028831
2642.000000	1.028943
2641.000000	1.029063
2640.000000	1.029175
2639.000000	1.029265
2638.000000	1.029340
2637.000000	1.029421
2636.000000	1.029519
2635.000000	1.029618
2634.000000	1.029701
2633.000000	1.029765
2632.000000	1.029826
2631.000000	1.029896
2630.000000	1.029977
2629.000000	1.030066
2628.000000	1.030154
2627.000000	1.030233
2626.000000	1.030298
2625.000000	1.030361
2624.000000	1.030448
2623.000000	1.030571
2622.000000	1.030719
2621.000000	1.030865
2620.000000	1.030991
2619.000000	1.031090
2618.000000	1.031167
2617.000000	1.031232
2616.000000	1.031300
2615.000000	1.031386
2614.000000	1.031498
2613.000000	1.031624
2612.000000	1.031751
2611.000000	1.031868
2610.000000	1.031974
2609.000000	1.032076
2608.000000	1.032176
2607.000000	1.032274
2606.000000	1.032371
2605.000000	1.032470
2604.000000	1.032575
2603.000000	1.032686
2602.000000	1.032802
2601.000000	1.032919
2600.000000	1.033035
2599.000000	1.033151
2598.000000	1.033266
2597.000000	1.033377
2596.000000	1.033483
2595.000000	1.033588
2594.000000	1.033696
2593.000000	1.033809
2592.000000	1.033931
2591.000000	1.034063
2590.000000	1.034196
2589.000000	1.034318
2588.000000	1.034422
2587.000000	1.034518
2586.000000	1.034623
2585.000000	1.034744
2584.000000	1.034875
2583.000000	1.035001
2582.000000	1.035110
2581.000000	1.035208
2580.000000	1.035310
2579.000000	1.035431
2578.000000	1.035569
2577.000000	1.035714
2576.000000	1.035856
2575.000000	1.035995
2574.000000	1.036132
2573.000000	1.036264
2572.000000	1.036388
2571.000000	1.036513
2570.000000	1.036647
2569.000000	1.036790
2568.000000	1.036933
2567.000000	1.037074
2566.000000	1.037219
2565.000000	1.037374
2564.000000	1.037535
2563.000000	1.037689
2562.000000	1.037830
2561.000000	1.037959
2560.000000	1.038085
2559.000000	1.038222
2558.000000	1.038377
2557.000000	1.038542
2556.000000	1.038700
2555.000000	1.038844
2554.000000	1.038983
2553.000000	1.039130
2552.000000	1.039289
2551.000000	1.039456
2550.000000	1.039625
2549.000000	1.039793
2548.000000	1.039953
2547.000000	1.040104
2546.000000	1.040253
2545.000000	1.040411
2544.000000	1.040579
2543.000000	1.040746
2542.000000	1.040904
2541.000000	1.041057
2540.000000	1.041213
2539.000000	1.041376
2538.000000	1.041541
2537.000000	1.041704
2536.000000	1.041866
2535.000000	1.042031
2534.000000	1.042203
2533.000000	1.042381
2532.000000	1.042556
2531.000000	1.042730
2530.000000	1.042909
2529.000000	1.043098
2528.000000	1.043284
2527.000000	1.043450
2526.000000	1.043596
2525.000000	1.043739
2524.000000	1.043899
2523.000000	1.044075
2522.000000	1.044252
2521.000000	1.044421
2520.000000	1.044584
2519.000000	1.044746
2518.000000	1.044910
2517.000000	1.045075
2516.000000	1.045243
2515.000000	1.045418
2514.000000	1.045598
2513.000000	1.045778
2512.000000	1.045954
2511.000000	1.046124
2510.000000	1.046287
2509.000000	1.046441
2508.000000	1.046588
2507.000000	1.046736
2506.000000	1.046891
2505.000000	1.047051
2504.000000	1.047212
2503.000000	1.047369
2502.000000	1.047519
2501.000000	1.047658
2500.000000	1.047781
2499.000000	1.047891
2498.000000	1.047996
2497.000000	1.048106
2496.000000	1.048224
2495.000000	1.048350
2494.000000	1.048484
2493.000000	1.048620
2492.000000	1.048743
2491.000000	1.048839
2490.000000	1.048912
2489.000000	1.048981
2488.000000	1.049067
2487.000000	1.049172
2486.000000	1.049279
2485.000000	1.049374
2484.000000	1.049453
2483.000000	1.049522
2482.000000	1.049587
2481.000000	1.049648
2480.000000	1.049705
2479.000000	1.049760
2478.000000	1.049814
2477.000000	1.049869
2476.000000	1.049923
2475.000000	1.049974
2474.000000	1.050024
2473.000000	1.050074
2472.000000	1.050133
2471.000000	1.050206
2470.000000	1.050284
2469.000000	1.050347
2468.000000	1.050385
2467.000000	1.050409
2466.000000	1.050435
2465.000000	1.050469
2464.000000	1.050504
2463.000000	1.050536
2462.000000	1.050566
2461.000000	1.050595
2460.000000	1.050614
2459.000000	1.050620
2458.000000	1.050620
2457.000000	1.050627
2456.000000	1.050638
2455.000000	1.050644
2454.000000	1.050639
2453.000000	1.050626
2452.000000	1.050607
2451.000000	1.050587
2450.000000	1.050567
2449.000000	1.050551
2448.000000	1.050533
2447.000000	1.050505
2446.000000	1.050463
2445.000000	1.050416
2444.000000	1.050375
2443.000000	1.050341
2442.000000	1.050304
2441.000000	1.050249
2440.000000	1.050172
2439.000000	1.050088
2438.000000	1.050016
2437.000000	1.049967
2436.000000	1.049928
2435.000000	1.049878
2434.000000	1.049803
2433.000000	1.049716
2432.000000	1.049636
2431.000000	1.049572
2430.000000	1.049514
2429.000000	1.049445
2428.000000	1.049359
2427.000000	1.049266
2426.000000	1.049181
2425.000000	1.049113
2424.000000	1.049059
2423.000000	1.049011
2422.000000	1.048958
2421.000000	1.048889
2420.000000	1.048794
2419.000000	1.048677
2418.000000	1.048556
2417.000000	1.048449
2416.000000	1.048360
2415.000000	1.048276
2414.000000	1.048181
2413.000000	1.048065
2412.000000	1.047943
2411.000000	1.047846
2410.000000	1.047798
2409.000000	1.047786
2408.000000	1.047774
2407.000000	1.047729
2406.000000	1.047654
2405.000000	1.047572
2404.000000	1.047494
2403.000000	1.047414
2402.000000	1.047329
2401.000000	1.047248
2400.000000	1.047178
2399.000000	1.047115
2398.000000	1.047047
2397.000000	1.046970
2396.000000	1.046890
2395.000000	1.046811
2394.000000	1.046730
2393.000000	1.046649
2392.000000	1.046579
2391.000000	1.046526
2390.000000	1.046488
2389.000000	1.046458
2388.000000	1.046431
2387.000000	1.046411
2386.000000	1.046417
2385.000000	1.046481
2384.000000	1.046649
2383.000000	1.046974
2382.000000	1.047493
2381.000000	1.048189
2380.000000	1.048981
2379.000000	1.049745
2378.000000	1.050375
2377.000000	1.050823
2376.000000	1.051108
2375.000000	1.051280
2374.000000	1.051379
2373.000000	1.051425
2372.000000	1.051424
2371.000000	1.051384
2370.000000	1.051314
2369.000000	1.051224
2368.000000	1.051120
2367.000000	1.051022
2366.000000	1.050958
2365.000000	1.050958
2364.000000	1.051040
2363.000000	1.051203
2362.000000	1.051440
2361.000000	1.051742
2360.000000	1.052103
2359.000000	1.052513
2358.000000	1.052960
2357.000000	1.053435
2356.000000	1.053933
2355.000000	1.054455
2354.000000	1.054998
2353.000000	1.055558
2352.000000	1.056115
2351.000000	1.056621
2350.000000	1.057002
2349.000000	1.057196
2348.000000	1.057207
2347.000000	1.057127
2346.000000	1.057093
2345.000000	1.057207
2344.000000	1.057492
2343.000000	1.057897
2342.000000	1.058304
2341.000000	1.058561
2340.000000	1.058527
2339.000000	1.058149
2338.000000	1.057502
2337.000000	1.056751
2336.000000	1.056052
2335.000000	1.055492
2334.000000	1.055085
2333.000000	1.054816
2332.000000	1.054655
2331.000000	1.054568
2330.000000	1.054525
2329.000000	1.054505
2328.000000	1.054499
2327.000000	1.054504
2326.000000	1.054514
2325.000000	1.054526
2324.000000	1.054536
2323.000000	1.054539
2322.000000	1.054530
2321.000000	1.054519
2320.000000	1.054523
2319.000000	1.054554
2318.000000	1.054604
2317.000000	1.054657
2316.000000	1.054703
2315.000000	1.054742
2314.000000	1.054780
2313.000000	1.054813
2312.000000	1.054835
2311.000000	1.054845
2310.000000	1.054855
2309.000000	1.054876
2308.000000	1.054905
2307.000000	1.054930
2306.000000	1.054940
2305.000000	1.054941
2304.000000	1.054942
2303.000000	1.054944
2302.000000	1.054941
2301.000000	1.054933
2300.000000	1.054925
2299.000000	1.054926
2298.000000	1.054938
2297.000000	1.054957
2296.000000	1.054978
2295.000000	1.054994
2294.000000	1.055005
2293.000000	1.055015
2292.000000	1.055028
2291.000000	1.055039
2290.000000	1.055035
2289.000000	1.055010
2288.000000	1.054975
2287.000000	1.054969
2286.000000	1.055045
2285.000000	1.055236
2284.000000	1.055524
2283.000000	1.055823
2282.000000	1.056024
2281.000000	1.056070
2280.000000	1.055992
2279.000000	1.055876
2278.000000	1.055787
2277.000000	1.055739
2276.000000	1.055714
2275.000000	1.055700
2274.000000	1.055692
2273.000000	1.055690
2272.000000	1.055690
2271.000000	1.055693
2270.000000	1.055701
2269.000000	1.055713
2268.000000	1.055726
2267.000000	1.055740
2266.000000	1.055755
2265.000000	1.055767
2264.000000	1.055780
2263.000000	1.055800
2262.000000	1.055827
2261.000000	1.055854
2260.000000	1.055872
2259.000000	1.055882
2258.000000	1.055886
2257.000000	1.055889
2256.000000	1.055899
2255.000000	1.055928
2254.000000	1.055980
2253.000000	1.056032
2252.000000	1.056063
2251.000000	1.056076
2250.000000	1.056095
2249.000000	1.056128
2248.000000	1.056158
2247.000000	1.056166
2246.000000	1.056153
2245.000000	1.056141
2244.000000	1.056140
2243.000000	1.056151
2242.000000	1.056162
2241.000000	1.056170
2240.000000	1.056181
2239.000000	1.056202
2238.000000	1.056233
2237.000000	1.056260
2236.000000	1.056271
2235.000000	1.056273
2234.000000	1.056281
2233.000000	1.056299
2232.000000	1.056321
2231.000000	1.056336
2230.000000	1.056343
2229.000000	1.056347
2228.000000	1.056351
2227.000000	1.056356
2226.000000	1.056362
2225.000000	1.056368
2224.000000	1.056373
2223.000000	1.056381
2222.000000	1.056401
2221.000000	1.056432
2220.000000	1.056458
2219.000000	1.056467
2218.000000	1.056458
2217.000000	1.056441
2216.000000	1.056420
2215.000000	1.056397
2214.000000	1.056381
2213.000000	1.056382
2212.000000	1.056396
2211.000000	1.056406
2210.000000	1.056405
2209.000000	1.056396
2208.000000	1.056386
2207.000000	1.056374
2206.000000	1.056359
2205.000000	1.056354
2204.000000	1.056372
2203.000000	1.056400
2202.000000	1.056405
2201.000000	1.056367
2200.000000	1.056306
2199.000000	1.056259
2198.000000	1.056243
2197.000000	1.056244
2196.000000	1.056235
2195.000000	1.056209
2194.000000	1.056175
2193.000000	1.056143
2192.000000	1.056116
2191.000000	1.056091
2190.000000	1.056070
2189.000000	1.056053
2188.000000	1.056043
2187.000000	1.056046
2186.000000	1.056062
2185.000000	1.056072
2184.000000	1.056061
2183.000000	1.056029
2182.000000	1.055998
2181.000000	1.055977
2180.000000	1.055960
2179.000000	1.055934
2178.000000	1.055900
2177.000000	1.055865
2176.000000	1.055827
2175.000000	1.055780
2174.000000	1.055725
2173.000000	1.055668
2172.000000	1.055622
2171.000000	1.055589
2170.000000	1.055563
2169.000000	1.055529
2168.000000	1.055480
2167.000000	1.055421
2166.000000	1.055362
2165.000000	1.055310
2164.000000	1.055262
2163.000000	1.055219
2162.000000	1.055195
2161.000000	1.055192
2160.000000	1.055193
2159.000000	1.055175
2158.000000	1.055132
2157.000000	1.055071
2156.000000	1.055001
2155.000000	1.054920
2154.000000	1.054832
2153.000000	1.054747
2152.000000	1.054675
2151.000000	1.054616
2150.000000	1.054564
2149.000000	1.054506
2148.000000	1.054436
2147.000000	1.054352
2146.000000	1.054262
2145.000000	1.054183
2144.000000	1.054119
2143.000000	1.054068
2142.000000	1.054018
2141.000000	1.053962
2140.000000	1.053896
2139.000000	1.053821
2138.000000	1.053738
2137.000000	1.053652
2136.000000	1.053566
2135.000000	1.053482
2134.000000	1.053401
2133.000000	1.053321
2132.000000	1.053242
2131.000000	1.053161
2130.000000	1.053073
2129.000000	1.052968
2128.000000	1.052848
2127.000000	1.052722
2126.000000	1.052605
2125.000000	1.052505
2124.000000	1.052418
2123.000000	1.052338
2122.000000	1.052264
2121.000000	1.052198
2120.000000	1.052140
2119.000000	1.052080
2118.000000	1.052001
2117.000000	1.051886
2116.000000	1.051742
2115.000000	1.051589
2114.000000	1.051450
2113.000000	1.051327
2112.000000	1.051207
2111.000000	1.051085
2110.000000	1.050964
2109.000000	1.050844
2108.000000	1.050726
2107.000000	1.050613
2106.000000	1.050510
2105.000000	1.050415
2104.000000	1.050317
2103.000000	1.050209
2102.000000	1.050091
2101.000000	1.049960
2100.000000	1.049811
2099.000000	1.049652
2098.000000	1.049504
2097.000000	1.049381
2096.000000	1.049273
2095.000000	1.049164
2094.000000	1.049046
2093.000000	1.048917
2092.000000	1.048775
2091.000000	1.048621
2090.000000	1.048468
2089.000000	1.048329
2088.000000	1.048197
2087.000000	1.048061
2086.000000	1.047920
2085.000000	1.047781
2084.000000	1.047643
2083.000000	1.047491
2082.000000	1.047321
2081.000000	1.047149
2080.000000	1.046993
2079.000000	1.046855
2078.000000	1.046722
2077.000000	1.046576
2076.000000	1.046409
2075.000000	1.046230
2074.000000	1.046059
2073.000000	1.045914
2072.000000	1.045793
2071.000000	1.045678
2070.000000	1.045549
2069.000000	1.045402
2068.000000	1.045244
2067.000000	1.045092
2066.000000	1.044954
2065.000000	1.044826
2064.000000	1.044692
2063.000000	1.044538
2062.000000	1.044366
2061.000000	1.044185
2060.000000	1.044005
2059.000000	1.043835
2058.000000	1.043686
2057.000000	1.043556
2056.000000	1.043433
2055.000000	1.043307
2054.000000	1.043183
2053.000000	1.043065
2052.000000	1.042941
2051.000000	1.042793
2050.000000	1.042626
2049.000000	1.042467
2048.000000	1.042331
2047.000000	1.042212
2046.000000	1.042090
2045.000000	1.041949
2044.000000	1.041786
2043.000000	1.041608
2042.000000	1.041437
2041.000000	1.041292
2040.000000	1.041173
2039.000000	1.041060
2038.000000	1.040935
2037.000000	1.040795
2036.000000	1.040654
2035.000000	1.040523
2034.000000	1.040404
2033.000000	1.040281
2032.000000	1.040137
2031.000000	1.039973
2030.000000	1.039814
2029.000000	1.039684
2028.000000	1.039582
2027.000000	1.039483
2026.000000	1.039365
2025.000000	1.039223
2024.000000	1.039069
2023.000000	1.038916
2022.000000	1.038772
2021.000000	1.038638
2020.000000	1.038507
2019.000000	1.038379
2018.000000	1.038267
2017.000000	1.038182
2016.000000	1.038108
2015.000000	1.038018
2014.000000	1.037899
2013.000000	1.037766
2012.000000	1.037636
2011.000000	1.037514
2010.000000	1.037395
2009.000000	1.037281
2008.000000	1.037176
2007.000000	1.037077
2006.000000	1.036983
2005.000000	1.036893
2004.000000	1.036806
2003.000000	1.036715
2002.000000	1.036620
2001.000000	1.036531
2000.000000	1.036449
1999.000000	1.036361
1998.000000	1.036259
1997.000000	1.036149
1996.000000	1.036050
1995.000000	1.035971
1994.000000	1.035898
1993.000000	1.035810
1992.000000	1.035696
1991.000000	1.035566
1990.000000	1.035443
1989.000000	1.035347
1988.000000	1.035282
1987.000000	1.035238
1986.000000	1.035209
1985.000000	1.035189
1984.000000	1.035169
1983.000000	1.035131
1982.000000	1.035068
1981.000000	1.034986
1980.000000	1.034899
1979.000000	1.034809
1978.000000	1.034717
1977.000000	1.034628
1976.000000	1.034555
1975.000000	1.034507
1974.000000	1.034477
1973.000000	1.034451
1972.000000	1.034416
1971.000000	1.034365
1970.000000	1.034299
1969.000000	1.034223
1968.000000	1.034150
1967.000000	1.034091
1966.000000	1.034052
1965.000000	1.034027
1964.000000	1.034009
1963.000000	1.033990
1962.000000	1.033960
1961.000000	1.033914
1960.000000	1.033849
1959.000000	1.033779
1958.000000	1.033724
1957.000000	1.033695
1956.000000	1.033685
1955.000000	1.033676
1954.000000	1.033657
1953.000000	1.033626
1952.000000	1.033585
1951.000000	1.033538
1950.000000	1.033491
1949.000000	1.033450
1948.000000	1.033418
1947.000000	1.033397
1946.000000	1.033381
1945.000000	1.033361
1944.000000	1.033328
1943.000000	1.033289
1942.000000	1.033264
1941.000000	1.033262
1940.000000	1.033268
1939.000000	1.033266
1938.000000	1.033252
1937.000000	1.033242
1936.000000	1.033248
1935.000000	1.033269
1934.000000	1.033296
1933.000000	1.033319
1932.000000	1.033328
1931.000000	1.033313
1930.000000	1.033283
1929.000000	1.033261
1928.000000	1.033263
1927.000000	1.033280
1926.000000	1.033286
1925.000000	1.033265
1924.000000	1.033229
1923.000000	1.033209
1922.000000	1.033213
1921.000000	1.033216
1920.000000	1.033188
1919.000000	1.033136
1918.000000	1.033111
1917.000000	1.033149
1916.000000	1.033237
1915.000000	1.033329
1914.000000	1.033393
1913.000000	1.033429
1912.000000	1.033448
1911.000000	1.033458
1910.000000	1.033463
1909.000000	1.033473
1908.000000	1.033486
1907.000000	1.033497
1906.000000	1.033505
1905.000000	1.033523
1904.000000	1.033556
1903.000000	1.033595
1902.000000	1.033626
1901.000000	1.033642
1900.000000	1.033650
1899.000000	1.033655
1898.000000	1.033662
1897.000000	1.033673
1896.000000	1.033689
1895.000000	1.033714
1894.000000	1.033746
1893.000000	1.033776
1892.000000	1.033789
1891.000000	1.033790
1890.000000	1.033804
1889.000000	1.033851
1888.000000	1.033922
1887.000000	1.033986
1886.000000	1.034024
1885.000000	1.034048
1884.000000	1.034079
1883.000000	1.034125
1882.000000	1.034181
1881.000000	1.034234
1880.000000	1.034271
1879.000000	1.034299
1878.000000	1.034338
1877.000000	1.034396
1876.000000	1.034462
1875.000000	1.034517
1874.000000	1.034556
1873.000000	1.034582
1872.000000	1.034588
1871.000000	1.034568
1870.000000	1.034550
1869.000000	1.034576
1868.000000	1.034659
1867.000000	1.034774
1866.000000	1.034887
1865.000000	1.034984
1864.000000	1.035065
1863.000000	1.035130
1862.000000	1.035186
1861.000000	1.035243
1860.000000	1.035302
1859.000000	1.035353
1858.000000	1.035397
1857.000000	1.035446
1856.000000	1.035512
1855.000000	1.035591
1854.000000	1.035675
1853.000000	1.035767
1852.000000	1.035854
1851.000000	1.035917
1850.000000	1.035954
1849.000000	1.035987
1848.000000	1.036024
1847.000000	1.036037
1846.000000	1.036005
1845.000000	1.035970
1844.000000	1.036015
1843.000000	1.036182
1842.000000	1.036422
1841.000000	1.036641
1840.000000	1.036784
1839.000000	1.036869
1838.000000	1.036944
1837.000000	1.037040
1836.000000	1.037150
1835.000000	1.037256
1834.000000	1.037345
1833.000000	1.037404
1832.000000	1.037428
1831.000000	1.037443
1830.000000	1.037501
1829.000000	1.037630
1828.000000	1.037791
1827.000000	1.037923
1826.000000	1.038018
1825.000000	1.038124
1824.000000	1.038277
1823.000000	1.038454
1822.000000	1.038613
1821.000000	1.038741
1820.000000	1.038855
1819.000000	1.038969
1818.000000	1.039086
1817.000000	1.039203
1816.000000	1.039316
1815.000000	1.039415
1814.000000	1.039498
1813.000000	1.039581
1812.000000	1.039683
1811.000000	1.039810
1810.000000	1.039957
1809.000000	1.040114
1808.000000	1.040268
1807.000000	1.040404
1806.000000	1.040526
1805.000000	1.040648
1804.000000	1.040774
1803.000000	1.040888
1802.000000	1.040985
1801.000000	1.041086
1800.000000	1.041214
1799.000000	1.041376
1798.000000	1.041559
1797.000000	1.041735
1796.000000	1.041857
1795.000000	1.041894
1794.000000	1.041873
1793.000000	1.041885
1792.000000	1.042013
1791.000000	1.042259
1790.000000	1.042554
1789.000000	1.042820
1788.000000	1.043020
1787.000000	1.043158
1786.000000	1.043275
1785.000000	1.043422
1784.000000	1.043618
1783.000000	1.043830
1782.000000	1.044016
1781.000000	1.044171
1780.000000	1.044321
1779.000000	1.044482
1778.000000	1.044654
1777.000000	1.044816
1776.000000	1.044923
1775.000000	1.044929
1774.000000	1.044853
1773.000000	1.044820
1772.000000	1.044960
1771.000000	1.045271
1770.000000	1.045621
1769.000000	1.045898
1768.000000	1.046118
1767.000000	1.046354
1766.000000	1.046615
1765.000000	1.046830
1764.000000	1.046951
1763.000000	1.047020
1762.000000	1.047131
1761.000000	1.047332
1760.000000	1.047580
1759.000000	1.047793
1758.000000	1.047939
1757.000000	1.048071
1756.000000	1.048259
1755.000000	1.048490
1754.000000	1.048672
1753.000000	1.048743
1752.000000	1.048755
1751.000000	1.048822
1750.000000	1.049001
1749.000000	1.049258
1748.000000	1.049526
1747.000000	1.049766
1746.000000	1.049963
1745.000000	1.050115
1744.000000	1.050233
1743.000000	1.050334
1742.000000	1.050412
1741.000000	1.050469
1740.000000	1.050555
1739.000000	1.050726
1738.000000	1.050929
1737.000000	1.050995
1736.000000	1.050831
1735.000000	1.050585
1734.000000	1.050548
1733.000000	1.050848
1732.000000	1.051322
1731.000000	1.051721
1730.000000	1.051947
1729.000000	1.052071
1728.000000	1.052178
1727.000000	1.052290
1726.000000	1.052400
1725.000000	1.052506
1724.000000	1.052609
1723.000000	1.052703
1722.000000	1.052762
1721.000000	1.052724
1720.000000	1.052523
1719.000000	1.052199
1718.000000	1.051943
1717.000000	1.051946
1716.000000	1.052207
1715.000000	1.052556
1714.000000	1.052852
1713.000000	1.053077
1712.000000	1.053245
1711.000000	1.053340
1710.000000	1.053368
1709.000000	1.053372
1708.000000	1.053369
1707.000000	1.053336
1706.000000	1.053296
1705.000000	1.053316
1704.000000	1.053353
1703.000000	1.053229
1702.000000	1.052875
1701.000000	1.052512
1700.000000	1.052425
1699.000000	1.052596
1698.000000	1.052735
1697.000000	1.052692
1696.000000	1.052655
1695.000000	1.052876
1694.000000	1.053332
1693.000000	1.053753
1692.000000	1.053938
1691.000000	1.053923
1690.000000	1.053861
1689.000000	1.053822
1688.000000	1.053720
1687.000000	1.053440
1686.000000	1.053019
1685.000000	1.052697
1684.000000	1.052724
1683.000000	1.053097
1682.000000	1.053565
1681.000000	1.053898
1680.000000	1.054060
1679.000000	1.054119
1678.000000	1.054083
1677.000000	1.053930
1676.000000	1.053746
1675.000000	1.053693
1674.000000	1.053816
1673.000000	1.053975
1672.000000	1.054008
1671.000000	1.053917
1670.000000	1.053840
1669.000000	1.053892
1668.000000	1.054062
1667.000000	1.054244
1666.000000	1.054330
1665.000000	1.054286
1664.000000	1.054176
1663.000000	1.054120
1662.000000	1.054190
1661.000000	1.054341
1660.000000	1.054465
1659.000000	1.054505
1658.000000	1.054467
1657.000000	1.054309
1656.000000	1.053916
1655.000000	1.053264
1654.000000	1.052608
1653.000000	1.052368
1652.000000	1.052737
1651.000000	1.053444
1650.000000	1.054005
1649.000000	1.054149
1648.000000	1.053990
1647.000000	1.053826
1646.000000	1.053861
1645.000000	1.054090
1644.000000	1.054374
1643.000000	1.054575
1642.000000	1.054646
1641.000000	1.054635
1640.000000	1.054593
1639.000000	1.054492
1638.000000	1.054266
1637.000000	1.053951
1636.000000	1.053729
1635.000000	1.053767
1634.000000	1.054047
1633.000000	1.054390
1632.000000	1.054626
1631.000000	1.054708
1630.000000	1.054681
1629.000000	1.054622
1628.000000	1.054586
1627.000000	1.054576
1626.000000	1.054542
1625.000000	1.054443
1624.000000	1.054318
1623.000000	1.054266
1622.000000	1.054336
1621.000000	1.054443
1620.000000	1.054433
1619.000000	1.054224
1618.000000	1.053908
1617.000000	1.053707
1616.000000	1.053787
1615.000000	1.054112
1614.000000	1.054478
1613.000000	1.054704
1612.000000	1.054766
1611.000000	1.054751
1610.000000	1.054733
1609.000000	1.054720
1608.000000	1.054708
1607.000000	1.054710
1606.000000	1.054728
1605.000000	1.054743
1604.000000	1.054740
1603.000000	1.054731
1602.000000	1.054726
1601.000000	1.054724
1600.000000	1.054727
1599.000000	1.054742
1598.000000	1.054765
1597.000000	1.054779
1596.000000	1.054772
1595.000000	1.054760
1594.000000	1.054767
1593.000000	1.054795
1592.000000	1.054831
1591.000000	1.054865
1590.000000	1.054890
1589.000000	1.054904
1588.000000	1.054905
1587.000000	1.054898
1586.000000	1.054889
1585.000000	1.054876
1584.000000	1.054855
1583.000000	1.054838
1582.000000	1.054842
1581.000000	1.054858
1580.000000	1.054816
1579.000000	1.054622
1578.000000	1.054270
1577.000000	1.053918
1576.000000	1.053801
1575.000000	1.054008
1574.000000	1.054368
1573.000000	1.054604
1572.000000	1.054595
1571.000000	1.054448
1570.000000	1.054349
1569.000000	1.054382
1568.000000	1.054498
1567.000000	1.054607
1566.000000	1.054671
1565.000000	1.054705
1564.000000	1.054710
1563.000000	1.054601
1562.000000	1.054250
1561.000000	1.053651
1560.000000	1.053048
1559.000000	1.052796
1558.000000	1.053023
1557.000000	1.053503
1556.000000	1.053898
1555.000000	1.054087
1554.000000	1.054190
1553.000000	1.054340
1552.000000	1.054528
1551.000000	1.054672
1550.000000	1.054741
1549.000000	1.054759
1548.000000	1.054739
1547.000000	1.054658
1546.000000	1.054506
1545.000000	1.054305
1544.000000	1.054074
1543.000000	1.053797
1542.000000	1.053451
1541.000000	1.053099
1540.000000	1.052920
1539.000000	1.053090
1538.000000	1.053573
1537.000000	1.054097
1536.000000	1.054376
1535.000000	1.054365
1534.000000	1.054251
1533.000000	1.054233
1532.000000	1.054343
1531.000000	1.054488
1530.000000	1.054582
1529.000000	1.054588
1528.000000	1.054509
1527.000000	1.054388
1526.000000	1.054288
1525.000000	1.054207
1524.000000	1.054066
1523.000000	1.053829
1522.000000	1.053615
1521.000000	1.053595
1520.000000	1.053791
1519.000000	1.054041
1518.000000	1.054195
1517.000000	1.054260
1516.000000	1.054319
1515.000000	1.054388
1514.000000	1.054428
1513.000000	1.054434
1512.000000	1.054443
1511.000000	1.054435
1510.000000	1.054299
1509.000000	1.053956
1508.000000	1.053493
1507.000000	1.053163
1506.000000	1.053197
1505.000000	1.053604
1504.000000	1.054158
1503.000000	1.054586
1502.000000	1.054772
1501.000000	1.054776
1500.000000	1.054697
