PE IR       SUBTECH     SPECTRUM    ASCII       PEDS        4.00        
   -1
TE110A_034_80K_AFTER_105K_SB.ASC
20/05/14
12:51:53.00
20/05/14
12:51:53.00
Administrator
TE110A.Thursday, May 14 2020, 003.
1000.000000
#HDR
-1
-1
#GR
cm-1
EGY
1.0
0.0
6000.000000
-2.000000
2501
8
7.144445
0.730169
#DATA
6000.000000	1.126599
5998.000000	1.127779
5996.000000	1.129619
5994.000000	1.131945
5992.000000	1.135207
5990.000000	1.138052
5988.000000	1.139898
5986.000000	1.141545
5984.000000	1.143123
5982.000000	1.146140
5980.000000	1.148907
5978.000000	1.151774
5976.000000	1.154624
5974.000000	1.157143
5972.000000	1.158892
5970.000000	1.159726
5968.000000	1.162174
5966.000000	1.165246
5964.000000	1.168161
5962.000000	1.171461
5960.000000	1.174937
5958.000000	1.178744
5956.000000	1.180544
5954.000000	1.181357
5952.000000	1.183291
5950.000000	1.186123
5948.000000	1.188568
5946.000000	1.190648
5944.000000	1.192802
5942.000000	1.195406
5940.000000	1.198111
5938.000000	1.200458
5936.000000	1.202827
5934.000000	1.204346
5932.000000	1.205833
5930.000000	1.208123
5928.000000	1.211784
5926.000000	1.215049
5924.000000	1.217131
5922.000000	1.219174
5920.000000	1.221682
5918.000000	1.224270
5916.000000	1.226651
5914.000000	1.228553
5912.000000	1.230254
5910.000000	1.232255
5908.000000	1.234854
5906.000000	1.237301
5904.000000	1.239658
5902.000000	1.242229
5900.000000	1.245667
5898.000000	1.248722
5896.000000	1.251179
5894.000000	1.253042
5892.000000	1.255216
5890.000000	1.258109
5888.000000	1.260707
5886.000000	1.263914
5884.000000	1.266306
5882.000000	1.268219
5880.000000	1.270502
5878.000000	1.273442
5876.000000	1.276907
5874.000000	1.280398
5872.000000	1.283848
5870.000000	1.286475
5868.000000	1.289172
5866.000000	1.291032
5864.000000	1.293108
5862.000000	1.295956
5860.000000	1.299049
5858.000000	1.301711
5856.000000	1.303392
5854.000000	1.304320
5852.000000	1.306255
5850.000000	1.309677
5848.000000	1.312761
5846.000000	1.315350
5844.000000	1.317903
5842.000000	1.321423
5840.000000	1.325779
5838.000000	1.329433
5836.000000	1.331889
5834.000000	1.333172
5832.000000	1.334344
5830.000000	1.336310
5828.000000	1.338561
5826.000000	1.341617
5824.000000	1.344524
5822.000000	1.347851
5820.000000	1.351035
5818.000000	1.354614
5816.000000	1.357680
5814.000000	1.360007
5812.000000	1.361753
5810.000000	1.363941
5808.000000	1.366894
5806.000000	1.369845
5804.000000	1.372930
5802.000000	1.376208
5800.000000	1.379577
5798.000000	1.382717
5796.000000	1.385663
5794.000000	1.388513
5792.000000	1.391829
5790.000000	1.394487
5788.000000	1.396711
5786.000000	1.398401
5784.000000	1.400888
5782.000000	1.405763
5780.000000	1.410236
5778.000000	1.413624
5776.000000	1.414885
5774.000000	1.416536
5772.000000	1.419868
5770.000000	1.423281
5768.000000	1.426162
5766.000000	1.429100
5764.000000	1.432331
5762.000000	1.435566
5760.000000	1.438044
5758.000000	1.439876
5756.000000	1.442362
5754.000000	1.445687
5752.000000	1.449999
5750.000000	1.453777
5748.000000	1.456437
5746.000000	1.458724
5744.000000	1.460608
5742.000000	1.463327
5740.000000	1.466738
5738.000000	1.469926
5736.000000	1.472410
5734.000000	1.474341
5732.000000	1.477091
5730.000000	1.481068
5728.000000	1.484416
5726.000000	1.486245
5724.000000	1.487428
5722.000000	1.489780
5720.000000	1.494059
5718.000000	1.498917
5716.000000	1.502848
5714.000000	1.505911
5712.000000	1.508905
5710.000000	1.510960
5708.000000	1.512491
5706.000000	1.514312
5704.000000	1.517463
5702.000000	1.521433
5700.000000	1.524941
5698.000000	1.528500
5696.000000	1.531887
5694.000000	1.534747
5692.000000	1.536877
5690.000000	1.538970
5688.000000	1.542387
5686.000000	1.546275
5684.000000	1.549750
5682.000000	1.553429
5680.000000	1.556384
5678.000000	1.559415
5676.000000	1.562526
5674.000000	1.565106
5672.000000	1.568347
5670.000000	1.572448
5668.000000	1.577740
5666.000000	1.581742
5664.000000	1.583723
5662.000000	1.585282
5660.000000	1.587809
5658.000000	1.590963
5656.000000	1.593702
5654.000000	1.597354
5652.000000	1.600918
5650.000000	1.603864
5648.000000	1.605834
5646.000000	1.608191
5644.000000	1.611988
5642.000000	1.615759
5640.000000	1.619119
5638.000000	1.621807
5636.000000	1.625631
5634.000000	1.630328
5632.000000	1.633854
5630.000000	1.635727
5628.000000	1.636754
5626.000000	1.639882
5624.000000	1.644574
5622.000000	1.648612
5620.000000	1.650929
5618.000000	1.652938
5616.000000	1.655656
5614.000000	1.659266
5612.000000	1.662718
5610.000000	1.666281
5608.000000	1.669958
5606.000000	1.673732
5604.000000	1.676889
5602.000000	1.679706
5600.000000	1.683089
5598.000000	1.686988
5596.000000	1.690714
5594.000000	1.693784
5592.000000	1.696278
5590.000000	1.698709
5588.000000	1.701281
5586.000000	1.704822
5584.000000	1.709262
5582.000000	1.713937
5580.000000	1.717392
5578.000000	1.720010
5576.000000	1.722517
5574.000000	1.725217
5572.000000	1.728412
5570.000000	1.731558
5568.000000	1.734891
5566.000000	1.738809
5564.000000	1.742485
5562.000000	1.745783
5560.000000	1.748475
5558.000000	1.751917
5556.000000	1.755657
5554.000000	1.758645
5552.000000	1.761357
5550.000000	1.764384
5548.000000	1.767526
5546.000000	1.770967
5544.000000	1.773964
5542.000000	1.778138
5540.000000	1.782403
5538.000000	1.786590
5536.000000	1.790001
5534.000000	1.792629
5532.000000	1.795305
5530.000000	1.797487
5528.000000	1.800415
5526.000000	1.804411
5524.000000	1.808465
5522.000000	1.811273
5520.000000	1.813701
5518.000000	1.817184
5516.000000	1.820959
5514.000000	1.824639
5512.000000	1.827572
5510.000000	1.830374
5508.000000	1.833330
5506.000000	1.836924
5504.000000	1.841275
5502.000000	1.845530
5500.000000	1.849022
5498.000000	1.851722
5496.000000	1.854472
5494.000000	1.857161
5492.000000	1.858959
5490.000000	1.861313
5488.000000	1.865529
5486.000000	1.871303
5484.000000	1.875905
5482.000000	1.879195
5480.000000	1.882623
5478.000000	1.886479
5476.000000	1.889465
5474.000000	1.891833
5472.000000	1.895074
5470.000000	1.899174
5468.000000	1.903192
5466.000000	1.906731
5464.000000	1.910544
5462.000000	1.914493
5460.000000	1.916724
5458.000000	1.918268
5456.000000	1.920552
5454.000000	1.925064
5452.000000	1.929974
5450.000000	1.933335
5448.000000	1.935782
5446.000000	1.938466
5444.000000	1.941723
5442.000000	1.944703
5440.000000	1.947574
5438.000000	1.950785
5436.000000	1.954331
5434.000000	1.957633
5432.000000	1.961379
5430.000000	1.965283
5428.000000	1.969563
5426.000000	1.973495
5424.000000	1.976761
5422.000000	1.980493
5420.000000	1.984998
5418.000000	1.989611
5416.000000	1.991820
5414.000000	1.992055
5412.000000	1.993252
5410.000000	1.997598
5408.000000	2.004038
5406.000000	2.009775
5404.000000	2.014147
5402.000000	2.018105
5400.000000	2.022131
5398.000000	2.025562
5396.000000	2.027666
5394.000000	2.028678
5392.000000	2.030910
5390.000000	2.035999
5388.000000	2.041252
5386.000000	2.044657
5384.000000	2.046633
5382.000000	2.049621
5380.000000	2.053226
5378.000000	2.056689
5376.000000	2.060205
5374.000000	2.064401
5372.000000	2.068750
5370.000000	2.073261
5368.000000	2.076991
5366.000000	2.080388
5364.000000	2.083527
5362.000000	2.086268
5360.000000	2.089544
5358.000000	2.093263
5356.000000	2.096369
5354.000000	2.098105
5352.000000	2.100635
5350.000000	2.105124
5348.000000	2.109795
5346.000000	2.112423
5344.000000	2.114368
5342.000000	2.117609
5340.000000	2.121677
5338.000000	2.125777
5336.000000	2.129447
5334.000000	2.133830
5332.000000	2.138446
5330.000000	2.142795
5328.000000	2.146283
5326.000000	2.148669
5324.000000	2.151183
5322.000000	2.155266
5320.000000	2.160269
5318.000000	2.164739
5316.000000	2.167916
5314.000000	2.171790
5312.000000	2.175615
5310.000000	2.178340
5308.000000	2.180790
5306.000000	2.183614
5304.000000	2.187709
5302.000000	2.192076
5300.000000	2.196696
5298.000000	2.201118
5296.000000	2.204208
5294.000000	2.206437
5292.000000	2.209091
5290.000000	2.213125
5288.000000	2.217212
5286.000000	2.221440
5284.000000	2.225949
5282.000000	2.230919
5280.000000	2.234249
5278.000000	2.236747
5276.000000	2.240482
5274.000000	2.245330
5272.000000	2.249446
5270.000000	2.252163
5268.000000	2.254473
5266.000000	2.256860
5264.000000	2.259347
5262.000000	2.262967
5260.000000	2.267871
5258.000000	2.272810
5256.000000	2.276779
5254.000000	2.279169
5252.000000	2.281279
5250.000000	2.284761
5248.000000	2.288823
5246.000000	2.292544
5244.000000	2.295861
5242.000000	2.299492
5240.000000	2.303521
5238.000000	2.307482
5236.000000	2.311703
5234.000000	2.315209
5232.000000	2.318524
5230.000000	2.321507
5228.000000	2.324178
5226.000000	2.327101
5224.000000	2.330644
5222.000000	2.334524
5220.000000	2.338101
5218.000000	2.342181
5216.000000	2.347649
5214.000000	2.353278
5212.000000	2.356735
5210.000000	2.358674
5208.000000	2.360961
5206.000000	2.364350
5204.000000	2.368929
5202.000000	2.374185
5200.000000	2.378792
5198.000000	2.381579
5196.000000	2.383699
5194.000000	2.387790
5192.000000	2.393244
5190.000000	2.398256
5188.000000	2.401395
5186.000000	2.404041
5184.000000	2.407609
5182.000000	2.411664
5180.000000	2.415712
5178.000000	2.419555
5176.000000	2.423347
5174.000000	2.426757
5172.000000	2.430261
5170.000000	2.434139
5168.000000	2.438295
5166.000000	2.441861
5164.000000	2.444861
5162.000000	2.448905
5160.000000	2.453830
5158.000000	2.458783
5156.000000	2.462628
5154.000000	2.465714
5152.000000	2.468281
5150.000000	2.471441
5148.000000	2.475480
5146.000000	2.479069
5144.000000	2.482310
5142.000000	2.486157
5140.000000	2.491539
5138.000000	2.495939
5136.000000	2.499546
5134.000000	2.503544
5132.000000	2.508160
5130.000000	2.512083
5128.000000	2.514713
5126.000000	2.517365
5124.000000	2.520419
5122.000000	2.524906
5120.000000	2.529237
5118.000000	2.532408
5116.000000	2.535535
5114.000000	2.540085
5112.000000	2.545038
5110.000000	2.549240
5108.000000	2.553006
5106.000000	2.555496
5104.000000	2.557629
5102.000000	2.560897
5100.000000	2.566506
5098.000000	2.571784
5096.000000	2.574883
5094.000000	2.577182
5092.000000	2.580752
5090.000000	2.585582
5088.000000	2.589786
5086.000000	2.593565
5084.000000	2.596852
5082.000000	2.599687
5080.000000	2.603952
5078.000000	2.609694
5076.000000	2.614921
5074.000000	2.618038
5072.000000	2.620747
5070.000000	2.624419
5068.000000	2.628848
5066.000000	2.633515
5064.000000	2.637306
5062.000000	2.641056
5060.000000	2.645390
5058.000000	2.649208
5056.000000	2.652464
5054.000000	2.655589
5052.000000	2.658969
5050.000000	2.661873
5048.000000	2.665052
5046.000000	2.669245
5044.000000	2.674480
5042.000000	2.679814
5040.000000	2.683543
5038.000000	2.686821
5036.000000	2.690454
5034.000000	2.694308
5032.000000	2.697066
5030.000000	2.699818
5028.000000	2.703477
5026.000000	2.707905
5024.000000	2.712269
5022.000000	2.715835
5020.000000	2.719926
5018.000000	2.724018
5016.000000	2.728365
5014.000000	2.732922
5012.000000	2.737491
5010.000000	2.741251
5008.000000	2.743582
5006.000000	2.746226
5004.000000	2.749617
5002.000000	2.754223
5000.000000	2.759502
4998.000000	2.765106
4996.000000	2.769686
4994.000000	2.772688
4992.000000	2.775554
4990.000000	2.779656
4988.000000	2.784456
4986.000000	2.789353
4984.000000	2.793266
4982.000000	2.796500
4980.000000	2.799739
4978.000000	2.804196
4976.000000	2.808671
4974.000000	2.812030
4972.000000	2.814757
4970.000000	2.818311
4968.000000	2.822823
4966.000000	2.826988
4964.000000	2.831275
4962.000000	2.836011
4960.000000	2.839980
4958.000000	2.843557
4956.000000	2.847911
4954.000000	2.852133
4952.000000	2.854638
4950.000000	2.856817
4948.000000	2.860873
4946.000000	2.866386
4944.000000	2.871388
4942.000000	2.875097
4940.000000	2.879024
4938.000000	2.882816
4936.000000	2.886067
4934.000000	2.889717
4932.000000	2.894113
4930.000000	2.898333
4928.000000	2.902149
4926.000000	2.905675
4924.000000	2.909362
4922.000000	2.914272
4920.000000	2.919516
4918.000000	2.923314
4916.000000	2.925926
4914.000000	2.929172
4912.000000	2.933205
4910.000000	2.937128
4908.000000	2.941034
4906.000000	2.945019
4904.000000	2.948685
4902.000000	2.952222
4900.000000	2.956507
4898.000000	2.961592
4896.000000	2.966333
4894.000000	2.971218
4892.000000	2.976012
4890.000000	2.979830
4888.000000	2.982440
4886.000000	2.985515
4884.000000	2.989761
4882.000000	2.994554
4880.000000	2.998923
4878.000000	3.002503
4876.000000	3.005750
4874.000000	3.009851
4872.000000	3.015005
4870.000000	3.019880
4868.000000	3.022897
4866.000000	3.025787
4864.000000	3.030014
4862.000000	3.034104
4860.000000	3.037122
4858.000000	3.040864
4856.000000	3.045122
4854.000000	3.049333
4852.000000	3.053661
4850.000000	3.057683
4848.000000	3.060914
4846.000000	3.063788
4844.000000	3.067156
4842.000000	3.071229
4840.000000	3.075853
4838.000000	3.079858
4836.000000	3.082999
4834.000000	3.086673
4832.000000	3.090977
4830.000000	3.095574
4828.000000	3.100296
4826.000000	3.105216
4824.000000	3.109043
4822.000000	3.113105
4820.000000	3.118266
4818.000000	3.122983
4816.000000	3.126466
4814.000000	3.129815
4812.000000	3.133419
4810.000000	3.137370
4808.000000	3.142041
4806.000000	3.146438
4804.000000	3.150539
4802.000000	3.154401
4800.000000	3.158051
4798.000000	3.162231
4796.000000	3.167115
4794.000000	3.172198
4792.000000	3.176005
4790.000000	3.179110
4788.000000	3.183054
4786.000000	3.188359
4784.000000	3.192817
4782.000000	3.196153
4780.000000	3.200298
4778.000000	3.204792
4776.000000	3.208476
4774.000000	3.211606
4772.000000	3.215559
4770.000000	3.220751
4768.000000	3.225633
4766.000000	3.228853
4764.000000	3.230781
4762.000000	3.234313
4760.000000	3.239986
4758.000000	3.245575
4756.000000	3.249034
4754.000000	3.252556
4752.000000	3.257120
4750.000000	3.261543
4748.000000	3.264951
4746.000000	3.268634
4744.000000	3.272709
4742.000000	3.276685
4740.000000	3.280867
4738.000000	3.285443
4736.000000	3.289925
4734.000000	3.293640
4732.000000	3.297140
4730.000000	3.300664
4728.000000	3.304222
4726.000000	3.308851
4724.000000	3.314577
4722.000000	3.319546
4720.000000	3.322981
4718.000000	3.326464
4716.000000	3.329704
4714.000000	3.332787
4712.000000	3.337058
4710.000000	3.342901
4708.000000	3.348432
4706.000000	3.353181
4704.000000	3.357491
4702.000000	3.361172
4700.000000	3.364264
4698.000000	3.368214
4696.000000	3.373200
4694.000000	3.377815
4692.000000	3.382070
4690.000000	3.386131
4688.000000	3.390927
4686.000000	3.396316
4684.000000	3.400152
4682.000000	3.402831
4680.000000	3.407427
4678.000000	3.413126
4676.000000	3.416809
4674.000000	3.420301
4672.000000	3.424535
4670.000000	3.427855
4668.000000	3.430661
4666.000000	3.435380
4664.000000	3.440995
4662.000000	3.445545
4660.000000	3.449457
4658.000000	3.453807
4656.000000	3.458271
4654.000000	3.462207
4652.000000	3.465817
4650.000000	3.469559
4648.000000	3.473886
4646.000000	3.478657
4644.000000	3.482477
4642.000000	3.485010
4640.000000	3.488720
4638.000000	3.494684
4636.000000	3.501071
4634.000000	3.505793
4632.000000	3.508754
4630.000000	3.511350
4628.000000	3.515371
4626.000000	3.520289
4624.000000	3.524998
4622.000000	3.528862
4620.000000	3.532506
4618.000000	3.536550
4616.000000	3.541459
4614.000000	3.545646
4612.000000	3.548913
4610.000000	3.553330
4608.000000	3.558764
4606.000000	3.563079
4604.000000	3.567146
4602.000000	3.572206
4600.000000	3.576994
4598.000000	3.581348
4596.000000	3.585781
4594.000000	3.590195
4592.000000	3.594507
4590.000000	3.598526
4588.000000	3.603173
4586.000000	3.608492
4584.000000	3.613150
4582.000000	3.617012
4580.000000	3.620918
4578.000000	3.624675
4576.000000	3.628837
4574.000000	3.633344
4572.000000	3.637723
4570.000000	3.641894
4568.000000	3.645984
4566.000000	3.650260
4564.000000	3.654547
4562.000000	3.658712
4560.000000	3.663253
4558.000000	3.668187
4556.000000	3.672000
4554.000000	3.675146
4552.000000	3.679773
4550.000000	3.685722
4548.000000	3.690472
4546.000000	3.694160
4544.000000	3.698000
4542.000000	3.701705
4540.000000	3.706606
4538.000000	3.712616
4536.000000	3.717249
4534.000000	3.720178
4532.000000	3.723680
4530.000000	3.727160
4528.000000	3.730612
4526.000000	3.736064
4524.000000	3.742546
4522.000000	3.747894
4520.000000	3.751570
4518.000000	3.754228
4516.000000	3.757637
4514.000000	3.762412
4512.000000	3.767192
4510.000000	3.771746
4508.000000	3.776975
4506.000000	3.782588
4504.000000	3.787801
4502.000000	3.792193
4500.000000	3.796262
4498.000000	3.800701
4496.000000	3.804926
4494.000000	3.809050
4492.000000	3.813541
4490.000000	3.818283
4488.000000	3.822374
4486.000000	3.826602
4484.000000	3.831224
4482.000000	3.835680
4480.000000	3.840223
4478.000000	3.844836
4476.000000	3.848711
4474.000000	3.853284
4472.000000	3.857742
4470.000000	3.860676
4468.000000	3.864377
4466.000000	3.870329
4464.000000	3.875311
4462.000000	3.878162
4460.000000	3.881165
4458.000000	3.885500
4456.000000	3.890131
4454.000000	3.894278
4452.000000	3.898673
4450.000000	3.903477
4448.000000	3.908158
4446.000000	3.912841
4444.000000	3.917584
4442.000000	3.921852
4440.000000	3.925026
4438.000000	3.928377
4436.000000	3.933139
4434.000000	3.938280
4432.000000	3.942063
4430.000000	3.946066
4428.000000	3.951447
4426.000000	3.956887
4424.000000	3.961278
4422.000000	3.965026
4420.000000	3.969075
4418.000000	3.974299
4416.000000	3.979132
4414.000000	3.983377
4412.000000	3.988223
4410.000000	3.993488
4408.000000	3.997774
4406.000000	4.001699
4404.000000	4.005349
4402.000000	4.009199
4400.000000	4.013629
4398.000000	4.018125
4396.000000	4.022380
4394.000000	4.026869
4392.000000	4.031975
4390.000000	4.037558
4388.000000	4.042260
4386.000000	4.045053
4384.000000	4.047760
4382.000000	4.051550
4380.000000	4.056024
4378.000000	4.060002
4376.000000	4.063766
4374.000000	4.068765
4372.000000	4.074718
4370.000000	4.079638
4368.000000	4.082852
4366.000000	4.085817
4364.000000	4.089758
4362.000000	4.093788
4360.000000	4.097452
4358.000000	4.101990
4356.000000	4.106815
4354.000000	4.111358
4352.000000	4.115631
4350.000000	4.120198
4348.000000	4.125324
4346.000000	4.129792
4344.000000	4.133560
4342.000000	4.138167
4340.000000	4.143423
4338.000000	4.147716
4336.000000	4.151043
4334.000000	4.154526
4332.000000	4.159126
4330.000000	4.164782
4328.000000	4.170451
4326.000000	4.174532
4324.000000	4.178022
4322.000000	4.183000
4320.000000	4.187948
4318.000000	4.191453
4316.000000	4.195674
4314.000000	4.201407
4312.000000	4.206690
4310.000000	4.211622
4308.000000	4.216571
4306.000000	4.221196
4304.000000	4.225663
4302.000000	4.229837
4300.000000	4.234500
4298.000000	4.239938
4296.000000	4.244680
4294.000000	4.248993
4292.000000	4.254222
4290.000000	4.258907
4288.000000	4.262135
4286.000000	4.265274
4284.000000	4.269390
4282.000000	4.273486
4280.000000	4.277403
4278.000000	4.281679
4276.000000	4.285673
4274.000000	4.289700
4272.000000	4.294880
4270.000000	4.299462
4268.000000	4.302614
4266.000000	4.306369
4264.000000	4.311278
4262.000000	4.315738
4260.000000	4.319826
4258.000000	4.323737
4256.000000	4.327509
4254.000000	4.331332
4252.000000	4.336179
4250.000000	4.341952
4248.000000	4.347678
4246.000000	4.352524
4244.000000	4.357181
4242.000000	4.361361
4240.000000	4.365164
4238.000000	4.369308
4236.000000	4.374226
4234.000000	4.378783
4232.000000	4.382578
4230.000000	4.387358
4228.000000	4.393854
4226.000000	4.399071
4224.000000	4.402181
4222.000000	4.404785
4220.000000	4.408584
4218.000000	4.413882
4216.000000	4.419866
4214.000000	4.425394
4212.000000	4.430366
4210.000000	4.434314
4208.000000	4.437987
4206.000000	4.442522
4204.000000	4.448052
4202.000000	4.453915
4200.000000	4.460058
4198.000000	4.465063
4196.000000	4.468397
4194.000000	4.471726
4192.000000	4.475920
4190.000000	4.480069
4188.000000	4.484750
4186.000000	4.490308
4184.000000	4.495342
4182.000000	4.500093
4180.000000	4.505701
4178.000000	4.510850
4176.000000	4.514168
4174.000000	4.517663
4172.000000	4.523415
4170.000000	4.529383
4168.000000	4.533286
4166.000000	4.537169
4164.000000	4.542022
4162.000000	4.546527
4160.000000	4.550614
4158.000000	4.555182
4156.000000	4.560486
4154.000000	4.565707
4152.000000	4.570134
4150.000000	4.574320
4148.000000	4.578108
4146.000000	4.582592
4144.000000	4.588453
4142.000000	4.594079
4140.000000	4.598755
4138.000000	4.602858
4136.000000	4.606971
4134.000000	4.611855
4132.000000	4.617654
4130.000000	4.623576
4128.000000	4.628706
4126.000000	4.633198
4124.000000	4.637644
4122.000000	4.642203
4120.000000	4.646986
4118.000000	4.652035
4116.000000	4.657178
4114.000000	4.662333
4112.000000	4.667422
4110.000000	4.671724
4108.000000	4.675769
4106.000000	4.679922
4104.000000	4.683547
4102.000000	4.687348
4100.000000	4.692497
4098.000000	4.697429
4096.000000	4.701714
4094.000000	4.706509
4092.000000	4.711587
4090.000000	4.717068
4088.000000	4.722676
4086.000000	4.726816
4084.000000	4.730319
4082.000000	4.734597
4080.000000	4.739766
4078.000000	4.745030
4076.000000	4.749976
4074.000000	4.755738
4072.000000	4.761639
4070.000000	4.766109
4068.000000	4.770274
4066.000000	4.774811
4064.000000	4.779222
4062.000000	4.783567
4060.000000	4.788525
4058.000000	4.794302
4056.000000	4.799601
4054.000000	4.803574
4052.000000	4.807358
4050.000000	4.812207
4048.000000	4.816708
4046.000000	4.821112
4044.000000	4.827371
4042.000000	4.833417
4040.000000	4.838283
4038.000000	4.843585
4036.000000	4.848791
4034.000000	4.853030
4032.000000	4.857885
4030.000000	4.864215
4028.000000	4.869328
4026.000000	4.872739
4024.000000	4.877736
4022.000000	4.884550
4020.000000	4.889859
4018.000000	4.892915
4016.000000	4.896922
4014.000000	4.903049
4012.000000	4.908690
4010.000000	4.913013
4008.000000	4.917163
4006.000000	4.921687
4004.000000	4.927275
4002.000000	4.933311
4000.000000	4.937852
3998.000000	4.941260
3996.000000	4.945276
3994.000000	4.949928
3992.000000	4.954651
3990.000000	4.959825
3988.000000	4.965239
3986.000000	4.970076
3984.000000	4.974043
3982.000000	4.978570
3980.000000	4.984275
3978.000000	4.988886
3976.000000	4.992373
3974.000000	4.996925
3972.000000	5.002147
3970.000000	5.007140
3968.000000	5.011888
3966.000000	5.016077
3964.000000	5.019952
3962.000000	5.024199
3960.000000	5.029076
3958.000000	5.034552
3956.000000	5.039844
3954.000000	5.044084
3952.000000	5.046422
3950.000000	5.047737
3948.000000	5.051615
3946.000000	5.058208
3944.000000	5.062608
3942.000000	5.065779
3940.000000	5.072967
3938.000000	5.081542
3936.000000	5.086838
3934.000000	5.087529
3932.000000	5.086187
3930.000000	5.090260
3928.000000	5.099912
3926.000000	5.106578
3924.000000	5.109375
3922.000000	5.112744
3920.000000	5.114543
3918.000000	5.114282
3916.000000	5.119366
3914.000000	5.132751
3912.000000	5.146278
3910.000000	5.154350
3908.000000	5.156732
3906.000000	5.147234
3904.000000	5.126089
3902.000000	5.111671
3900.000000	5.117204
3898.000000	5.138965
3896.000000	5.165745
3894.000000	5.179840
3892.000000	5.172931
3890.000000	5.166505
3888.000000	5.172372
3886.000000	5.169624
3884.000000	5.166469
3882.000000	5.179047
3880.000000	5.189461
3878.000000	5.200255
3876.000000	5.214221
3874.000000	5.214591
3872.000000	5.201069
3870.000000	5.182097
3868.000000	5.180746
3866.000000	5.199718
3864.000000	5.210351
3862.000000	5.219547
3860.000000	5.240611
3858.000000	5.251915
3856.000000	5.215976
3854.000000	5.135945
3852.000000	5.105804
3850.000000	5.175180
3848.000000	5.260280
3846.000000	5.294042
3844.000000	5.291530
3842.000000	5.278876
3840.000000	5.257573
3838.000000	5.227878
3836.000000	5.224956
3834.000000	5.260240
3832.000000	5.293539
3830.000000	5.311395
3828.000000	5.324866
3826.000000	5.332122
3824.000000	5.328057
3822.000000	5.306266
3820.000000	5.289694
3818.000000	5.295245
3816.000000	5.294216
3814.000000	5.305841
3812.000000	5.350642
3810.000000	5.376983
3808.000000	5.360828
3806.000000	5.341018
3804.000000	5.341844
3802.000000	5.330687
3800.000000	5.320650
3798.000000	5.352858
3796.000000	5.389962
3794.000000	5.408648
3792.000000	5.424429
3790.000000	5.433913
3788.000000	5.437108
3786.000000	5.438895
3784.000000	5.440530
3782.000000	5.441955
3780.000000	5.440392
3778.000000	5.441537
3776.000000	5.453429
3774.000000	5.466713
3772.000000	5.465744
3770.000000	5.452804
3768.000000	5.449182
3766.000000	5.459156
3764.000000	5.471541
3762.000000	5.481343
3760.000000	5.480280
3758.000000	5.475565
3756.000000	5.478234
3754.000000	5.463116
3752.000000	5.411519
3750.000000	5.371677
3748.000000	5.386675
3746.000000	5.400662
3744.000000	5.381652
3742.000000	5.411340
3740.000000	5.485586
3738.000000	5.506810
3736.000000	5.479740
3734.000000	5.466982
3732.000000	5.482953
3730.000000	5.515974
3728.000000	5.547388
3726.000000	5.557119
3724.000000	5.558251
3722.000000	5.567008
3720.000000	5.578209
3718.000000	5.589411
3716.000000	5.596512
3714.000000	5.584135
3712.000000	5.554472
3710.000000	5.545637
3708.000000	5.573726
3706.000000	5.609211
3704.000000	5.624826
3702.000000	5.621166
3700.000000	5.621929
3698.000000	5.636239
3696.000000	5.648368
3694.000000	5.648455
3692.000000	5.631285
3690.000000	5.594522
3688.000000	5.568355
3686.000000	5.596311
3684.000000	5.651766
3682.000000	5.677334
3680.000000	5.673521
3678.000000	5.648504
3676.000000	5.601673
3674.000000	5.581973
3672.000000	5.602283
3670.000000	5.610533
3668.000000	5.628755
3666.000000	5.678371
3664.000000	5.713514
3662.000000	5.722528
3660.000000	5.722283
3658.000000	5.711343
3656.000000	5.692768
3654.000000	5.691448
3652.000000	5.688833
3650.000000	5.652459
3648.000000	5.629140
3646.000000	5.661383
3644.000000	5.712731
3642.000000	5.741206
3640.000000	5.749421
3638.000000	5.752393
3636.000000	5.753207
3634.000000	5.751139
3632.000000	5.738290
3630.000000	5.698682
3628.000000	5.666707
3626.000000	5.695785
3624.000000	5.745954
3622.000000	5.758435
3620.000000	5.739210
3618.000000	5.724868
3616.000000	5.734672
3614.000000	5.744529
3612.000000	5.740535
3610.000000	5.733567
3608.000000	5.731850
3606.000000	5.746778
3604.000000	5.769291
3602.000000	5.777520
3600.000000	5.774083
3598.000000	5.772120
3596.000000	5.770821
3594.000000	5.769060
3592.000000	5.770820
3590.000000	5.765792
3588.000000	5.749288
3586.000000	5.744572
3584.000000	5.762125
3582.000000	5.779402
3580.000000	5.784385
3578.000000	5.785089
3576.000000	5.785859
3574.000000	5.785568
3572.000000	5.784514
3570.000000	5.776361
3568.000000	5.756916
3566.000000	5.746565
3564.000000	5.759129
3562.000000	5.774466
3560.000000	5.779862
3558.000000	5.782033
3556.000000	5.782111
3554.000000	5.778727
3552.000000	5.774075
3550.000000	5.772112
3548.000000	5.770094
3546.000000	5.764499
3544.000000	5.762978
3542.000000	5.768093
3540.000000	5.771269
3538.000000	5.768907
3536.000000	5.764817
3534.000000	5.762880
3532.000000	5.762078
3530.000000	5.758013
3528.000000	5.751387
3526.000000	5.745486
3524.000000	5.740464
3522.000000	5.737476
3520.000000	5.736921
3518.000000	5.734113
3516.000000	5.729943
3514.000000	5.726877
3512.000000	5.722699
3510.000000	5.716705
3508.000000	5.710925
3506.000000	5.705188
3504.000000	5.696347
3502.000000	5.687906
3500.000000	5.684973
3498.000000	5.683065
3496.000000	5.676915
3494.000000	5.669639
3492.000000	5.663614
3490.000000	5.656292
3488.000000	5.649457
3486.000000	5.645316
3484.000000	5.640225
3482.000000	5.632550
3480.000000	5.625610
3478.000000	5.621458
3476.000000	5.619102
3474.000000	5.616324
3472.000000	5.613033
3470.000000	5.610297
3468.000000	5.607015
3466.000000	5.603123
3464.000000	5.600405
3462.000000	5.598540
3460.000000	5.597139
3458.000000	5.595935
3456.000000	5.593880
3454.000000	5.591472
3452.000000	5.589148
3450.000000	5.585309
3448.000000	5.579462
3446.000000	5.573876
3444.000000	5.571175
3442.000000	5.571245
3440.000000	5.571883
3438.000000	5.572849
3436.000000	5.574744
3434.000000	5.576520
3432.000000	5.579343
3430.000000	5.583898
3428.000000	5.589144
3426.000000	5.594330
3424.000000	5.598688
3422.000000	5.601730
3420.000000	5.604211
3418.000000	5.607260
3416.000000	5.611049
3414.000000	5.613302
3412.000000	5.614232
3410.000000	5.615765
3408.000000	5.617813
3406.000000	5.619345
3404.000000	5.620118
3402.000000	5.619869
3400.000000	5.619817
3398.000000	5.621596
3396.000000	5.624447
3394.000000	5.627651
3392.000000	5.631279
3390.000000	5.634763
3388.000000	5.638190
3386.000000	5.641198
3384.000000	5.643718
3382.000000	5.645825
3380.000000	5.647318
3378.000000	5.648240
3376.000000	5.649425
3374.000000	5.651497
3372.000000	5.653671
3370.000000	5.654781
3368.000000	5.654936
3366.000000	5.655765
3364.000000	5.658671
3362.000000	5.661522
3360.000000	5.663558
3358.000000	5.665888
3356.000000	5.667753
3354.000000	5.668787
3352.000000	5.670079
3350.000000	5.671891
3348.000000	5.673774
3346.000000	5.676223
3344.000000	5.678065
3342.000000	5.679228
3340.000000	5.681109
3338.000000	5.682089
3336.000000	5.683508
3334.000000	5.685878
3332.000000	5.687510
3330.000000	5.690065
3328.000000	5.693429
3326.000000	5.695480
3324.000000	5.697185
3322.000000	5.698205
3320.000000	5.698019
3318.000000	5.699839
3316.000000	5.703206
3314.000000	5.705588
3312.000000	5.706576
3310.000000	5.707123
3308.000000	5.707924
3306.000000	5.709588
3304.000000	5.710869
3302.000000	5.711228
3300.000000	5.712873
3298.000000	5.715366
3296.000000	5.717753
3294.000000	5.719359
3292.000000	5.719809
3290.000000	5.721020
3288.000000	5.724296
3286.000000	5.727635
3284.000000	5.729225
3282.000000	5.730266
3280.000000	5.732239
3278.000000	5.734950
3276.000000	5.737115
3274.000000	5.737796
3272.000000	5.738480
3270.000000	5.740998
3268.000000	5.743863
3266.000000	5.746300
3264.000000	5.749496
3262.000000	5.752070
3260.000000	5.753331
3258.000000	5.755088
3256.000000	5.758567
3254.000000	5.762116
3252.000000	5.764975
3250.000000	5.766953
3248.000000	5.768812
3246.000000	5.770387
3244.000000	5.773043
3242.000000	5.775974
3240.000000	5.778407
3238.000000	5.781893
3236.000000	5.786073
3234.000000	5.788996
3232.000000	5.789744
3230.000000	5.791854
3228.000000	5.795755
3226.000000	5.798951
3224.000000	5.802056
3222.000000	5.803953
3220.000000	5.805009
3218.000000	5.807726
3216.000000	5.810702
3214.000000	5.813884
3212.000000	5.817544
3210.000000	5.820305
3208.000000	5.822949
3206.000000	5.826387
3204.000000	5.830574
3202.000000	5.834550
3200.000000	5.838745
3198.000000	5.844217
3196.000000	5.849418
3194.000000	5.854973
3192.000000	5.861294
3190.000000	5.866676
3188.000000	5.870805
3186.000000	5.874252
3184.000000	5.877817
3182.000000	5.881925
3180.000000	5.886582
3178.000000	5.890943
3176.000000	5.896192
3174.000000	5.901991
3172.000000	5.906860
3170.000000	5.910664
3168.000000	5.914670
3166.000000	5.920386
3164.000000	5.926456
3162.000000	5.931159
3160.000000	5.934871
3158.000000	5.939879
3156.000000	5.945998
3154.000000	5.950923
3152.000000	5.955072
3150.000000	5.959130
3148.000000	5.964118
3146.000000	5.968845
3144.000000	5.972463
3142.000000	5.976858
3140.000000	5.981743
3138.000000	5.986608
3136.000000	5.990966
3134.000000	5.993507
3132.000000	5.996320
3130.000000	6.000351
3128.000000	6.005206
3126.000000	6.009737
3124.000000	6.013480
3122.000000	6.016792
3120.000000	6.020491
3118.000000	6.025226
3116.000000	6.028570
3114.000000	6.030966
3112.000000	6.034610
3110.000000	6.038526
3108.000000	6.042403
3106.000000	6.045947
3104.000000	6.048987
3102.000000	6.052463
3100.000000	6.057410
3098.000000	6.062591
3096.000000	6.067532
3094.000000	6.072693
3092.000000	6.078584
3090.000000	6.084547
3088.000000	6.089127
3086.000000	6.092462
3084.000000	6.095903
3082.000000	6.100671
3080.000000	6.106409
3078.000000	6.110194
3076.000000	6.112238
3074.000000	6.115578
3072.000000	6.118729
3070.000000	6.119576
3068.000000	6.120792
3066.000000	6.123334
3064.000000	6.125719
3062.000000	6.129220
3060.000000	6.133915
3058.000000	6.138247
3056.000000	6.142754
3054.000000	6.148974
3052.000000	6.154589
3050.000000	6.158673
3048.000000	6.163285
3046.000000	6.167151
3044.000000	6.169658
3042.000000	6.171832
3040.000000	6.174132
3038.000000	6.176453
3036.000000	6.178667
3034.000000	6.179367
3032.000000	6.178619
3030.000000	6.177751
3028.000000	6.176573
3026.000000	6.172337
3024.000000	6.163135
3022.000000	6.152757
3020.000000	6.147394
3018.000000	6.148243
3016.000000	6.155415
3014.000000	6.168368
3012.000000	6.186711
3010.000000	6.207392
3008.000000	6.225371
3006.000000	6.238386
3004.000000	6.247905
3002.000000	6.255873
3000.000000	6.260717
2998.000000	6.264530
2996.000000	6.268780
2994.000000	6.270518
2992.000000	6.271247
2990.000000	6.272422
2988.000000	6.272628
2986.000000	6.271012
2984.000000	6.268120
2982.000000	6.262672
2980.000000	6.255144
2978.000000	6.245572
2976.000000	6.230800
2974.000000	6.210423
2972.000000	6.184214
2970.000000	6.149759
2968.000000	6.109240
2966.000000	6.069443
2964.000000	6.036169
2962.000000	6.016079
2960.000000	6.013816
2958.000000	6.024471
2956.000000	6.042017
2954.000000	6.061479
2952.000000	6.078254
2950.000000	6.089960
2948.000000	6.094572
2946.000000	6.090068
2944.000000	6.076309
2942.000000	6.053829
2940.000000	6.023702
2938.000000	5.989105
2936.000000	5.955646
2934.000000	5.926313
2932.000000	5.899380
2930.000000	5.872607
2928.000000	5.847053
2926.000000	5.829268
2924.000000	5.826553
2922.000000	5.843789
2920.000000	5.881437
2918.000000	5.932826
2916.000000	5.991141
2914.000000	6.048112
2912.000000	6.097787
2910.000000	6.140239
2908.000000	6.174806
2906.000000	6.201065
2904.000000	6.223592
2902.000000	6.244411
2900.000000	6.262292
2898.000000	6.278874
2896.000000	6.295773
2894.000000	6.311869
2892.000000	6.327209
2890.000000	6.342654
2888.000000	6.355346
2886.000000	6.364670
2884.000000	6.372515
2882.000000	6.378144
2880.000000	6.380076
2878.000000	6.378718
2876.000000	6.373942
2874.000000	6.365610
2872.000000	6.352275
2870.000000	6.332783
2868.000000	6.305537
2866.000000	6.268516
2864.000000	6.228478
2862.000000	6.196813
2860.000000	6.182169
2858.000000	6.187252
2856.000000	6.204829
2854.000000	6.227826
2852.000000	6.254823
2850.000000	6.286108
2848.000000	6.322472
2846.000000	6.363958
2844.000000	6.404268
2842.000000	6.437430
2840.000000	6.463806
2838.000000	6.484874
2836.000000	6.500927
2834.000000	6.513637
2832.000000	6.525282
2830.000000	6.536696
2828.000000	6.546976
2826.000000	6.554298
2824.000000	6.560217
2822.000000	6.566512
2820.000000	6.573394
2818.000000	6.580162
2816.000000	6.585940
2814.000000	6.589813
2812.000000	6.593348
2810.000000	6.597714
2808.000000	6.601645
2806.000000	6.605609
2804.000000	6.609599
2802.000000	6.612395
2800.000000	6.614900
2798.000000	6.618035
2796.000000	6.620798
2794.000000	6.623786
2792.000000	6.628456
2790.000000	6.632949
2788.000000	6.636565
2786.000000	6.640644
2784.000000	6.645961
2782.000000	6.652336
2780.000000	6.659018
2778.000000	6.664909
2776.000000	6.669371
2774.000000	6.674337
2772.000000	6.679248
2770.000000	6.682942
2768.000000	6.685565
2766.000000	6.687764
2764.000000	6.690734
2762.000000	6.693797
2760.000000	6.696254
2758.000000	6.699705
2756.000000	6.703925
2754.000000	6.706745
2752.000000	6.709020
2750.000000	6.711665
2748.000000	6.713303
2746.000000	6.714640
2744.000000	6.716847
2742.000000	6.719808
2740.000000	6.722818
2738.000000	6.724466
2736.000000	6.725431
2734.000000	6.725742
2732.000000	6.727506
2730.000000	6.730623
2728.000000	6.732348
2726.000000	6.734680
2724.000000	6.736694
2722.000000	6.736646
2720.000000	6.736815
2718.000000	6.738738
2716.000000	6.740578
2714.000000	6.741623
2712.000000	6.742711
2710.000000	6.743843
2708.000000	6.744300
2706.000000	6.744593
2704.000000	6.745722
2702.000000	6.747268
2700.000000	6.749169
2698.000000	6.751124
2696.000000	6.752614
2694.000000	6.753880
2692.000000	6.755785
2690.000000	6.757117
2688.000000	6.757729
2686.000000	6.758833
2684.000000	6.761358
2682.000000	6.764091
2680.000000	6.765510
2678.000000	6.765997
2676.000000	6.765975
2674.000000	6.766692
2672.000000	6.767981
2670.000000	6.770303
2668.000000	6.772452
2666.000000	6.772912
2664.000000	6.772846
2662.000000	6.773331
2660.000000	6.773622
2658.000000	6.774614
2656.000000	6.776575
2654.000000	6.777069
2652.000000	6.778104
2650.000000	6.781470
2648.000000	6.784163
2646.000000	6.784552
2644.000000	6.785514
2642.000000	6.787308
2640.000000	6.789534
2638.000000	6.792937
2636.000000	6.795184
2634.000000	6.795493
2632.000000	6.796111
2630.000000	6.798204
2628.000000	6.800510
2626.000000	6.801494
2624.000000	6.802515
2622.000000	6.803992
2620.000000	6.806653
2618.000000	6.808312
2616.000000	6.808112
2614.000000	6.808292
2612.000000	6.809327
2610.000000	6.811253
2608.000000	6.812538
2606.000000	6.812669
2604.000000	6.812932
2602.000000	6.813741
2600.000000	6.814504
2598.000000	6.813714
2596.000000	6.812814
2594.000000	6.813769
2592.000000	6.815308
2590.000000	6.816675
2588.000000	6.818041
2586.000000	6.820692
2584.000000	6.824632
2582.000000	6.828061
2580.000000	6.831507
2578.000000	6.835943
2576.000000	6.839456
2574.000000	6.842010
2572.000000	6.844658
2570.000000	6.846853
2568.000000	6.848909
2566.000000	6.850636
2564.000000	6.853236
2562.000000	6.854714
2560.000000	6.855717
2558.000000	6.857718
2556.000000	6.859596
2554.000000	6.860474
2552.000000	6.861296
2550.000000	6.863325
2548.000000	6.865223
2546.000000	6.867338
2544.000000	6.869238
2542.000000	6.870566
2540.000000	6.871980
2538.000000	6.873753
2536.000000	6.875976
2534.000000	6.877939
2532.000000	6.878994
2530.000000	6.880475
2528.000000	6.883335
2526.000000	6.885652
2524.000000	6.887974
2522.000000	6.888768
2520.000000	6.889086
2518.000000	6.890584
2516.000000	6.891368
2514.000000	6.892606
2512.000000	6.895902
2510.000000	6.898888
2508.000000	6.900746
2506.000000	6.901556
2504.000000	6.901428
2502.000000	6.902283
2500.000000	6.904135
2498.000000	6.904947
2496.000000	6.906130
2494.000000	6.909490
2492.000000	6.911750
2490.000000	6.912420
2488.000000	6.914317
2486.000000	6.916215
2484.000000	6.917078
2482.000000	6.919286
2480.000000	6.922375
2478.000000	6.924250
2476.000000	6.925120
2474.000000	6.925719
2472.000000	6.927272
2470.000000	6.928045
2468.000000	6.928303
2466.000000	6.929277
2464.000000	6.930444
2462.000000	6.932208
2460.000000	6.933761
2458.000000	6.933989
2456.000000	6.935745
2454.000000	6.938352
2452.000000	6.938782
2450.000000	6.938428
2448.000000	6.939399
2446.000000	6.941225
2444.000000	6.942344
2442.000000	6.942781
2440.000000	6.943500
2438.000000	6.944337
2436.000000	6.945008
2434.000000	6.945769
2432.000000	6.947833
2430.000000	6.950286
2428.000000	6.951016
2426.000000	6.950546
2424.000000	6.951903
2422.000000	6.954044
2420.000000	6.953668
2418.000000	6.953230
2416.000000	6.954786
2414.000000	6.956129
2412.000000	6.956602
2410.000000	6.957805
2408.000000	6.959085
2406.000000	6.959594
2404.000000	6.960122
2402.000000	6.961489
2400.000000	6.963211
2398.000000	6.964470
2396.000000	6.966185
2394.000000	6.967572
2392.000000	6.967794
2390.000000	6.967824
2388.000000	6.968610
2386.000000	6.969914
2384.000000	6.969892
2382.000000	6.968607
2380.000000	6.964992
2378.000000	6.957563
2376.000000	6.946595
2374.000000	6.932393
2372.000000	6.914958
2370.000000	6.895315
2368.000000	6.875195
2366.000000	6.858032
2364.000000	6.845201
2362.000000	6.837759
2360.000000	6.839130
2358.000000	6.848422
2356.000000	6.864570
2354.000000	6.887624
2352.000000	6.915623
2350.000000	6.941807
2348.000000	6.950386
2346.000000	6.934743
2344.000000	6.906604
2342.000000	6.877415
2340.000000	6.854853
2338.000000	6.848502
2336.000000	6.856190
2334.000000	6.867987
2332.000000	6.878035
2330.000000	6.886059
2328.000000	6.895342
2326.000000	6.906376
2324.000000	6.916126
2322.000000	6.924693
2320.000000	6.934240
2318.000000	6.942777
2316.000000	6.950473
2314.000000	6.958625
2312.000000	6.964914
2310.000000	6.969557
2308.000000	6.973708
2306.000000	6.976941
2304.000000	6.980026
2302.000000	6.982589
2300.000000	6.984320
2298.000000	6.985798
2296.000000	6.987830
2294.000000	6.989268
2292.000000	6.989197
2290.000000	6.990061
2288.000000	6.990886
2286.000000	6.990008
2284.000000	6.989947
2282.000000	6.991736
2280.000000	6.992100
2278.000000	6.991675
2276.000000	6.991684
2274.000000	6.991045
2272.000000	6.990099
2270.000000	6.989428
2268.000000	6.989370
2266.000000	6.989505
2264.000000	6.989826
2262.000000	6.990108
2260.000000	6.990553
2258.000000	6.991481
2256.000000	6.991796
2254.000000	6.991928
2252.000000	6.992786
2250.000000	6.993661
2248.000000	6.994909
2246.000000	6.996876
2244.000000	6.998979
2242.000000	6.999826
2240.000000	7.001150
2238.000000	7.002933
2236.000000	7.003439
2234.000000	7.005354
2232.000000	7.007827
2230.000000	7.008568
2228.000000	7.010150
2226.000000	7.012317
2224.000000	7.013538
2222.000000	7.014910
2220.000000	7.016581
2218.000000	7.017158
2216.000000	7.018177
2214.000000	7.019214
2212.000000	7.019488
2210.000000	7.019630
2208.000000	7.021544
2206.000000	7.023106
2204.000000	7.023500
2202.000000	7.024739
2200.000000	7.027482
2198.000000	7.029916
2196.000000	7.030657
2194.000000	7.030348
2192.000000	7.029500
2190.000000	7.029353
2188.000000	7.030289
2186.000000	7.031144
2184.000000	7.033010
2182.000000	7.034078
2180.000000	7.034937
2178.000000	7.036945
2176.000000	7.036729
2174.000000	7.035625
2172.000000	7.035543
2170.000000	7.034807
2168.000000	7.034720
2166.000000	7.035532
2164.000000	7.036826
2162.000000	7.038299
2160.000000	7.040346
2158.000000	7.040716
2156.000000	7.040714
2154.000000	7.041946
2152.000000	7.042673
2150.000000	7.043103
2148.000000	7.044478
2146.000000	7.045682
2144.000000	7.047203
2142.000000	7.048548
2140.000000	7.048202
2138.000000	7.047722
2136.000000	7.047170
2134.000000	7.047817
2132.000000	7.048913
2130.000000	7.049212
2128.000000	7.050691
2126.000000	7.052459
2124.000000	7.053118
2122.000000	7.054037
2120.000000	7.055217
2118.000000	7.055247
2116.000000	7.054860
2114.000000	7.055152
2112.000000	7.057106
2110.000000	7.059233
2108.000000	7.060368
2106.000000	7.061346
2104.000000	7.062992
2102.000000	7.063489
2100.000000	7.063515
2098.000000	7.064783
2096.000000	7.067445
2094.000000	7.069306
2092.000000	7.070340
2090.000000	7.070349
2088.000000	7.071551
2086.000000	7.074121
2084.000000	7.076312
2082.000000	7.077948
2080.000000	7.079936
2078.000000	7.081140
2076.000000	7.082419
2074.000000	7.084302
2072.000000	7.086323
2070.000000	7.087826
2068.000000	7.089405
2066.000000	7.090038
2064.000000	7.091178
2062.000000	7.094310
2060.000000	7.096033
2058.000000	7.097898
2056.000000	7.100543
2054.000000	7.102352
2052.000000	7.102860
2050.000000	7.104070
2048.000000	7.106471
2046.000000	7.108600
2044.000000	7.111446
2042.000000	7.112760
2040.000000	7.114372
2038.000000	7.116830
2036.000000	7.118747
2034.000000	7.120127
2032.000000	7.120802
2030.000000	7.119556
2028.000000	7.119069
2026.000000	7.122459
2024.000000	7.125737
2022.000000	7.126327
2020.000000	7.126782
2018.000000	7.126468
2016.000000	7.126518
2014.000000	7.129986
2012.000000	7.133380
2010.000000	7.134643
2008.000000	7.135542
2006.000000	7.137503
2004.000000	7.139276
2002.000000	7.140084
2000.000000	7.139844
1998.000000	7.139571
1996.000000	7.140262
1994.000000	7.139535
1992.000000	7.135779
1990.000000	7.136610
1988.000000	7.140864
1986.000000	7.142163
1984.000000	7.142958
1982.000000	7.144445
1980.000000	7.144003
1978.000000	7.142297
1976.000000	7.140881
1974.000000	7.139572
1972.000000	7.138619
1970.000000	7.137147
1968.000000	7.132628
1966.000000	7.129626
1964.000000	7.131614
1962.000000	7.130521
1960.000000	7.122669
1958.000000	7.116214
1956.000000	7.120968
1954.000000	7.125265
1952.000000	7.124530
1950.000000	7.122603
1948.000000	7.121218
1946.000000	7.117923
1944.000000	7.109727
1942.000000	7.102745
1940.000000	7.107860
1938.000000	7.112719
1936.000000	7.111761
1934.000000	7.110006
1932.000000	7.107606
1930.000000	7.105164
1928.000000	7.103509
1926.000000	7.099880
1924.000000	7.091609
1922.000000	7.085841
1920.000000	7.082047
1918.000000	7.067822
1916.000000	7.069201
1914.000000	7.079740
1912.000000	7.077075
1910.000000	7.069737
1908.000000	7.066050
1906.000000	7.065532
1904.000000	7.063419
1902.000000	7.059694
1900.000000	7.056165
1898.000000	7.052061
1896.000000	7.045354
1894.000000	7.041189
1892.000000	7.040245
1890.000000	7.031091
1888.000000	7.028275
1886.000000	7.035844
1884.000000	7.038265
1882.000000	7.038437
1880.000000	7.037542
1878.000000	7.035984
1876.000000	7.034097
1874.000000	7.032965
1872.000000	7.025562
1870.000000	7.001629
1868.000000	6.987219
1866.000000	7.002482
1864.000000	7.016585
1862.000000	7.019134
1860.000000	7.016921
1858.000000	7.014779
1856.000000	7.011588
1854.000000	7.009416
1852.000000	7.008145
1850.000000	7.004133
1848.000000	6.994111
1846.000000	6.966704
1844.000000	6.930632
1842.000000	6.948697
1840.000000	6.982100
1838.000000	6.982896
1836.000000	6.977929
1834.000000	6.974580
1832.000000	6.958984
1830.000000	6.931604
1828.000000	6.930126
1826.000000	6.932696
1824.000000	6.928435
1822.000000	6.939989
1820.000000	6.943784
1818.000000	6.937566
1816.000000	6.931266
1814.000000	6.926482
1812.000000	6.914302
1810.000000	6.903200
1808.000000	6.902540
1806.000000	6.901904
1804.000000	6.891349
1802.000000	6.870071
1800.000000	6.854011
1798.000000	6.855616
1796.000000	6.853680
1794.000000	6.820997
1792.000000	6.781996
1790.000000	6.798677
1788.000000	6.826501
1786.000000	6.818419
1784.000000	6.803808
1782.000000	6.798769
1780.000000	6.788916
1778.000000	6.786282
1776.000000	6.774471
1774.000000	6.722523
1772.000000	6.667916
1770.000000	6.687375
1768.000000	6.711742
1766.000000	6.728668
1764.000000	6.731679
1762.000000	6.698665
1760.000000	6.693647
1758.000000	6.697836
1756.000000	6.684997
1754.000000	6.678577
1752.000000	6.631393
1750.000000	6.593607
1748.000000	6.607996
1746.000000	6.621041
1744.000000	6.616615
1742.000000	6.595624
1740.000000	6.564646
1738.000000	6.559977
1736.000000	6.522454
1734.000000	6.426573
1732.000000	6.456582
1730.000000	6.539512
1728.000000	6.564641
1726.000000	6.568739
1724.000000	6.560498
1722.000000	6.551126
1720.000000	6.507519
1718.000000	6.407355
1716.000000	6.383946
1714.000000	6.454243
1712.000000	6.502786
1710.000000	6.510768
1708.000000	6.488266
1706.000000	6.454799
1704.000000	6.437479
1702.000000	6.380203
1700.000000	6.282080
1698.000000	6.296790
1696.000000	6.294292
1694.000000	6.342221
1692.000000	6.438253
1690.000000	6.446894
1688.000000	6.424552
1686.000000	6.329992
1684.000000	6.235961
1682.000000	6.314135
1680.000000	6.403700
1678.000000	6.408267
1676.000000	6.361067
1674.000000	6.339025
1672.000000	6.356769
1670.000000	6.327734
1668.000000	6.328056
1666.000000	6.364534
1664.000000	6.354081
1662.000000	6.329328
1660.000000	6.346163
1658.000000	6.352016
1656.000000	6.292685
1654.000000	6.114557
1652.000000	6.043960
1650.000000	6.190691
1648.000000	6.230706
1646.000000	6.183958
1644.000000	6.223187
1642.000000	6.272503
1640.000000	6.265625
1638.000000	6.215578
1636.000000	6.124702
1634.000000	6.123728
1632.000000	6.195331
1630.000000	6.204493
1628.000000	6.175499
1626.000000	6.148445
1624.000000	6.107018
1622.000000	6.078017
1620.000000	6.066903
1618.000000	5.989733
1616.000000	5.919420
1614.000000	5.948518
1612.000000	5.952648
1610.000000	5.908076
1608.000000	5.877940
1606.000000	5.873512
1604.000000	5.885893
1602.000000	5.901144
1600.000000	5.918171
1598.000000	5.932913
1596.000000	5.943209
1594.000000	5.949681
1592.000000	5.956155
1590.000000	5.957855
1588.000000	5.955275
1586.000000	5.950444
1584.000000	5.946231
1582.000000	5.942491
1580.000000	5.936818
1578.000000	5.883820
1576.000000	5.807339
1574.000000	5.848020
1572.000000	5.899955
1570.000000	5.865307
1568.000000	5.858877
1566.000000	5.873871
1564.000000	5.860737
1562.000000	5.795413
1560.000000	5.637376
1558.000000	5.578483
1556.000000	5.688518
1554.000000	5.763531
1552.000000	5.810856
1550.000000	5.842127
1548.000000	5.858914
1546.000000	5.851846
1544.000000	5.817237
1542.000000	5.759496
1540.000000	5.700206
1538.000000	5.762675
1536.000000	5.886895
1534.000000	5.904439
1532.000000	5.915929
1530.000000	5.950620
1528.000000	5.944383
1526.000000	5.917620
1524.000000	5.894328
1522.000000	5.835830
1520.000000	5.821819
1518.000000	5.864275
1516.000000	5.871055
1514.000000	5.876582
1512.000000	5.866485
1510.000000	5.834933
1508.000000	5.734278
1506.000000	5.644931
1504.000000	5.690643
1502.000000	5.702958
1500.000000	5.562535
1498.000000	5.334731
1496.000000	5.130990
1494.000000	5.080056
1492.000000	5.141023
1490.000000	5.239480
1488.000000	5.370568
1486.000000	5.494777
1484.000000	5.583228
1482.000000	5.627580
1480.000000	5.647444
1478.000000	5.645634
1476.000000	5.616163
1474.000000	5.566675
1472.000000	5.537085
1470.000000	5.572054
1468.000000	5.589249
1466.000000	5.547452
1464.000000	5.509362
1462.000000	5.503041
1460.000000	5.450925
1458.000000	5.315289
1456.000000	5.217678
1454.000000	5.225493
1452.000000	5.214571
1450.000000	5.204523
1448.000000	5.244545
1446.000000	5.315913
1444.000000	5.364316
1442.000000	5.376960
1440.000000	5.373306
1438.000000	5.335915
1436.000000	5.310551
1434.000000	5.356885
1432.000000	5.381367
1430.000000	5.373220
1428.000000	5.376066
1426.000000	5.382306
1424.000000	5.374171
1422.000000	5.358687
1420.000000	5.307955
1418.000000	5.287896
1416.000000	5.319817
1414.000000	5.327994
1412.000000	5.309535
1410.000000	5.277565
1408.000000	5.230511
1406.000000	5.170930
1404.000000	5.130133
1402.000000	5.127599
1400.000000	5.134619
1398.000000	5.155706
1396.000000	5.182500
1394.000000	5.202407
1392.000000	5.236485
1390.000000	5.247969
1388.000000	5.221892
1386.000000	5.200960
1384.000000	5.200212
1382.000000	5.208031
1380.000000	5.216076
1378.000000	5.213077
1376.000000	5.202101
1374.000000	5.188557
1372.000000	5.189876
1370.000000	5.189437
1368.000000	5.179064
1366.000000	5.168689
1364.000000	5.151073
1362.000000	5.133931
1360.000000	5.132292
1358.000000	5.129427
1356.000000	5.117832
1354.000000	5.104822
1352.000000	5.091693
1350.000000	5.077045
1348.000000	5.062700
1346.000000	5.047199
1344.000000	5.031741
1342.000000	5.013271
1340.000000	4.992273
1338.000000	4.980556
1336.000000	4.978781
1334.000000	4.976336
1332.000000	4.968525
1330.000000	4.955846
1328.000000	4.941507
1326.000000	4.926486
1324.000000	4.909569
1322.000000	4.890968
1320.000000	4.871075
1318.000000	4.850448
1316.000000	4.830812
1314.000000	4.810389
1312.000000	4.790603
1310.000000	4.771835
1308.000000	4.751760
1306.000000	4.729981
1304.000000	4.706829
1302.000000	4.683523
1300.000000	4.662341
1298.000000	4.639876
1296.000000	4.614177
1294.000000	4.588923
1292.000000	4.565106
1290.000000	4.540403
1288.000000	4.513182
1286.000000	4.484610
1284.000000	4.456014
1282.000000	4.425653
1280.000000	4.394611
1278.000000	4.363239
1276.000000	4.327309
1274.000000	4.283316
1272.000000	4.231772
1270.000000	4.168851
1268.000000	4.088992
1266.000000	3.989286
1264.000000	3.879080
1262.000000	3.782565
1260.000000	3.728067
1258.000000	3.723904
1256.000000	3.753039
1254.000000	3.786028
1252.000000	3.801026
1250.000000	3.793297
1248.000000	3.771296
1246.000000	3.740803
1244.000000	3.706229
1242.000000	3.670398
1240.000000	3.634559
1238.000000	3.599288
1236.000000	3.565248
1234.000000	3.532187
1232.000000	3.500808
1230.000000	3.469341
1228.000000	3.437839
1226.000000	3.406153
1224.000000	3.372965
1222.000000	3.338460
1220.000000	3.304526
1218.000000	3.268810
1216.000000	3.232138
1214.000000	3.195782
1212.000000	3.161896
1210.000000	3.129147
1208.000000	3.099087
1206.000000	3.070968
1204.000000	3.042888
1202.000000	3.014571
1200.000000	2.986687
1198.000000	2.959057
1196.000000	2.930934
1194.000000	2.901623
1192.000000	2.872288
1190.000000	2.841624
1188.000000	2.809882
1186.000000	2.776627
1184.000000	2.738318
1182.000000	2.689173
1180.000000	2.645080
1178.000000	2.622893
1176.000000	2.607057
1174.000000	2.582960
1172.000000	2.553819
1170.000000	2.522309
1168.000000	2.489363
1166.000000	2.455947
1164.000000	2.423094
1162.000000	2.389650
1160.000000	2.358100
1158.000000	2.328964
1156.000000	2.299962
1154.000000	2.270690
1152.000000	2.242002
1150.000000	2.213088
1148.000000	2.183213
1146.000000	2.152268
1144.000000	2.123389
1142.000000	2.097125
1140.000000	2.075262
1138.000000	2.053764
1136.000000	2.030112
1134.000000	2.004714
1132.000000	1.977519
1130.000000	1.947852
1128.000000	1.918671
1126.000000	1.890312
1124.000000	1.862127
1122.000000	1.834058
1120.000000	1.804906
1118.000000	1.773501
1116.000000	1.742325
1114.000000	1.711279
1112.000000	1.679038
1110.000000	1.646080
1108.000000	1.614420
1106.000000	1.584602
1104.000000	1.556975
1102.000000	1.528854
1100.000000	1.500467
1098.000000	1.473333
1096.000000	1.447373
1094.000000	1.422339
1092.000000	1.399135
1090.000000	1.376597
1088.000000	1.354996
1086.000000	1.334337
1084.000000	1.313320
1082.000000	1.291063
1080.000000	1.270390
1078.000000	1.250980
1076.000000	1.232567
1074.000000	1.217541
1072.000000	1.205986
1070.000000	1.193858
1068.000000	1.180370
1066.000000	1.165917
1064.000000	1.151745
1062.000000	1.138425
1060.000000	1.124482
1058.000000	1.108214
1056.000000	1.086591
1054.000000	1.055652
1052.000000	1.022220
1050.000000	1.000279
1048.000000	0.996760
1046.000000	1.002786
1044.000000	1.005307
1042.000000	0.999858
1040.000000	0.990156
1038.000000	0.977181
1036.000000	0.963065
1034.000000	0.949763
1032.000000	0.934490
1030.000000	0.917514
1028.000000	0.900486
1026.000000	0.883018
1024.000000	0.866891
1022.000000	0.851421
1020.000000	0.836501
1018.000000	0.822258
1016.000000	0.809546
1014.000000	0.797796
1012.000000	0.789160
1010.000000	0.782239
1008.000000	0.773663
1006.000000	0.763591
1004.000000	0.753550
1002.000000	0.742060
1000.000000	0.730169
