PE IR       SUBTECH     SPECTRUM    ASCII       PEDS        4.00        
   -1
TE110A_033_80K_AFTER_105K_2MIN.ASC
20/05/14
12:50:17.00
20/05/14
12:50:18.00
Administrator
TE110A.Thursday, May 14 2020, 002.
1000.000000
#HDR
-1
-1
#GR
cm-1
A
1.0
0.0
6000.000000
-2.000000
2501
8
1.197264
1.146672
#DATA
6000.000000	1.174247
5998.000000	1.173917
5996.000000	1.173938
5994.000000	1.174016
5992.000000	1.174259
5990.000000	1.174366
5988.000000	1.174330
5986.000000	1.174055
5984.000000	1.173734
5982.000000	1.173602
5980.000000	1.173698
5978.000000	1.173895
5976.000000	1.173908
5974.000000	1.173896
5972.000000	1.173819
5970.000000	1.173749
5968.000000	1.173572
5966.000000	1.173311
5964.000000	1.173112
5962.000000	1.173125
5960.000000	1.173334
5958.000000	1.173724
5956.000000	1.174159
5954.000000	1.174165
5952.000000	1.174065
5950.000000	1.173728
5948.000000	1.173472
5946.000000	1.173237
5944.000000	1.172895
5942.000000	1.172952
5940.000000	1.173160
5938.000000	1.173413
5936.000000	1.173566
5934.000000	1.173622
5932.000000	1.173510
5930.000000	1.173239
5928.000000	1.173076
5926.000000	1.173282
5924.000000	1.173552
5922.000000	1.173517
5920.000000	1.173345
5918.000000	1.173309
5916.000000	1.173708
5914.000000	1.173777
5912.000000	1.173450
5910.000000	1.173159
5908.000000	1.173070
5906.000000	1.173196
5904.000000	1.173210
5902.000000	1.173152
5900.000000	1.173387
5898.000000	1.173484
5896.000000	1.173241
5894.000000	1.173147
5892.000000	1.173314
5890.000000	1.173510
5888.000000	1.173459
5886.000000	1.173258
5884.000000	1.173002
5882.000000	1.172807
5880.000000	1.172733
5878.000000	1.172867
5876.000000	1.173095
5874.000000	1.173115
5872.000000	1.172901
5870.000000	1.172790
5868.000000	1.172496
5866.000000	1.172285
5864.000000	1.172406
5862.000000	1.172404
5860.000000	1.172371
5858.000000	1.172097
5856.000000	1.171948
5854.000000	1.172045
5852.000000	1.171991
5850.000000	1.171961
5848.000000	1.172050
5846.000000	1.172192
5844.000000	1.172226
5842.000000	1.172113
5840.000000	1.172153
5838.000000	1.172216
5836.000000	1.172021
5834.000000	1.171866
5832.000000	1.172005
5830.000000	1.172296
5828.000000	1.172423
5826.000000	1.172407
5824.000000	1.172320
5822.000000	1.172335
5820.000000	1.172278
5818.000000	1.172249
5816.000000	1.172291
5814.000000	1.172219
5812.000000	1.172256
5810.000000	1.172228
5808.000000	1.172247
5806.000000	1.172277
5804.000000	1.172207
5802.000000	1.172217
5800.000000	1.172147
5798.000000	1.172010
5796.000000	1.171752
5794.000000	1.171670
5792.000000	1.171763
5790.000000	1.171876
5788.000000	1.171900
5786.000000	1.171832
5784.000000	1.171768
5782.000000	1.171581
5780.000000	1.171452
5778.000000	1.171510
5776.000000	1.171744
5774.000000	1.171893
5772.000000	1.171738
5770.000000	1.171397
5768.000000	1.171245
5766.000000	1.171423
5764.000000	1.171669
5762.000000	1.171817
5760.000000	1.171807
5758.000000	1.171573
5756.000000	1.171226
5754.000000	1.171031
5752.000000	1.171224
5750.000000	1.171561
5748.000000	1.171714
5746.000000	1.171552
5744.000000	1.171284
5742.000000	1.171099
5740.000000	1.171145
5738.000000	1.171233
5736.000000	1.171345
5734.000000	1.171356
5732.000000	1.171253
5730.000000	1.171110
5728.000000	1.171025
5726.000000	1.171039
5724.000000	1.171058
5722.000000	1.171064
5720.000000	1.171085
5718.000000	1.171070
5716.000000	1.171084
5714.000000	1.171000
5712.000000	1.171048
5710.000000	1.171187
5708.000000	1.171455
5706.000000	1.171579
5704.000000	1.171312
5702.000000	1.170834
5700.000000	1.170661
5698.000000	1.170811
5696.000000	1.171044
5694.000000	1.171044
5692.000000	1.171019
5690.000000	1.171124
5688.000000	1.171001
5686.000000	1.170650
5684.000000	1.170236
5682.000000	1.170170
5680.000000	1.170364
5678.000000	1.170585
5676.000000	1.170695
5674.000000	1.170661
5672.000000	1.170558
5670.000000	1.170482
5668.000000	1.170517
5666.000000	1.170520
5664.000000	1.170469
5662.000000	1.170331
5660.000000	1.170217
5658.000000	1.170172
5656.000000	1.170104
5654.000000	1.169956
5652.000000	1.169885
5650.000000	1.169885
5648.000000	1.169975
5646.000000	1.170085
5644.000000	1.170056
5642.000000	1.170012
5640.000000	1.170090
5638.000000	1.170289
5636.000000	1.170467
5634.000000	1.170335
5632.000000	1.170100
5630.000000	1.170102
5628.000000	1.170246
5626.000000	1.170453
5624.000000	1.170556
5622.000000	1.170573
5620.000000	1.170465
5618.000000	1.170264
5616.000000	1.170160
5614.000000	1.170219
5612.000000	1.170298
5610.000000	1.170279
5608.000000	1.170159
5606.000000	1.170014
5604.000000	1.169865
5602.000000	1.169661
5600.000000	1.169506
5598.000000	1.169508
5596.000000	1.169647
5594.000000	1.169683
5592.000000	1.169597
5590.000000	1.169486
5588.000000	1.169382
5586.000000	1.169333
5584.000000	1.169465
5582.000000	1.169659
5580.000000	1.169640
5578.000000	1.169402
5576.000000	1.169249
5574.000000	1.169229
5572.000000	1.169197
5570.000000	1.169183
5568.000000	1.169320
5566.000000	1.169445
5564.000000	1.169413
5562.000000	1.169300
5560.000000	1.169285
5558.000000	1.169336
5556.000000	1.169300
5554.000000	1.169194
5552.000000	1.169226
5550.000000	1.169244
5548.000000	1.169283
5546.000000	1.169240
5544.000000	1.169126
5542.000000	1.169011
5540.000000	1.168963
5538.000000	1.169018
5536.000000	1.169081
5534.000000	1.169284
5532.000000	1.169443
5530.000000	1.169393
5528.000000	1.169157
5526.000000	1.168939
5524.000000	1.168861
5522.000000	1.168823
5520.000000	1.168879
5518.000000	1.168990
5516.000000	1.168973
5514.000000	1.168840
5512.000000	1.168707
5510.000000	1.168567
5508.000000	1.168480
5506.000000	1.168546
5504.000000	1.168800
5502.000000	1.168947
5500.000000	1.168837
5498.000000	1.168566
5496.000000	1.168416
5494.000000	1.168505
5492.000000	1.168686
5490.000000	1.168865
5488.000000	1.168908
5486.000000	1.168818
5484.000000	1.168697
5482.000000	1.168473
5480.000000	1.168099
5478.000000	1.167614
5476.000000	1.167392
5474.000000	1.167636
5472.000000	1.167955
5470.000000	1.168094
5468.000000	1.168035
5466.000000	1.167979
5464.000000	1.167916
5462.000000	1.167905
5460.000000	1.167974
5458.000000	1.168152
5456.000000	1.168278
5454.000000	1.168136
5452.000000	1.167787
5450.000000	1.167489
5448.000000	1.167538
5446.000000	1.167766
5444.000000	1.167894
5442.000000	1.167946
5440.000000	1.167895
5438.000000	1.167781
5436.000000	1.167729
5434.000000	1.167700
5432.000000	1.167636
5430.000000	1.167623
5428.000000	1.167815
5426.000000	1.168146
5424.000000	1.168241
5422.000000	1.168162
5420.000000	1.168059
5418.000000	1.167653
5416.000000	1.167168
5414.000000	1.167027
5412.000000	1.167380
5410.000000	1.167785
5408.000000	1.167802
5406.000000	1.167772
5404.000000	1.167739
5402.000000	1.167891
5400.000000	1.167894
5398.000000	1.167523
5396.000000	1.167031
5394.000000	1.167007
5392.000000	1.167412
5390.000000	1.167616
5388.000000	1.167292
5386.000000	1.167034
5384.000000	1.167006
5382.000000	1.166965
5380.000000	1.166537
5378.000000	1.166240
5376.000000	1.166365
5374.000000	1.166860
5372.000000	1.167268
5370.000000	1.167313
5368.000000	1.167101
5366.000000	1.166924
5364.000000	1.166950
5362.000000	1.167089
5360.000000	1.167121
5358.000000	1.166949
5356.000000	1.166703
5354.000000	1.166626
5352.000000	1.166815
5350.000000	1.166783
5348.000000	1.166424
5346.000000	1.166230
5344.000000	1.166399
5342.000000	1.166482
5340.000000	1.166361
5338.000000	1.166502
5336.000000	1.166910
5334.000000	1.167134
5332.000000	1.167094
5330.000000	1.167006
5328.000000	1.167010
5326.000000	1.167113
5324.000000	1.167285
5322.000000	1.167275
5320.000000	1.166948
5318.000000	1.166681
5316.000000	1.166688
5314.000000	1.166883
5312.000000	1.166972
5310.000000	1.166809
5308.000000	1.166752
5306.000000	1.166834
5304.000000	1.166898
5302.000000	1.166811
5300.000000	1.166712
5298.000000	1.166691
5296.000000	1.166580
5294.000000	1.166358
5292.000000	1.166271
5290.000000	1.166446
5288.000000	1.166672
5286.000000	1.166713
5284.000000	1.166614
5282.000000	1.166576
5280.000000	1.166527
5278.000000	1.166424
5276.000000	1.166456
5274.000000	1.166457
5272.000000	1.166349
5270.000000	1.166265
5268.000000	1.166003
5266.000000	1.165711
5264.000000	1.165757
5262.000000	1.166276
5260.000000	1.166648
5258.000000	1.166436
5256.000000	1.166125
5254.000000	1.166130
5252.000000	1.166204
5250.000000	1.166117
5248.000000	1.166026
5246.000000	1.166183
5244.000000	1.166449
5242.000000	1.166526
5240.000000	1.166467
5238.000000	1.166294
5236.000000	1.166114
5234.000000	1.166044
5232.000000	1.166054
5230.000000	1.165990
5228.000000	1.165948
5226.000000	1.166141
5224.000000	1.166374
5222.000000	1.166327
5220.000000	1.166106
5218.000000	1.166099
5216.000000	1.166323
5214.000000	1.166300
5212.000000	1.165929
5210.000000	1.165554
5208.000000	1.165498
5206.000000	1.165807
5204.000000	1.166136
5202.000000	1.166174
5200.000000	1.165840
5198.000000	1.165588
5196.000000	1.165668
5194.000000	1.165889
5192.000000	1.165922
5190.000000	1.165827
5188.000000	1.165671
5186.000000	1.165542
5184.000000	1.165596
5182.000000	1.165736
5180.000000	1.165839
5178.000000	1.165826
5176.000000	1.165762
5174.000000	1.165660
5172.000000	1.165565
5170.000000	1.165583
5168.000000	1.165601
5166.000000	1.165646
5164.000000	1.165790
5162.000000	1.165785
5160.000000	1.165619
5158.000000	1.165618
5156.000000	1.165974
5154.000000	1.166183
5152.000000	1.166085
5150.000000	1.165959
5148.000000	1.165985
5146.000000	1.166029
5144.000000	1.166000
5142.000000	1.165902
5140.000000	1.165749
5138.000000	1.165605
5136.000000	1.165480
5134.000000	1.165454
5132.000000	1.165518
5130.000000	1.165772
5128.000000	1.166019
5126.000000	1.166025
5124.000000	1.165835
5122.000000	1.165706
5120.000000	1.165789
5118.000000	1.165876
5116.000000	1.165846
5114.000000	1.165770
5112.000000	1.165723
5110.000000	1.165778
5108.000000	1.165809
5106.000000	1.165766
5104.000000	1.165713
5102.000000	1.165658
5100.000000	1.165582
5098.000000	1.165462
5096.000000	1.165464
5094.000000	1.165620
5092.000000	1.165786
5090.000000	1.165812
5088.000000	1.165674
5086.000000	1.165583
5084.000000	1.165587
5082.000000	1.165619
5080.000000	1.165578
5078.000000	1.165528
5076.000000	1.165571
5074.000000	1.165708
5072.000000	1.165772
5070.000000	1.165681
5068.000000	1.165638
5066.000000	1.165639
5064.000000	1.165517
5062.000000	1.165412
5060.000000	1.165454
5058.000000	1.165550
5056.000000	1.165574
5054.000000	1.165589
5052.000000	1.165595
5050.000000	1.165710
5048.000000	1.165903
5046.000000	1.166021
5044.000000	1.165907
5042.000000	1.165722
5040.000000	1.165616
5038.000000	1.165622
5036.000000	1.165706
5034.000000	1.165790
5032.000000	1.165854
5030.000000	1.165777
5028.000000	1.165613
5026.000000	1.165594
5024.000000	1.165691
5022.000000	1.165690
5020.000000	1.165548
5018.000000	1.165546
5016.000000	1.165728
5014.000000	1.165821
5012.000000	1.165682
5010.000000	1.165524
5008.000000	1.165444
5006.000000	1.165443
5004.000000	1.165358
5002.000000	1.165285
5000.000000	1.165324
4998.000000	1.165446
4996.000000	1.165524
4994.000000	1.165531
4992.000000	1.165565
4990.000000	1.165546
4988.000000	1.165477
4986.000000	1.165468
4984.000000	1.165516
4982.000000	1.165540
4980.000000	1.165502
4978.000000	1.165504
4976.000000	1.165487
4974.000000	1.165412
4972.000000	1.165350
4970.000000	1.165435
4968.000000	1.165609
4966.000000	1.165731
4964.000000	1.165742
4962.000000	1.165624
4960.000000	1.165501
4958.000000	1.165449
4956.000000	1.165520
4954.000000	1.165589
4952.000000	1.165576
4950.000000	1.165559
4948.000000	1.165564
4946.000000	1.165657
4944.000000	1.165744
4942.000000	1.165842
4940.000000	1.165881
4938.000000	1.165810
4936.000000	1.165687
4934.000000	1.165604
4932.000000	1.165639
4930.000000	1.165736
4928.000000	1.165766
4926.000000	1.165678
4924.000000	1.165550
4922.000000	1.165535
4920.000000	1.165536
4918.000000	1.165500
4916.000000	1.165524
4914.000000	1.165647
4912.000000	1.165738
4910.000000	1.165727
4908.000000	1.165662
4906.000000	1.165606
4904.000000	1.165609
4902.000000	1.165625
4900.000000	1.165609
4898.000000	1.165478
4896.000000	1.165403
4894.000000	1.165501
4892.000000	1.165611
4890.000000	1.165518
4888.000000	1.165422
4886.000000	1.165508
4884.000000	1.165560
4882.000000	1.165455
4880.000000	1.165442
4878.000000	1.165539
4876.000000	1.165584
4874.000000	1.165552
4872.000000	1.165596
4870.000000	1.165690
4868.000000	1.165753
4866.000000	1.165661
4864.000000	1.165565
4862.000000	1.165572
4860.000000	1.165646
4858.000000	1.165662
4856.000000	1.165629
4854.000000	1.165652
4852.000000	1.165737
4850.000000	1.165782
4848.000000	1.165693
4846.000000	1.165574
4844.000000	1.165500
4842.000000	1.165543
4840.000000	1.165647
4838.000000	1.165655
4836.000000	1.165579
4834.000000	1.165601
4832.000000	1.165650
4830.000000	1.165580
4828.000000	1.165496
4826.000000	1.165577
4824.000000	1.165690
4822.000000	1.165658
4820.000000	1.165586
4818.000000	1.165644
4816.000000	1.165737
4814.000000	1.165707
4812.000000	1.165615
4810.000000	1.165595
4808.000000	1.165619
4806.000000	1.165603
4804.000000	1.165497
4802.000000	1.165358
4800.000000	1.165299
4798.000000	1.165390
4796.000000	1.165450
4794.000000	1.165416
4792.000000	1.165436
4790.000000	1.165572
4788.000000	1.165608
4786.000000	1.165550
4784.000000	1.165491
4782.000000	1.165416
4780.000000	1.165332
4778.000000	1.165391
4776.000000	1.165511
4774.000000	1.165524
4772.000000	1.165452
4770.000000	1.165462
4768.000000	1.165496
4766.000000	1.165465
4764.000000	1.165362
4762.000000	1.165387
4760.000000	1.165551
4758.000000	1.165655
4756.000000	1.165599
4754.000000	1.165523
4752.000000	1.165537
4750.000000	1.165616
4748.000000	1.165610
4746.000000	1.165443
4744.000000	1.165355
4742.000000	1.165461
4740.000000	1.165441
4738.000000	1.165269
4736.000000	1.165245
4734.000000	1.165350
4732.000000	1.165375
4730.000000	1.165315
4728.000000	1.165280
4726.000000	1.165286
4724.000000	1.165305
4722.000000	1.165227
4720.000000	1.165105
4718.000000	1.165119
4716.000000	1.165267
4714.000000	1.165335
4712.000000	1.165237
4710.000000	1.165098
4708.000000	1.165043
4706.000000	1.165052
4704.000000	1.165104
4702.000000	1.165164
4700.000000	1.165205
4698.000000	1.165191
4696.000000	1.165160
4694.000000	1.165158
4692.000000	1.165181
4690.000000	1.165248
4688.000000	1.165365
4686.000000	1.165421
4684.000000	1.165266
4682.000000	1.165088
4680.000000	1.165118
4678.000000	1.165240
4676.000000	1.165305
4674.000000	1.165281
4672.000000	1.165240
4670.000000	1.165313
4668.000000	1.165448
4666.000000	1.165514
4664.000000	1.165472
4662.000000	1.165383
4660.000000	1.165341
4658.000000	1.165422
4656.000000	1.165458
4654.000000	1.165347
4652.000000	1.165206
4650.000000	1.165185
4648.000000	1.165235
4646.000000	1.165243
4644.000000	1.165252
4642.000000	1.165321
4640.000000	1.165326
4638.000000	1.165207
4636.000000	1.165142
4634.000000	1.165223
4632.000000	1.165316
4630.000000	1.165324
4628.000000	1.165335
4626.000000	1.165335
4624.000000	1.165317
4622.000000	1.165348
4620.000000	1.165402
4618.000000	1.165420
4616.000000	1.165424
4614.000000	1.165392
4612.000000	1.165342
4610.000000	1.165343
4608.000000	1.165359
4606.000000	1.165353
4604.000000	1.165310
4602.000000	1.165231
4600.000000	1.165178
4598.000000	1.165260
4596.000000	1.165403
4594.000000	1.165396
4592.000000	1.165318
4590.000000	1.165285
4588.000000	1.165270
4586.000000	1.165256
4584.000000	1.165258
4582.000000	1.165260
4580.000000	1.165344
4578.000000	1.165407
4576.000000	1.165360
4574.000000	1.165335
4572.000000	1.165349
4570.000000	1.165299
4568.000000	1.165295
4566.000000	1.165389
4564.000000	1.165447
4562.000000	1.165467
4560.000000	1.165557
4558.000000	1.165587
4556.000000	1.165436
4554.000000	1.165294
4552.000000	1.165283
4550.000000	1.165296
4548.000000	1.165256
4546.000000	1.165234
4544.000000	1.165254
4542.000000	1.165313
4540.000000	1.165354
4538.000000	1.165277
4536.000000	1.165136
4534.000000	1.165154
4532.000000	1.165234
4530.000000	1.165236
4528.000000	1.165266
4526.000000	1.165345
4524.000000	1.165383
4522.000000	1.165374
4520.000000	1.165345
4518.000000	1.165351
4516.000000	1.165353
4514.000000	1.165310
4512.000000	1.165265
4510.000000	1.165241
4508.000000	1.165186
4506.000000	1.165162
4504.000000	1.165147
4502.000000	1.165127
4500.000000	1.165108
4498.000000	1.165131
4496.000000	1.165157
4494.000000	1.165205
4492.000000	1.165297
4490.000000	1.165353
4488.000000	1.165279
4486.000000	1.165179
4484.000000	1.165189
4482.000000	1.165243
4480.000000	1.165277
4478.000000	1.165298
4476.000000	1.165262
4474.000000	1.165255
4472.000000	1.165343
4470.000000	1.165456
4468.000000	1.165487
4466.000000	1.165409
4464.000000	1.165271
4462.000000	1.165216
4460.000000	1.165264
4458.000000	1.165334
4456.000000	1.165319
4454.000000	1.165262
4452.000000	1.165265
4450.000000	1.165335
4448.000000	1.165342
4446.000000	1.165295
4444.000000	1.165276
4442.000000	1.165303
4440.000000	1.165298
4438.000000	1.165333
4436.000000	1.165356
4434.000000	1.165279
4432.000000	1.165179
4430.000000	1.165169
4428.000000	1.165194
4426.000000	1.165258
4424.000000	1.165307
4422.000000	1.165261
4420.000000	1.165155
4418.000000	1.165069
4416.000000	1.165020
4414.000000	1.165068
4412.000000	1.165145
4410.000000	1.165172
4408.000000	1.165166
4406.000000	1.165160
4404.000000	1.165165
4402.000000	1.165135
4400.000000	1.165037
4398.000000	1.165022
4396.000000	1.165141
4394.000000	1.165219
4392.000000	1.165180
4390.000000	1.165088
4388.000000	1.165014
4386.000000	1.165017
4384.000000	1.165091
4382.000000	1.165128
4380.000000	1.165154
4378.000000	1.165265
4376.000000	1.165340
4374.000000	1.165268
4372.000000	1.165195
4370.000000	1.165182
4368.000000	1.165229
4366.000000	1.165313
4364.000000	1.165322
4362.000000	1.165284
4360.000000	1.165254
4358.000000	1.165184
4356.000000	1.165141
4354.000000	1.165192
4352.000000	1.165203
4350.000000	1.165103
4348.000000	1.165023
4346.000000	1.165059
4344.000000	1.165083
4342.000000	1.165056
4340.000000	1.165056
4338.000000	1.165103
4336.000000	1.165080
4334.000000	1.164976
4332.000000	1.164911
4330.000000	1.164984
4328.000000	1.165052
4326.000000	1.164977
4324.000000	1.164858
4322.000000	1.164864
4320.000000	1.164904
4318.000000	1.164860
4316.000000	1.164804
4314.000000	1.164810
4312.000000	1.164809
4310.000000	1.164813
4308.000000	1.164832
4306.000000	1.164841
4304.000000	1.164867
4302.000000	1.164931
4300.000000	1.164989
4298.000000	1.164979
4296.000000	1.164894
4294.000000	1.164840
4292.000000	1.164813
4290.000000	1.164766
4288.000000	1.164781
4286.000000	1.164832
4284.000000	1.164835
4282.000000	1.164849
4280.000000	1.164905
4278.000000	1.164951
4276.000000	1.164969
4274.000000	1.164928
4272.000000	1.164827
4270.000000	1.164722
4268.000000	1.164623
4266.000000	1.164620
4264.000000	1.164735
4262.000000	1.164792
4260.000000	1.164710
4258.000000	1.164685
4256.000000	1.164742
4254.000000	1.164732
4252.000000	1.164688
4250.000000	1.164662
4248.000000	1.164583
4246.000000	1.164524
4244.000000	1.164574
4242.000000	1.164663
4240.000000	1.164658
4238.000000	1.164571
4236.000000	1.164495
4234.000000	1.164461
4232.000000	1.164441
4230.000000	1.164400
4228.000000	1.164360
4226.000000	1.164366
4224.000000	1.164404
4222.000000	1.164407
4220.000000	1.164353
4218.000000	1.164344
4216.000000	1.164393
4214.000000	1.164403
4212.000000	1.164360
4210.000000	1.164305
4208.000000	1.164225
4206.000000	1.164189
4204.000000	1.164258
4202.000000	1.164336
4200.000000	1.164286
4198.000000	1.164191
4196.000000	1.164128
4194.000000	1.164068
4192.000000	1.164055
4190.000000	1.164162
4188.000000	1.164253
4186.000000	1.164234
4184.000000	1.164185
4182.000000	1.164185
4180.000000	1.164210
4178.000000	1.164198
4176.000000	1.164152
4174.000000	1.164159
4172.000000	1.164200
4170.000000	1.164206
4168.000000	1.164146
4166.000000	1.164054
4164.000000	1.164024
4162.000000	1.164052
4160.000000	1.164074
4158.000000	1.164047
4156.000000	1.163957
4154.000000	1.163880
4152.000000	1.163883
4150.000000	1.163875
4148.000000	1.163803
4146.000000	1.163786
4144.000000	1.163797
4142.000000	1.163725
4140.000000	1.163683
4138.000000	1.163692
4136.000000	1.163651
4134.000000	1.163675
4132.000000	1.163747
4130.000000	1.163686
4128.000000	1.163567
4126.000000	1.163522
4124.000000	1.163478
4122.000000	1.163382
4120.000000	1.163312
4118.000000	1.163305
4116.000000	1.163314
4114.000000	1.163348
4112.000000	1.163356
4110.000000	1.163255
4108.000000	1.163125
4106.000000	1.163130
4104.000000	1.163225
4102.000000	1.163279
4100.000000	1.163281
4098.000000	1.163255
4096.000000	1.163201
4094.000000	1.163173
4092.000000	1.163137
4090.000000	1.163091
4088.000000	1.163143
4086.000000	1.163223
4084.000000	1.163162
4082.000000	1.163089
4080.000000	1.163128
4078.000000	1.163180
4076.000000	1.163115
4074.000000	1.162989
4072.000000	1.162995
4070.000000	1.163046
4068.000000	1.162950
4066.000000	1.162839
4064.000000	1.162819
4062.000000	1.162829
4060.000000	1.162787
4058.000000	1.162697
4056.000000	1.162619
4054.000000	1.162587
4052.000000	1.162578
4050.000000	1.162553
4048.000000	1.162513
4046.000000	1.162493
4044.000000	1.162503
4042.000000	1.162439
4040.000000	1.162319
4038.000000	1.162316
4036.000000	1.162321
4034.000000	1.162260
4032.000000	1.162254
4030.000000	1.162243
4028.000000	1.162201
4026.000000	1.162208
4024.000000	1.162165
4022.000000	1.162080
4020.000000	1.162104
4018.000000	1.162166
4016.000000	1.162086
4014.000000	1.161927
4012.000000	1.161824
4010.000000	1.161840
4008.000000	1.161936
4006.000000	1.162010
4004.000000	1.162046
4002.000000	1.162036
4000.000000	1.161924
3998.000000	1.161789
3996.000000	1.161774
3994.000000	1.161846
3992.000000	1.161819
3990.000000	1.161781
3988.000000	1.161851
3986.000000	1.161886
3984.000000	1.161788
3982.000000	1.161669
3980.000000	1.161577
3978.000000	1.161487
3976.000000	1.161467
3974.000000	1.161497
3972.000000	1.161450
3970.000000	1.161431
3968.000000	1.161476
3966.000000	1.161422
3964.000000	1.161251
3962.000000	1.161158
3960.000000	1.161203
3958.000000	1.161224
3956.000000	1.161147
3954.000000	1.160973
3952.000000	1.160659
3950.000000	1.160494
3948.000000	1.160688
3946.000000	1.160742
3944.000000	1.160490
3942.000000	1.160598
3940.000000	1.160907
3938.000000	1.160842
3936.000000	1.160370
3934.000000	1.159850
3932.000000	1.159979
3930.000000	1.160493
3928.000000	1.160364
3926.000000	1.159997
3924.000000	1.160102
3922.000000	1.159963
3920.000000	1.159353
3918.000000	1.159407
3916.000000	1.160299
3914.000000	1.160767
3912.000000	1.160467
3910.000000	1.160009
3908.000000	1.158929
3906.000000	1.157221
3904.000000	1.156614
3902.000000	1.157504
3900.000000	1.158933
3898.000000	1.160327
3896.000000	1.160278
3894.000000	1.158576
3892.000000	1.158030
3890.000000	1.158945
3888.000000	1.158039
3886.000000	1.157313
3884.000000	1.158693
3882.000000	1.158895
3880.000000	1.159000
3878.000000	1.159668
3876.000000	1.158757
3874.000000	1.157273
3872.000000	1.155824
3870.000000	1.156299
3868.000000	1.158151
3866.000000	1.158010
3864.000000	1.157996
3862.000000	1.159112
3860.000000	1.159046
3858.000000	1.155546
3856.000000	1.149242
3854.000000	1.149304
3852.000000	1.157569
3850.000000	1.162187
3848.000000	1.160520
3846.000000	1.158220
3844.000000	1.157103
3842.000000	1.155833
3840.000000	1.153652
3838.000000	1.154175
3836.000000	1.157531
3834.000000	1.158628
3832.000000	1.158166
3830.000000	1.158419
3828.000000	1.158302
3826.000000	1.157574
3824.000000	1.155552
3822.000000	1.154449
3820.000000	1.155698
3818.000000	1.155058
3816.000000	1.155604
3814.000000	1.159255
3812.000000	1.159623
3810.000000	1.156605
3808.000000	1.154969
3806.000000	1.156061
3804.000000	1.155068
3802.000000	1.154023
3800.000000	1.157253
3798.000000	1.158854
3796.000000	1.158353
3794.000000	1.158801
3792.000000	1.158727
3790.000000	1.158247
3788.000000	1.157937
3786.000000	1.157760
3784.000000	1.157720
3782.000000	1.157245
3780.000000	1.157043
3778.000000	1.157919
3776.000000	1.158299
3774.000000	1.157405
3772.000000	1.156127
3770.000000	1.156098
3768.000000	1.156962
3766.000000	1.157351
3764.000000	1.157459
3762.000000	1.156627
3760.000000	1.155863
3758.000000	1.156307
3756.000000	1.154962
3754.000000	1.150842
3752.000000	1.149060
3750.000000	1.152165
3748.000000	1.153159
3746.000000	1.149885
3744.000000	1.152512
3742.000000	1.158030
3740.000000	1.156252
3738.000000	1.152248
3736.000000	1.151955
3734.000000	1.153640
3732.000000	1.155490
3730.000000	1.156603
3728.000000	1.155656
3726.000000	1.154948
3724.000000	1.155358
3722.000000	1.155707
3720.000000	1.156061
3718.000000	1.156071
3716.000000	1.154706
3714.000000	1.152203
3712.000000	1.152107
3710.000000	1.154841
3708.000000	1.156575
3706.000000	1.156175
3704.000000	1.154880
3702.000000	1.154689
3700.000000	1.155762
3698.000000	1.156078
3696.000000	1.155429
3694.000000	1.153999
3692.000000	1.151443
3690.000000	1.150011
3688.000000	1.153012
3686.000000	1.156577
3684.000000	1.156152
3682.000000	1.154447
3680.000000	1.152525
3678.000000	1.149267
3676.000000	1.148948
3674.000000	1.151732
3672.000000	1.151130
3670.000000	1.151509
3668.000000	1.154815
3666.000000	1.155417
3664.000000	1.154403
3662.000000	1.153880
3660.000000	1.152821
3658.000000	1.151281
3656.000000	1.151701
3654.000000	1.151864
3652.000000	1.148687
3650.000000	1.147497
3648.000000	1.151068
3646.000000	1.154059
3644.000000	1.153942
3642.000000	1.153076
3640.000000	1.152774
3638.000000	1.152530
3636.000000	1.152018
3634.000000	1.151097
3632.000000	1.148468
3630.000000	1.146672
3628.000000	1.150115
3626.000000	1.153322
3624.000000	1.152108
3622.000000	1.149718
3620.000000	1.149009
3618.000000	1.150379
3616.000000	1.150817
3614.000000	1.149820
3612.000000	1.149283
3610.000000	1.149296
3608.000000	1.150366
3606.000000	1.151489
3604.000000	1.151196
3602.000000	1.150577
3600.000000	1.150417
3598.000000	1.150258
3596.000000	1.150063
3594.000000	1.150321
3592.000000	1.150022
3590.000000	1.148586
3588.000000	1.148464
3586.000000	1.150120
3584.000000	1.150871
3582.000000	1.150494
3580.000000	1.150229
3578.000000	1.150220
3576.000000	1.150241
3574.000000	1.150167
3572.000000	1.149643
3570.000000	1.148441
3568.000000	1.148018
3566.000000	1.149299
3564.000000	1.150291
3562.000000	1.150174
3560.000000	1.150018
3558.000000	1.150062
3556.000000	1.149916
3554.000000	1.149708
3552.000000	1.149833
3550.000000	1.149820
3548.000000	1.149412
3546.000000	1.149473
3544.000000	1.150021
3542.000000	1.150360
3540.000000	1.150356
3538.000000	1.150204
3536.000000	1.150261
3534.000000	1.150459
3532.000000	1.150356
3530.000000	1.150165
3528.000000	1.150228
3526.000000	1.150316
3524.000000	1.150365
3522.000000	1.150643
3520.000000	1.150907
3518.000000	1.151036
3516.000000	1.151139
3514.000000	1.151140
3512.000000	1.151127
3510.000000	1.151363
3508.000000	1.151682
3506.000000	1.151621
3504.000000	1.151521
3502.000000	1.151915
3500.000000	1.152365
3498.000000	1.152469
3496.000000	1.152558
3494.000000	1.152827
3492.000000	1.153025
3490.000000	1.153117
3488.000000	1.153324
3486.000000	1.153598
3484.000000	1.153758
3482.000000	1.154036
3480.000000	1.154461
3478.000000	1.154742
3476.000000	1.154991
3474.000000	1.155361
3472.000000	1.155657
3470.000000	1.155820
3468.000000	1.156095
3466.000000	1.156521
3464.000000	1.156915
3462.000000	1.157237
3460.000000	1.157545
3458.000000	1.157867
3456.000000	1.158226
3454.000000	1.158598
3452.000000	1.158933
3450.000000	1.159215
3448.000000	1.159516
3446.000000	1.160009
3444.000000	1.160514
3442.000000	1.160929
3440.000000	1.161324
3438.000000	1.161687
3436.000000	1.162088
3434.000000	1.162578
3432.000000	1.163050
3430.000000	1.163458
3428.000000	1.163884
3426.000000	1.164279
3424.000000	1.164561
3422.000000	1.164838
3420.000000	1.165204
3418.000000	1.165548
3416.000000	1.165775
3414.000000	1.166017
3412.000000	1.166312
3410.000000	1.166596
3408.000000	1.166839
3406.000000	1.167060
3404.000000	1.167225
3402.000000	1.167316
3400.000000	1.167493
3398.000000	1.167788
3396.000000	1.168053
3394.000000	1.168230
3392.000000	1.168419
3390.000000	1.168622
3388.000000	1.168773
3386.000000	1.168917
3384.000000	1.169096
3382.000000	1.169271
3380.000000	1.169357
3378.000000	1.169417
3376.000000	1.169560
3374.000000	1.169667
3372.000000	1.169672
3370.000000	1.169709
3368.000000	1.169872
3366.000000	1.170097
3364.000000	1.170229
3362.000000	1.170267
3360.000000	1.170325
3358.000000	1.170428
3356.000000	1.170521
3354.000000	1.170615
3352.000000	1.170705
3350.000000	1.170781
3348.000000	1.170886
3346.000000	1.170964
3344.000000	1.170988
3342.000000	1.171004
3340.000000	1.171018
3338.000000	1.171088
3336.000000	1.171207
3334.000000	1.171296
3332.000000	1.171359
3330.000000	1.171397
3328.000000	1.171422
3326.000000	1.171530
3324.000000	1.171679
3322.000000	1.171724
3320.000000	1.171758
3318.000000	1.171865
3316.000000	1.171892
3314.000000	1.171889
3312.000000	1.171973
3310.000000	1.172078
3308.000000	1.172112
3306.000000	1.172114
3304.000000	1.172231
3302.000000	1.172422
3300.000000	1.172510
3298.000000	1.172498
3296.000000	1.172467
3294.000000	1.172480
3292.000000	1.172515
3290.000000	1.172619
3288.000000	1.172716
3286.000000	1.172731
3284.000000	1.172781
3282.000000	1.172908
3280.000000	1.172938
3278.000000	1.172891
3276.000000	1.172902
3274.000000	1.172940
3272.000000	1.172990
3270.000000	1.173063
3268.000000	1.173193
3266.000000	1.173269
3264.000000	1.173247
3262.000000	1.173254
3260.000000	1.173310
3258.000000	1.173354
3256.000000	1.173371
3254.000000	1.173471
3252.000000	1.173609
3250.000000	1.173608
3248.000000	1.173536
3246.000000	1.173585
3244.000000	1.173720
3242.000000	1.173767
3240.000000	1.173762
3238.000000	1.173812
3236.000000	1.173863
3234.000000	1.173913
3232.000000	1.173996
3230.000000	1.174067
3228.000000	1.174159
3226.000000	1.174252
3224.000000	1.174227
3222.000000	1.174219
3220.000000	1.174297
3218.000000	1.174375
3216.000000	1.174396
3214.000000	1.174435
3212.000000	1.174462
3210.000000	1.174473
3208.000000	1.174549
3206.000000	1.174663
3204.000000	1.174693
3202.000000	1.174604
3200.000000	1.174530
3198.000000	1.174548
3196.000000	1.174580
3194.000000	1.174596
3192.000000	1.174634
3190.000000	1.174666
3188.000000	1.174668
3186.000000	1.174696
3184.000000	1.174778
3182.000000	1.174795
3180.000000	1.174750
3178.000000	1.174809
3176.000000	1.174941
3174.000000	1.174975
3172.000000	1.174924
3170.000000	1.174888
3168.000000	1.174888
3166.000000	1.174928
3164.000000	1.174955
3162.000000	1.174968
3160.000000	1.175024
3158.000000	1.175075
3156.000000	1.175081
3154.000000	1.175058
3152.000000	1.175051
3150.000000	1.175138
3148.000000	1.175253
3146.000000	1.175300
3144.000000	1.175298
3142.000000	1.175322
3140.000000	1.175373
3138.000000	1.175451
3136.000000	1.175504
3134.000000	1.175508
3132.000000	1.175572
3130.000000	1.175633
3128.000000	1.175628
3126.000000	1.175609
3124.000000	1.175614
3122.000000	1.175648
3120.000000	1.175611
3118.000000	1.175545
3116.000000	1.175597
3114.000000	1.175699
3112.000000	1.175728
3110.000000	1.175670
3108.000000	1.175653
3106.000000	1.175725
3104.000000	1.175723
3102.000000	1.175613
3100.000000	1.175527
3098.000000	1.175522
3096.000000	1.175538
3094.000000	1.175528
3092.000000	1.175471
3090.000000	1.175381
3088.000000	1.175339
3086.000000	1.175295
3084.000000	1.175210
3082.000000	1.175130
3080.000000	1.175030
3078.000000	1.174920
3076.000000	1.174883
3074.000000	1.174824
3072.000000	1.174714
3070.000000	1.174639
3068.000000	1.174525
3066.000000	1.174445
3064.000000	1.174479
3062.000000	1.174499
3060.000000	1.174495
3058.000000	1.174464
3056.000000	1.174376
3054.000000	1.174263
3052.000000	1.174163
3050.000000	1.174083
3048.000000	1.174008
3046.000000	1.173938
3044.000000	1.173826
3042.000000	1.173732
3040.000000	1.173722
3038.000000	1.173707
3036.000000	1.173629
3034.000000	1.173580
3032.000000	1.173577
3030.000000	1.173481
3028.000000	1.173267
3026.000000	1.173079
3024.000000	1.172996
3022.000000	1.173000
3020.000000	1.173131
3018.000000	1.173393
3016.000000	1.173653
3014.000000	1.173798
3012.000000	1.173861
3010.000000	1.173793
3008.000000	1.173590
3006.000000	1.173398
3004.000000	1.173286
3002.000000	1.173170
3000.000000	1.173076
2998.000000	1.173027
2996.000000	1.172969
2994.000000	1.172888
2992.000000	1.172796
2990.000000	1.172769
2988.000000	1.172789
2986.000000	1.172740
2984.000000	1.172619
2982.000000	1.172558
2980.000000	1.172549
2978.000000	1.172506
2976.000000	1.172439
2974.000000	1.172377
2972.000000	1.172365
2970.000000	1.172450
2968.000000	1.172735
2966.000000	1.173234
2964.000000	1.173875
2962.000000	1.174467
2960.000000	1.174774
2958.000000	1.174676
2956.000000	1.174353
2954.000000	1.173938
2952.000000	1.173482
2950.000000	1.172981
2948.000000	1.172438
2946.000000	1.171953
2944.000000	1.171560
2942.000000	1.171245
2940.000000	1.171045
2938.000000	1.170966
2936.000000	1.171052
2934.000000	1.171186
2932.000000	1.171216
2930.000000	1.171196
2928.000000	1.171437
2926.000000	1.172021
2924.000000	1.172790
2922.000000	1.173568
2920.000000	1.174143
2918.000000	1.174398
2916.000000	1.174358
2914.000000	1.174080
2912.000000	1.173673
2910.000000	1.173294
2908.000000	1.173031
2906.000000	1.172851
2904.000000	1.172652
2902.000000	1.172487
2900.000000	1.172431
2898.000000	1.172420
2896.000000	1.172328
2894.000000	1.172247
2892.000000	1.172204
2890.000000	1.172085
2888.000000	1.171932
2886.000000	1.171755
2884.000000	1.171615
2882.000000	1.171488
2880.000000	1.171302
2878.000000	1.171073
2876.000000	1.170856
2874.000000	1.170630
2872.000000	1.170374
2870.000000	1.170104
2868.000000	1.169775
2866.000000	1.169519
2864.000000	1.169673
2862.000000	1.170238
2860.000000	1.170934
2858.000000	1.171453
2856.000000	1.171699
2854.000000	1.171822
2852.000000	1.172024
2850.000000	1.172257
2848.000000	1.172375
2846.000000	1.172297
2844.000000	1.172050
2842.000000	1.171787
2840.000000	1.171592
2838.000000	1.171418
2836.000000	1.171318
2834.000000	1.171227
2832.000000	1.171141
2830.000000	1.171089
2828.000000	1.171056
2826.000000	1.171047
2824.000000	1.171075
2822.000000	1.171063
2820.000000	1.170979
2818.000000	1.170874
2816.000000	1.170808
2814.000000	1.170808
2812.000000	1.170793
2810.000000	1.170716
2808.000000	1.170683
2806.000000	1.170711
2804.000000	1.170700
2802.000000	1.170663
2800.000000	1.170640
2798.000000	1.170664
2796.000000	1.170645
2794.000000	1.170576
2792.000000	1.170554
2790.000000	1.170544
2788.000000	1.170518
2786.000000	1.170536
2784.000000	1.170589
2782.000000	1.170592
2780.000000	1.170587
2778.000000	1.170573
2776.000000	1.170506
2774.000000	1.170438
2772.000000	1.170437
2770.000000	1.170405
2768.000000	1.170366
2766.000000	1.170374
2764.000000	1.170431
2762.000000	1.170471
2760.000000	1.170431
2758.000000	1.170404
2756.000000	1.170438
2754.000000	1.170448
2752.000000	1.170462
2750.000000	1.170466
2748.000000	1.170457
2746.000000	1.170484
2744.000000	1.170497
2742.000000	1.170502
2740.000000	1.170484
2738.000000	1.170480
2736.000000	1.170544
2734.000000	1.170603
2732.000000	1.170645
2730.000000	1.170678
2728.000000	1.170709
2726.000000	1.170717
2724.000000	1.170755
2722.000000	1.170799
2720.000000	1.170843
2718.000000	1.170885
2716.000000	1.170963
2714.000000	1.171021
2712.000000	1.171059
2710.000000	1.171088
2708.000000	1.171133
2706.000000	1.171197
2704.000000	1.171304
2702.000000	1.171390
2700.000000	1.171452
2698.000000	1.171515
2696.000000	1.171589
2694.000000	1.171677
2692.000000	1.171766
2690.000000	1.171817
2688.000000	1.171880
2686.000000	1.171938
2684.000000	1.171993
2682.000000	1.172009
2680.000000	1.172051
2678.000000	1.172174
2676.000000	1.172250
2674.000000	1.172280
2672.000000	1.172364
2670.000000	1.172434
2668.000000	1.172498
2666.000000	1.172567
2664.000000	1.172606
2662.000000	1.172687
2660.000000	1.172778
2658.000000	1.172813
2656.000000	1.172913
2654.000000	1.173031
2652.000000	1.173061
2650.000000	1.173082
2648.000000	1.173146
2646.000000	1.173200
2644.000000	1.173261
2642.000000	1.173346
2640.000000	1.173401
2638.000000	1.173439
2636.000000	1.173451
2634.000000	1.173391
2632.000000	1.173359
2630.000000	1.173396
2628.000000	1.173463
2626.000000	1.173537
2624.000000	1.173538
2622.000000	1.173516
2620.000000	1.173552
2618.000000	1.173617
2616.000000	1.173625
2614.000000	1.173686
2612.000000	1.173803
2610.000000	1.173775
2608.000000	1.173726
2606.000000	1.173776
2604.000000	1.173832
2602.000000	1.173848
2600.000000	1.173880
2598.000000	1.173917
2596.000000	1.173956
2594.000000	1.174001
2592.000000	1.174086
2590.000000	1.174151
2588.000000	1.174210
2586.000000	1.174212
2584.000000	1.174196
2582.000000	1.174213
2580.000000	1.174205
2578.000000	1.174215
2576.000000	1.174282
2574.000000	1.174323
2572.000000	1.174324
2570.000000	1.174291
2568.000000	1.174270
2566.000000	1.174325
2564.000000	1.174392
2562.000000	1.174384
2560.000000	1.174392
2558.000000	1.174438
2556.000000	1.174461
2554.000000	1.174456
2552.000000	1.174447
2550.000000	1.174463
2548.000000	1.174513
2546.000000	1.174501
2544.000000	1.174498
2542.000000	1.174513
2540.000000	1.174483
2538.000000	1.174443
2536.000000	1.174431
2534.000000	1.174445
2532.000000	1.174469
2530.000000	1.174476
2528.000000	1.174454
2526.000000	1.174489
2524.000000	1.174544
2522.000000	1.174470
2520.000000	1.174419
2518.000000	1.174412
2516.000000	1.174409
2514.000000	1.174424
2512.000000	1.174404
2510.000000	1.174334
2508.000000	1.174296
2506.000000	1.174349
2504.000000	1.174387
2502.000000	1.174349
2500.000000	1.174337
2498.000000	1.174359
2496.000000	1.174353
2494.000000	1.174350
2492.000000	1.174369
2490.000000	1.174325
2488.000000	1.174268
2486.000000	1.174258
2484.000000	1.174295
2482.000000	1.174320
2480.000000	1.174305
2478.000000	1.174317
2476.000000	1.174349
2474.000000	1.174305
2472.000000	1.174305
2470.000000	1.174343
2468.000000	1.174322
2466.000000	1.174309
2464.000000	1.174342
2462.000000	1.174361
2460.000000	1.174355
2458.000000	1.174316
2456.000000	1.174291
2454.000000	1.174317
2452.000000	1.174375
2450.000000	1.174376
2448.000000	1.174347
2446.000000	1.174331
2444.000000	1.174337
2442.000000	1.174319
2440.000000	1.174297
2438.000000	1.174301
2436.000000	1.174276
2434.000000	1.174280
2432.000000	1.174289
2430.000000	1.174274
2428.000000	1.174269
2426.000000	1.174248
2424.000000	1.174267
2422.000000	1.174293
2420.000000	1.174276
2418.000000	1.174271
2416.000000	1.174273
2414.000000	1.174258
2412.000000	1.174245
2410.000000	1.174218
2408.000000	1.174169
2406.000000	1.174169
2404.000000	1.174222
2402.000000	1.174175
2400.000000	1.174119
2398.000000	1.174117
2396.000000	1.174122
2394.000000	1.174131
2392.000000	1.174146
2390.000000	1.174126
2388.000000	1.174082
2386.000000	1.174017
2384.000000	1.173950
2382.000000	1.173822
2380.000000	1.173662
2378.000000	1.173481
2376.000000	1.173277
2374.000000	1.173026
2372.000000	1.172719
2370.000000	1.172478
2368.000000	1.172378
2366.000000	1.172308
2364.000000	1.172341
2362.000000	1.172508
2360.000000	1.172765
2358.000000	1.173087
2356.000000	1.173438
2354.000000	1.173785
2352.000000	1.174040
2350.000000	1.173880
2348.000000	1.173276
2346.000000	1.172973
2344.000000	1.173341
2342.000000	1.174081
2340.000000	1.174871
2338.000000	1.175077
2336.000000	1.174565
2334.000000	1.173975
2332.000000	1.173710
2330.000000	1.173634
2328.000000	1.173687
2326.000000	1.173762
2324.000000	1.173830
2322.000000	1.173868
2320.000000	1.173908
2318.000000	1.173973
2316.000000	1.174028
2314.000000	1.173974
2312.000000	1.173939
2310.000000	1.173993
2308.000000	1.174030
2306.000000	1.173993
2304.000000	1.174032
2302.000000	1.174103
2300.000000	1.174160
2298.000000	1.174174
2296.000000	1.174180
2294.000000	1.174155
2292.000000	1.174131
2290.000000	1.174094
2288.000000	1.174058
2286.000000	1.174077
2284.000000	1.174114
2282.000000	1.174135
2280.000000	1.174159
2278.000000	1.174152
2276.000000	1.174187
2274.000000	1.174186
2272.000000	1.174148
2270.000000	1.174101
2268.000000	1.174070
2266.000000	1.174033
2264.000000	1.174024
2262.000000	1.174003
2260.000000	1.173957
2258.000000	1.173901
2256.000000	1.173911
2254.000000	1.173877
2252.000000	1.173832
2250.000000	1.173808
2248.000000	1.173789
2246.000000	1.173772
2244.000000	1.173712
2242.000000	1.173633
2240.000000	1.173676
2238.000000	1.173641
2236.000000	1.173521
2234.000000	1.173416
2232.000000	1.173377
2230.000000	1.173347
2228.000000	1.173328
2226.000000	1.173292
2224.000000	1.173277
2222.000000	1.173244
2220.000000	1.173184
2218.000000	1.173054
2216.000000	1.172979
2214.000000	1.172976
2212.000000	1.172947
2210.000000	1.172859
2208.000000	1.172835
2206.000000	1.172784
2204.000000	1.172724
2202.000000	1.172694
2200.000000	1.172636
2198.000000	1.172576
2196.000000	1.172551
2194.000000	1.172473
2192.000000	1.172456
2190.000000	1.172466
2188.000000	1.172418
2186.000000	1.172319
2184.000000	1.172298
2182.000000	1.172289
2180.000000	1.172237
2178.000000	1.172152
2176.000000	1.172084
2174.000000	1.172035
2172.000000	1.171962
2170.000000	1.171902
2168.000000	1.171902
2166.000000	1.171836
2164.000000	1.171784
2162.000000	1.171753
2160.000000	1.171736
2158.000000	1.171666
2156.000000	1.171585
2154.000000	1.171528
2152.000000	1.171477
2150.000000	1.171420
2148.000000	1.171373
2146.000000	1.171321
2144.000000	1.171293
2142.000000	1.171227
2140.000000	1.171158
2138.000000	1.171121
2136.000000	1.171112
2134.000000	1.171022
2132.000000	1.170969
2130.000000	1.170953
2128.000000	1.170938
2126.000000	1.170923
2124.000000	1.170890
2122.000000	1.170816
2120.000000	1.170773
2118.000000	1.170726
2116.000000	1.170706
2114.000000	1.170654
2112.000000	1.170614
2110.000000	1.170584
2108.000000	1.170529
2106.000000	1.170488
2104.000000	1.170521
2102.000000	1.170498
2100.000000	1.170466
2098.000000	1.170463
2096.000000	1.170417
2094.000000	1.170321
2092.000000	1.170298
2090.000000	1.170270
2088.000000	1.170248
2086.000000	1.170230
2084.000000	1.170231
2082.000000	1.170164
2080.000000	1.170125
2078.000000	1.170106
2076.000000	1.170082
2074.000000	1.169995
2072.000000	1.169976
2070.000000	1.169940
2068.000000	1.169853
2066.000000	1.169768
2064.000000	1.169795
2062.000000	1.169802
2060.000000	1.169825
2058.000000	1.169826
2056.000000	1.169778
2054.000000	1.169686
2052.000000	1.169645
2050.000000	1.169600
2048.000000	1.169573
2046.000000	1.169518
2044.000000	1.169483
2042.000000	1.169439
2040.000000	1.169461
2038.000000	1.169462
2036.000000	1.169437
2034.000000	1.169375
2032.000000	1.169331
2030.000000	1.169297
2028.000000	1.169317
2026.000000	1.169277
2024.000000	1.169214
2022.000000	1.169132
2020.000000	1.169034
2018.000000	1.168902
2016.000000	1.168972
2014.000000	1.169025
2012.000000	1.168997
2010.000000	1.168957
2008.000000	1.168966
2006.000000	1.168977
2004.000000	1.168970
2002.000000	1.168914
2000.000000	1.168897
1998.000000	1.168893
1996.000000	1.168839
1994.000000	1.168534
1992.000000	1.168471
1990.000000	1.168668
1988.000000	1.168688
1986.000000	1.168665
1984.000000	1.168679
1982.000000	1.168705
1980.000000	1.168641
1978.000000	1.168576
1976.000000	1.168612
1974.000000	1.168621
1972.000000	1.168550
1970.000000	1.168401
1968.000000	1.168299
1966.000000	1.168419
1964.000000	1.168485
1962.000000	1.168388
1960.000000	1.168362
1958.000000	1.168572
1956.000000	1.168622
1954.000000	1.168494
1952.000000	1.168472
1950.000000	1.168465
1948.000000	1.168464
1946.000000	1.168293
1944.000000	1.168018
1942.000000	1.168216
1940.000000	1.168577
1938.000000	1.168514
1936.000000	1.168506
1934.000000	1.168535
1932.000000	1.168582
1930.000000	1.168586
1928.000000	1.168592
1926.000000	1.168457
1924.000000	1.168246
1922.000000	1.168268
1920.000000	1.167886
1918.000000	1.167871
1916.000000	1.168717
1914.000000	1.168774
1912.000000	1.168587
1910.000000	1.168499
1908.000000	1.168659
1906.000000	1.168750
1904.000000	1.168813
1902.000000	1.168776
1900.000000	1.168789
1898.000000	1.168667
1896.000000	1.168626
1894.000000	1.168712
1892.000000	1.168515
1890.000000	1.168257
1888.000000	1.168776
1886.000000	1.168910
1884.000000	1.168879
1882.000000	1.168854
1880.000000	1.168883
1878.000000	1.168812
1876.000000	1.168813
1874.000000	1.168745
1872.000000	1.168120
1870.000000	1.167289
1868.000000	1.168033
1866.000000	1.168811
1864.000000	1.168863
1862.000000	1.168711
1860.000000	1.168716
1858.000000	1.168704
1856.000000	1.168773
1854.000000	1.168700
1852.000000	1.168693
1850.000000	1.168494
1848.000000	1.168004
1846.000000	1.166466
1844.000000	1.166843
1842.000000	1.168776
1840.000000	1.168776
1838.000000	1.168447
1836.000000	1.168564
1834.000000	1.168448
1832.000000	1.167535
1830.000000	1.167350
1828.000000	1.168090
1826.000000	1.167895
1824.000000	1.168539
1822.000000	1.168965
1820.000000	1.168839
1818.000000	1.168770
1816.000000	1.168931
1814.000000	1.168741
1812.000000	1.168432
1810.000000	1.168584
1808.000000	1.168918
1806.000000	1.168813
1804.000000	1.168377
1802.000000	1.167837
1800.000000	1.168184
1798.000000	1.168598
1796.000000	1.168020
1794.000000	1.166295
1792.000000	1.166883
1790.000000	1.168766
1788.000000	1.168745
1786.000000	1.168009
1784.000000	1.168308
1782.000000	1.168351
1780.000000	1.168513
1778.000000	1.168695
1776.000000	1.167598
1774.000000	1.165228
1772.000000	1.166006
1770.000000	1.167890
1768.000000	1.168213
1766.000000	1.169070
1764.000000	1.167967
1762.000000	1.167564
1760.000000	1.168624
1758.000000	1.168280
1756.000000	1.168643
1754.000000	1.167978
1752.000000	1.166113
1750.000000	1.167237
1748.000000	1.168525
1746.000000	1.168813
1744.000000	1.168612
1742.000000	1.167883
1740.000000	1.167752
1738.000000	1.168239
1736.000000	1.164338
1734.000000	1.164100
1732.000000	1.169038
1730.000000	1.170010
1728.000000	1.170154
1726.000000	1.170057
1724.000000	1.169992
1722.000000	1.169478
1720.000000	1.166104
1718.000000	1.163913
1716.000000	1.167487
1714.000000	1.169861
1712.000000	1.170431
1710.000000	1.169945
1708.000000	1.169170
1706.000000	1.168480
1704.000000	1.168252
1702.000000	1.163721
1700.000000	1.164097
1698.000000	1.165843
1696.000000	1.165750
1694.000000	1.170715
1692.000000	1.171226
1690.000000	1.170211
1688.000000	1.168358
1686.000000	1.163395
1684.000000	1.165486
1682.000000	1.170852
1680.000000	1.171029
1678.000000	1.169634
1676.000000	1.167953
1674.000000	1.169653
1672.000000	1.169213
1670.000000	1.168412
1668.000000	1.170704
1666.000000	1.171316
1664.000000	1.169774
1662.000000	1.170609
1660.000000	1.171806
1658.000000	1.170986
1656.000000	1.165609
1654.000000	1.159723
1652.000000	1.166655
1650.000000	1.171314
1648.000000	1.167745
1646.000000	1.168755
1644.000000	1.172093
1642.000000	1.172334
1640.000000	1.171342
1638.000000	1.168329
1636.000000	1.167053
1634.000000	1.171349
1632.000000	1.172882
1630.000000	1.171705
1628.000000	1.171270
1626.000000	1.170851
1624.000000	1.170146
1622.000000	1.171440
1620.000000	1.170697
1618.000000	1.167421
1616.000000	1.169467
1614.000000	1.172584
1612.000000	1.172051
1610.000000	1.172118
1608.000000	1.172761
1606.000000	1.173448
1604.000000	1.173510
1602.000000	1.173646
1600.000000	1.173675
1598.000000	1.173630
1596.000000	1.173433
1594.000000	1.173492
1592.000000	1.173524
1590.000000	1.173545
1588.000000	1.173491
1586.000000	1.173486
1584.000000	1.173555
1582.000000	1.173627
1580.000000	1.172655
1578.000000	1.169042
1576.000000	1.169415
1574.000000	1.173577
1572.000000	1.172160
1570.000000	1.171024
1568.000000	1.172666
1566.000000	1.172992
1564.000000	1.172071
1562.000000	1.167210
1560.000000	1.162028
1558.000000	1.167231
1556.000000	1.171463
1554.000000	1.172166
1552.000000	1.173163
1550.000000	1.173202
1548.000000	1.173053
1546.000000	1.171402
1544.000000	1.169244
1542.000000	1.165817
1540.000000	1.165747
1538.000000	1.171764
1536.000000	1.172832
1534.000000	1.171250
1532.000000	1.172941
1530.000000	1.173064
1528.000000	1.171694
1526.000000	1.170962
1524.000000	1.169370
1522.000000	1.167480
1520.000000	1.170166
1518.000000	1.171261
1516.000000	1.171784
1514.000000	1.172379
1512.000000	1.171903
1510.000000	1.169628
1508.000000	1.165017
1506.000000	1.167060
1504.000000	1.172217
1502.000000	1.171299
1500.000000	1.168165
1498.000000	1.166034
1496.000000	1.168651
1494.000000	1.173551
1492.000000	1.174477
1490.000000	1.174440
1488.000000	1.175060
1486.000000	1.175285
1484.000000	1.174951
1482.000000	1.174152
1480.000000	1.173802
1478.000000	1.172660
1476.000000	1.171073
1474.000000	1.169317
1472.000000	1.170863
1470.000000	1.173453
1468.000000	1.172932
1466.000000	1.171489
1464.000000	1.172342
1462.000000	1.172720
1460.000000	1.169270
1458.000000	1.165351
1456.000000	1.168384
1454.000000	1.172202
1452.000000	1.172751
1450.000000	1.173539
1448.000000	1.174053
1446.000000	1.174399
1444.000000	1.173830
1442.000000	1.173460
1440.000000	1.172330
1438.000000	1.169994
1436.000000	1.171163
1434.000000	1.173267
1432.000000	1.172541
1430.000000	1.172421
1428.000000	1.172928
1426.000000	1.172814
1424.000000	1.172401
1422.000000	1.171124
1420.000000	1.169327
1418.000000	1.171409
1416.000000	1.172919
1414.000000	1.172899
1412.000000	1.172550
1410.000000	1.172308
1408.000000	1.171788
1406.000000	1.171535
1404.000000	1.172294
1402.000000	1.172880
1400.000000	1.172379
1398.000000	1.172506
1396.000000	1.171911
1394.000000	1.172334
1392.000000	1.173088
1390.000000	1.172157
1388.000000	1.171189
1386.000000	1.172044
1384.000000	1.172838
1382.000000	1.173009
1380.000000	1.172725
1378.000000	1.172402
1376.000000	1.171844
1374.000000	1.171833
1372.000000	1.172309
1370.000000	1.172237
1368.000000	1.172215
1366.000000	1.172063
1364.000000	1.171343
1362.000000	1.171428
1360.000000	1.171958
1358.000000	1.172035
1356.000000	1.171863
1354.000000	1.171848
1352.000000	1.171821
1350.000000	1.171816
1348.000000	1.171747
1346.000000	1.171675
1344.000000	1.171608
1342.000000	1.171363
1340.000000	1.171095
1338.000000	1.171394
1336.000000	1.171634
1334.000000	1.171672
1332.000000	1.171535
1330.000000	1.171449
1328.000000	1.171375
1326.000000	1.171349
1324.000000	1.171212
1322.000000	1.171006
1320.000000	1.170775
1318.000000	1.170755
1316.000000	1.170754
1314.000000	1.170716
1312.000000	1.170663
1310.000000	1.170618
1308.000000	1.170516
1306.000000	1.170471
1304.000000	1.170420
1302.000000	1.170389
1300.000000	1.170318
1298.000000	1.170273
1296.000000	1.170243
1294.000000	1.170261
1292.000000	1.170221
1290.000000	1.170244
1288.000000	1.170209
1286.000000	1.170243
1284.000000	1.170146
1282.000000	1.170091
1280.000000	1.170122
1278.000000	1.170239
1276.000000	1.170281
1274.000000	1.170323
1272.000000	1.170421
1270.000000	1.170756
1268.000000	1.171300
1266.000000	1.172417
1264.000000	1.174378
1262.000000	1.176973
1260.000000	1.179085
1258.000000	1.179760
1256.000000	1.178732
1254.000000	1.176870
1252.000000	1.175103
1250.000000	1.174025
1248.000000	1.173560
1246.000000	1.173372
1244.000000	1.173398
1242.000000	1.173677
1240.000000	1.173878
1238.000000	1.174068
1236.000000	1.174330
1234.000000	1.174722
1232.000000	1.175045
1230.000000	1.175279
1228.000000	1.175464
1226.000000	1.175636
1224.000000	1.175813
1222.000000	1.176082
1220.000000	1.176220
1218.000000	1.176400
1216.000000	1.176695
1214.000000	1.177094
1212.000000	1.177380
1210.000000	1.177760
1208.000000	1.178161
1206.000000	1.178477
1204.000000	1.178595
1202.000000	1.178693
1200.000000	1.178953
1198.000000	1.179364
1196.000000	1.179629
1194.000000	1.179946
1192.000000	1.180186
1190.000000	1.180521
1188.000000	1.180890
1186.000000	1.181068
1184.000000	1.181095
1182.000000	1.181440
1180.000000	1.182454
1178.000000	1.183352
1176.000000	1.183430
1174.000000	1.183386
1172.000000	1.183672
1170.000000	1.184152
1168.000000	1.184482
1166.000000	1.184953
1164.000000	1.185406
1162.000000	1.185688
1160.000000	1.185990
1158.000000	1.186519
1156.000000	1.186848
1154.000000	1.187093
1152.000000	1.187473
1150.000000	1.187865
1148.000000	1.188065
1146.000000	1.188318
1144.000000	1.188554
1142.000000	1.189039
1140.000000	1.189454
1138.000000	1.189711
1136.000000	1.189704
1134.000000	1.189825
1132.000000	1.189943
1130.000000	1.190135
1128.000000	1.190469
1126.000000	1.190884
1124.000000	1.191055
1122.000000	1.191220
1120.000000	1.191349
1118.000000	1.191842
1116.000000	1.192456
1114.000000	1.192683
1112.000000	1.192711
1110.000000	1.193269
1108.000000	1.194005
1106.000000	1.194708
1104.000000	1.195328
1102.000000	1.195651
1100.000000	1.195751
1098.000000	1.196143
1096.000000	1.196649
1094.000000	1.197005
1092.000000	1.197031
1090.000000	1.197111
1088.000000	1.197264
1086.000000	1.197132
1084.000000	1.196727
1082.000000	1.196441
1080.000000	1.196174
1078.000000	1.196066
1076.000000	1.195844
1074.000000	1.195723
1072.000000	1.195386
1070.000000	1.194954
1068.000000	1.194694
1066.000000	1.194432
1064.000000	1.193761
1062.000000	1.193378
1060.000000	1.193012
1058.000000	1.192382
1056.000000	1.191182
1054.000000	1.189970
1052.000000	1.189726
1050.000000	1.190772
1048.000000	1.191956
1046.000000	1.191800
1044.000000	1.190190
1042.000000	1.189173
1040.000000	1.188381
1038.000000	1.187882
1036.000000	1.187844
1034.000000	1.187696
1032.000000	1.186897
1030.000000	1.185986
1028.000000	1.185568
1026.000000	1.185537
1024.000000	1.185115
1022.000000	1.184976
1020.000000	1.184825
1018.000000	1.184369
1016.000000	1.183327
1014.000000	1.182040
1012.000000	1.180713
1010.000000	1.179465
1008.000000	1.177641
1006.000000	1.175728
1004.000000	1.173537
1002.000000	1.171926
1000.000000	1.171022
