PE IR       SUBTECH     SPECTRUM    ASCII       PEDS        4.00        
   -1
TE108B2_021_112K.ASC
20/02/27
14:30:21.00
20/02/27
14:30:21.00
Administrator
Sample 021 By Administrator Date Thursday, February 27 2020
1500.000000
#HDR
-1
-1
#GR
cm-1
A
1.0
0.0
4000.000000
-1.000000
2501
8
0.851287
0.810661
#DATA
4000.000000	0.817597
3999.000000	0.817581
3998.000000	0.817584
3997.000000	0.817589
3996.000000	0.817583
3995.000000	0.817568
3994.000000	0.817557
3993.000000	0.817561
3992.000000	0.817575
3991.000000	0.817586
3990.000000	0.817582
3989.000000	0.817557
3988.000000	0.817518
3987.000000	0.817475
3986.000000	0.817439
3985.000000	0.817415
3984.000000	0.817406
3983.000000	0.817410
3982.000000	0.817421
3981.000000	0.817430
3980.000000	0.817428
3979.000000	0.817415
3978.000000	0.817398
3977.000000	0.817381
3976.000000	0.817368
3975.000000	0.817357
3974.000000	0.817344
3973.000000	0.817329
3972.000000	0.817309
3971.000000	0.817288
3970.000000	0.817273
3969.000000	0.817269
3968.000000	0.817272
3967.000000	0.817268
3966.000000	0.817244
3965.000000	0.817199
3964.000000	0.817144
3963.000000	0.817095
3962.000000	0.817063
3961.000000	0.817046
3960.000000	0.817036
3959.000000	0.817027
3958.000000	0.817017
3957.000000	0.817003
3956.000000	0.816982
3955.000000	0.816955
3954.000000	0.816925
3953.000000	0.816893
3952.000000	0.816859
3951.000000	0.816820
3950.000000	0.816775
3949.000000	0.816727
3948.000000	0.816678
3947.000000	0.816631
3946.000000	0.816586
3945.000000	0.816546
3944.000000	0.816511
3943.000000	0.816480
3942.000000	0.816454
3941.000000	0.816436
3940.000000	0.816428
3939.000000	0.816421
3938.000000	0.816406
3937.000000	0.816370
3936.000000	0.816312
3935.000000	0.816238
3934.000000	0.816161
3933.000000	0.816095
3932.000000	0.816046
3931.000000	0.816016
3930.000000	0.816000
3929.000000	0.815988
3928.000000	0.815967
3927.000000	0.815932
3926.000000	0.815888
3925.000000	0.815841
3924.000000	0.815794
3923.000000	0.815743
3922.000000	0.815684
3921.000000	0.815621
3920.000000	0.815558
3919.000000	0.815499
3918.000000	0.815447
3917.000000	0.815409
3916.000000	0.815391
3915.000000	0.815389
3914.000000	0.815385
3913.000000	0.815365
3912.000000	0.815324
3911.000000	0.815272
3910.000000	0.815220
3909.000000	0.815171
3908.000000	0.815114
3907.000000	0.815042
3906.000000	0.814958
3905.000000	0.814873
3904.000000	0.814798
3903.000000	0.814737
3902.000000	0.814690
3901.000000	0.814658
3900.000000	0.814643
3899.000000	0.814644
3898.000000	0.814656
3897.000000	0.814668
3896.000000	0.814669
3895.000000	0.814650
3894.000000	0.814608
3893.000000	0.814546
3892.000000	0.814474
3891.000000	0.814406
3890.000000	0.814355
3889.000000	0.814325
3888.000000	0.814308
3887.000000	0.814286
3886.000000	0.814245
3885.000000	0.814189
3884.000000	0.814133
3883.000000	0.814092
3882.000000	0.814069
3881.000000	0.814057
3880.000000	0.814044
3879.000000	0.814027
3878.000000	0.814006
3877.000000	0.813987
3876.000000	0.813967
3875.000000	0.813941
3874.000000	0.813904
3873.000000	0.813853
3872.000000	0.813789
3871.000000	0.813717
3870.000000	0.813647
3869.000000	0.813587
3868.000000	0.813543
3867.000000	0.813510
3866.000000	0.813484
3865.000000	0.813457
3864.000000	0.813429
3863.000000	0.813402
3862.000000	0.813384
3861.000000	0.813378
3860.000000	0.813377
3859.000000	0.813352
3858.000000	0.813267
3857.000000	0.813099
3856.000000	0.812863
3855.000000	0.812612
3854.000000	0.812418
3853.000000	0.812335
3852.000000	0.812375
3851.000000	0.812508
3850.000000	0.812675
3849.000000	0.812823
3848.000000	0.812921
3847.000000	0.812961
3846.000000	0.812954
3845.000000	0.812917
3844.000000	0.812863
3843.000000	0.812796
3842.000000	0.812713
3841.000000	0.812615
3840.000000	0.812509
3839.000000	0.812414
3838.000000	0.812351
3837.000000	0.812334
3836.000000	0.812355
3835.000000	0.812395
3834.000000	0.812431
3833.000000	0.812452
3832.000000	0.812457
3831.000000	0.812451
3830.000000	0.812435
3829.000000	0.812410
3828.000000	0.812377
3827.000000	0.812338
3826.000000	0.812294
3825.000000	0.812246
3824.000000	0.812188
3823.000000	0.812118
3822.000000	0.812039
3821.000000	0.811966
3820.000000	0.811913
3819.000000	0.811879
3818.000000	0.811853
3817.000000	0.811826
3816.000000	0.811800
3815.000000	0.811791
3814.000000	0.811812
3813.000000	0.811861
3812.000000	0.811917
3811.000000	0.811953
3810.000000	0.811949
3809.000000	0.811904
3808.000000	0.811837
3807.000000	0.811777
3806.000000	0.811740
3805.000000	0.811721
3804.000000	0.811699
3803.000000	0.811658
3802.000000	0.811605
3801.000000	0.811568
3800.000000	0.811573
3799.000000	0.811623
3798.000000	0.811692
3797.000000	0.811752
3796.000000	0.811790
3795.000000	0.811815
3794.000000	0.811837
3793.000000	0.811858
3792.000000	0.811872
3791.000000	0.811875
3790.000000	0.811869
3789.000000	0.811859
3788.000000	0.811850
3787.000000	0.811840
3786.000000	0.811829
3785.000000	0.811814
3784.000000	0.811790
3783.000000	0.811759
3782.000000	0.811726
3781.000000	0.811698
3780.000000	0.811680
3779.000000	0.811668
3778.000000	0.811657
3777.000000	0.811642
3776.000000	0.811629
3775.000000	0.811620
3774.000000	0.811613
3773.000000	0.811599
3772.000000	0.811570
3771.000000	0.811524
3770.000000	0.811472
3769.000000	0.811433
3768.000000	0.811421
3767.000000	0.811439
3766.000000	0.811471
3765.000000	0.811499
3764.000000	0.811509
3763.000000	0.811496
3762.000000	0.811467
3761.000000	0.811433
3760.000000	0.811402
3759.000000	0.811378
3758.000000	0.811359
3757.000000	0.811334
3756.000000	0.811292
3755.000000	0.811219
3754.000000	0.811108
3753.000000	0.810971
3752.000000	0.810834
3751.000000	0.810733
3750.000000	0.810695
3749.000000	0.810710
3748.000000	0.810742
3747.000000	0.810752
3746.000000	0.810724
3745.000000	0.810680
3744.000000	0.810661
3743.000000	0.810703
3742.000000	0.810808
3741.000000	0.810941
3740.000000	0.811052
3739.000000	0.811100
3738.000000	0.811081
3737.000000	0.811023
3736.000000	0.810966
3735.000000	0.810940
3734.000000	0.810952
3733.000000	0.810995
3732.000000	0.811056
3731.000000	0.811125
3730.000000	0.811187
3729.000000	0.811235
3728.000000	0.811263
3727.000000	0.811275
3726.000000	0.811274
3725.000000	0.811273
3724.000000	0.811280
3723.000000	0.811301
3722.000000	0.811328
3721.000000	0.811354
3720.000000	0.811377
3719.000000	0.811407
3718.000000	0.811448
3717.000000	0.811491
3716.000000	0.811520
3715.000000	0.811526
3714.000000	0.811512
3713.000000	0.811491
3712.000000	0.811477
3711.000000	0.811486
3710.000000	0.811538
3709.000000	0.811641
3708.000000	0.811785
3707.000000	0.811939
3706.000000	0.812074
3705.000000	0.812175
3704.000000	0.812251
3703.000000	0.812322
3702.000000	0.812411
3701.000000	0.812532
3700.000000	0.812683
3699.000000	0.812850
3698.000000	0.813005
3697.000000	0.813127
3696.000000	0.813212
3695.000000	0.813269
3694.000000	0.813309
3693.000000	0.813331
3692.000000	0.813327
3691.000000	0.813296
3690.000000	0.813262
3689.000000	0.813260
3688.000000	0.813322
3687.000000	0.813454
3686.000000	0.813634
3685.000000	0.813825
3684.000000	0.813999
3683.000000	0.814144
3682.000000	0.814263
3681.000000	0.814358
3680.000000	0.814426
3679.000000	0.814461
3678.000000	0.814466
3677.000000	0.814458
3676.000000	0.814469
3675.000000	0.814529
3674.000000	0.814651
3673.000000	0.814826
3672.000000	0.815021
3671.000000	0.815206
3670.000000	0.815371
3669.000000	0.815532
3668.000000	0.815716
3667.000000	0.815931
3666.000000	0.816160
3665.000000	0.816374
3664.000000	0.816549
3663.000000	0.816684
3662.000000	0.816794
3661.000000	0.816898
3660.000000	0.817005
3659.000000	0.817110
3658.000000	0.817209
3657.000000	0.817306
3656.000000	0.817409
3655.000000	0.817519
3654.000000	0.817623
3653.000000	0.817705
3652.000000	0.817757
3651.000000	0.817794
3650.000000	0.817848
3649.000000	0.817949
3648.000000	0.818110
3647.000000	0.818316
3646.000000	0.818536
3645.000000	0.818744
3644.000000	0.818925
3643.000000	0.819082
3642.000000	0.819218
3641.000000	0.819331
3640.000000	0.819416
3639.000000	0.819475
3638.000000	0.819524
3637.000000	0.819585
3636.000000	0.819671
3635.000000	0.819775
3634.000000	0.819877
3633.000000	0.819951
3632.000000	0.819989
3631.000000	0.820004
3630.000000	0.820029
3629.000000	0.820095
3628.000000	0.820214
3627.000000	0.820378
3626.000000	0.820561
3625.000000	0.820733
3624.000000	0.820872
3623.000000	0.820968
3622.000000	0.821027
3621.000000	0.821066
3620.000000	0.821104
3619.000000	0.821163
3618.000000	0.821251
3617.000000	0.821360
3616.000000	0.821470
3615.000000	0.821563
3614.000000	0.821635
3613.000000	0.821695
3612.000000	0.821757
3611.000000	0.821834
3610.000000	0.821928
3609.000000	0.822035
3608.000000	0.822148
3607.000000	0.822264
3606.000000	0.822383
3605.000000	0.822504
3604.000000	0.822622
3603.000000	0.822726
3602.000000	0.822815
3601.000000	0.822889
3600.000000	0.822951
3599.000000	0.823005
3598.000000	0.823059
3597.000000	0.823121
3596.000000	0.823196
3595.000000	0.823278
3594.000000	0.823359
3593.000000	0.823431
3592.000000	0.823494
3591.000000	0.823545
3590.000000	0.823588
3589.000000	0.823627
3588.000000	0.823668
3587.000000	0.823724
3586.000000	0.823803
3585.000000	0.823908
3584.000000	0.824031
3583.000000	0.824152
3582.000000	0.824257
3581.000000	0.824336
3580.000000	0.824395
3579.000000	0.824443
3578.000000	0.824489
3577.000000	0.824541
3576.000000	0.824602
3575.000000	0.824672
3574.000000	0.824738
3573.000000	0.824785
3572.000000	0.824803
3571.000000	0.824794
3570.000000	0.824780
3569.000000	0.824783
3568.000000	0.824817
3567.000000	0.824881
3566.000000	0.824962
3565.000000	0.825048
3564.000000	0.825133
3563.000000	0.825218
3562.000000	0.825300
3561.000000	0.825376
3560.000000	0.825441
3559.000000	0.825495
3558.000000	0.825545
3557.000000	0.825599
3556.000000	0.825664
3555.000000	0.825740
3554.000000	0.825819
3553.000000	0.825897
3552.000000	0.825968
3551.000000	0.826031
3550.000000	0.826084
3549.000000	0.826124
3548.000000	0.826154
3547.000000	0.826182
3546.000000	0.826220
3545.000000	0.826273
3544.000000	0.826344
3543.000000	0.826431
3542.000000	0.826528
3541.000000	0.826628
3540.000000	0.826715
3539.000000	0.826781
3538.000000	0.826830
3537.000000	0.826876
3536.000000	0.826932
3535.000000	0.827005
3534.000000	0.827089
3533.000000	0.827180
3532.000000	0.827275
3531.000000	0.827367
3530.000000	0.827451
3529.000000	0.827523
3528.000000	0.827593
3527.000000	0.827675
3526.000000	0.827774
3525.000000	0.827883
3524.000000	0.827993
3523.000000	0.828099
3522.000000	0.828203
3521.000000	0.828310
3520.000000	0.828417
3519.000000	0.828525
3518.000000	0.828633
3517.000000	0.828741
3516.000000	0.828851
3515.000000	0.828962
3514.000000	0.829079
3513.000000	0.829202
3512.000000	0.829325
3511.000000	0.829440
3510.000000	0.829549
3509.000000	0.829660
3508.000000	0.829784
3507.000000	0.829921
3506.000000	0.830065
3505.000000	0.830210
3504.000000	0.830354
3503.000000	0.830499
3502.000000	0.830639
3501.000000	0.830772
3500.000000	0.830894
3499.000000	0.831018
3498.000000	0.831155
3497.000000	0.831311
3496.000000	0.831474
3495.000000	0.831626
3494.000000	0.831757
3493.000000	0.831873
3492.000000	0.831990
3491.000000	0.832120
3490.000000	0.832265
3489.000000	0.832416
3488.000000	0.832564
3487.000000	0.832710
3486.000000	0.832860
3485.000000	0.833016
3484.000000	0.833170
3483.000000	0.833311
3482.000000	0.833438
3481.000000	0.833559
3480.000000	0.833683
3479.000000	0.833816
3478.000000	0.833962
3477.000000	0.834124
3476.000000	0.834301
3475.000000	0.834480
3474.000000	0.834651
3473.000000	0.834811
3472.000000	0.834968
3471.000000	0.835126
3470.000000	0.835285
3469.000000	0.835444
3468.000000	0.835599
3467.000000	0.835757
3466.000000	0.835920
3465.000000	0.836090
3464.000000	0.836264
3463.000000	0.836433
3462.000000	0.836591
3461.000000	0.836735
3460.000000	0.836868
3459.000000	0.836992
3458.000000	0.837113
3457.000000	0.837234
3456.000000	0.837365
3455.000000	0.837511
3454.000000	0.837672
3453.000000	0.837835
3452.000000	0.837985
3451.000000	0.838116
3450.000000	0.838237
3449.000000	0.838365
3448.000000	0.838505
3447.000000	0.838651
3446.000000	0.838792
3445.000000	0.838921
3444.000000	0.839040
3443.000000	0.839149
3442.000000	0.839252
3441.000000	0.839353
3440.000000	0.839459
3439.000000	0.839573
3438.000000	0.839697
3437.000000	0.839830
3436.000000	0.839965
3435.000000	0.840096
3434.000000	0.840220
3433.000000	0.840340
3432.000000	0.840463
3431.000000	0.840588
3430.000000	0.840708
3429.000000	0.840819
3428.000000	0.840926
3427.000000	0.841037
3426.000000	0.841152
3425.000000	0.841266
3424.000000	0.841375
3423.000000	0.841475
3422.000000	0.841572
3421.000000	0.841666
3420.000000	0.841760
3419.000000	0.841853
3418.000000	0.841945
3417.000000	0.842037
3416.000000	0.842127
3415.000000	0.842216
3414.000000	0.842306
3413.000000	0.842400
3412.000000	0.842493
3411.000000	0.842577
3410.000000	0.842641
3409.000000	0.842686
3408.000000	0.842726
3407.000000	0.842781
3406.000000	0.842854
3405.000000	0.842934
3404.000000	0.843004
3403.000000	0.843056
3402.000000	0.843094
3401.000000	0.843128
3400.000000	0.843169
3399.000000	0.843225
3398.000000	0.843301
3397.000000	0.843385
3396.000000	0.843458
3395.000000	0.843506
3394.000000	0.843533
3393.000000	0.843553
3392.000000	0.843580
3391.000000	0.843619
3390.000000	0.843668
3389.000000	0.843722
3388.000000	0.843780
3387.000000	0.843841
3386.000000	0.843903
3385.000000	0.843960
3384.000000	0.844003
3383.000000	0.844029
3382.000000	0.844049
3381.000000	0.844081
3380.000000	0.844130
3379.000000	0.844184
3378.000000	0.844221
3377.000000	0.844236
3376.000000	0.844240
3375.000000	0.844249
3374.000000	0.844269
3373.000000	0.844295
3372.000000	0.844315
3371.000000	0.844326
3370.000000	0.844334
3369.000000	0.844354
3368.000000	0.844392
3367.000000	0.844443
3366.000000	0.844493
3365.000000	0.844537
3364.000000	0.844579
3363.000000	0.844621
3362.000000	0.844662
3361.000000	0.844697
3360.000000	0.844727
3359.000000	0.844756
3358.000000	0.844785
3357.000000	0.844811
3356.000000	0.844836
3355.000000	0.844862
3354.000000	0.844889
3353.000000	0.844904
3352.000000	0.844903
3351.000000	0.844891
3350.000000	0.844887
3349.000000	0.844906
3348.000000	0.844948
3347.000000	0.845002
3346.000000	0.845051
3345.000000	0.845084
3344.000000	0.845099
3343.000000	0.845100
3342.000000	0.845096
3341.000000	0.845098
3340.000000	0.845115
3339.000000	0.845147
3338.000000	0.845188
3337.000000	0.845227
3336.000000	0.845255
3335.000000	0.845273
3334.000000	0.845295
3333.000000	0.845329
3332.000000	0.845374
3331.000000	0.845420
3330.000000	0.845454
3329.000000	0.845471
3328.000000	0.845477
3327.000000	0.845484
3326.000000	0.845503
3325.000000	0.845538
3324.000000	0.845583
3323.000000	0.845627
3322.000000	0.845661
3321.000000	0.845679
3320.000000	0.845681
3319.000000	0.845682
3318.000000	0.845698
3317.000000	0.845744
3316.000000	0.845818
3315.000000	0.845905
3314.000000	0.845983
3313.000000	0.846034
3312.000000	0.846059
3311.000000	0.846070
3310.000000	0.846082
3309.000000	0.846099
3308.000000	0.846118
3307.000000	0.846134
3306.000000	0.846151
3305.000000	0.846179
3304.000000	0.846221
3303.000000	0.846271
3302.000000	0.846317
3301.000000	0.846351
3300.000000	0.846376
3299.000000	0.846396
3298.000000	0.846417
3297.000000	0.846441
3296.000000	0.846472
3295.000000	0.846511
3294.000000	0.846547
3293.000000	0.846567
3292.000000	0.846573
3291.000000	0.846579
3290.000000	0.846602
3289.000000	0.846640
3288.000000	0.846682
3287.000000	0.846719
3286.000000	0.846752
3285.000000	0.846785
3284.000000	0.846823
3283.000000	0.846864
3282.000000	0.846905
3281.000000	0.846945
3280.000000	0.846979
3279.000000	0.847009
3278.000000	0.847036
3277.000000	0.847059
3276.000000	0.847077
3275.000000	0.847090
3274.000000	0.847105
3273.000000	0.847128
3272.000000	0.847162
3271.000000	0.847202
3270.000000	0.847240
3269.000000	0.847270
3268.000000	0.847293
3267.000000	0.847313
3266.000000	0.847330
3265.000000	0.847338
3264.000000	0.847335
3263.000000	0.847332
3262.000000	0.847347
3261.000000	0.847388
3260.000000	0.847447
3259.000000	0.847508
3258.000000	0.847562
3257.000000	0.847608
3256.000000	0.847646
3255.000000	0.847673
3254.000000	0.847683
3253.000000	0.847682
3252.000000	0.847682
3251.000000	0.847696
3250.000000	0.847727
3249.000000	0.847764
3248.000000	0.847795
3247.000000	0.847815
3246.000000	0.847834
3245.000000	0.847864
3244.000000	0.847899
3243.000000	0.847925
3242.000000	0.847931
3241.000000	0.847929
3240.000000	0.847934
3239.000000	0.847953
3238.000000	0.847974
3237.000000	0.847985
3236.000000	0.847987
3235.000000	0.847996
3234.000000	0.848027
3233.000000	0.848079
3232.000000	0.848133
3231.000000	0.848174
3230.000000	0.848197
3229.000000	0.848214
3228.000000	0.848235
3227.000000	0.848267
3226.000000	0.848304
3225.000000	0.848337
3224.000000	0.848358
3223.000000	0.848366
3222.000000	0.848372
3221.000000	0.848387
3220.000000	0.848417
3219.000000	0.848454
3218.000000	0.848489
3217.000000	0.848511
3216.000000	0.848518
3215.000000	0.848513
3214.000000	0.848505
3213.000000	0.848509
3212.000000	0.848531
3211.000000	0.848570
3210.000000	0.848617
3209.000000	0.848658
3208.000000	0.848689
3207.000000	0.848711
3206.000000	0.848727
3205.000000	0.848737
3204.000000	0.848741
3203.000000	0.848747
3202.000000	0.848759
3201.000000	0.848780
3200.000000	0.848803
3199.000000	0.848824
3198.000000	0.848846
3197.000000	0.848873
3196.000000	0.848902
3195.000000	0.848930
3194.000000	0.848950
3193.000000	0.848964
3192.000000	0.848975
3191.000000	0.848987
3190.000000	0.849001
3189.000000	0.849014
3188.000000	0.849022
3187.000000	0.849027
3186.000000	0.849036
3185.000000	0.849056
3184.000000	0.849090
3183.000000	0.849132
3182.000000	0.849174
3181.000000	0.849206
3180.000000	0.849220
3179.000000	0.849215
3178.000000	0.849205
3177.000000	0.849210
3176.000000	0.849240
3175.000000	0.849283
3174.000000	0.849315
3173.000000	0.849322
3172.000000	0.849310
3171.000000	0.849301
3170.000000	0.849315
3169.000000	0.849351
3168.000000	0.849393
3167.000000	0.849425
3166.000000	0.849439
3165.000000	0.849440
3164.000000	0.849437
3163.000000	0.849440
3162.000000	0.849459
3161.000000	0.849493
3160.000000	0.849534
3159.000000	0.849569
3158.000000	0.849595
3157.000000	0.849616
3156.000000	0.849637
3155.000000	0.849658
3154.000000	0.849672
3153.000000	0.849682
3152.000000	0.849691
3151.000000	0.849706
3150.000000	0.849727
3149.000000	0.849753
3148.000000	0.849779
3147.000000	0.849802
3146.000000	0.849825
3145.000000	0.849853
3144.000000	0.849883
3143.000000	0.849908
3142.000000	0.849922
3141.000000	0.849929
3140.000000	0.849936
3139.000000	0.849948
3138.000000	0.849966
3137.000000	0.849992
3136.000000	0.850026
3135.000000	0.850061
3134.000000	0.850088
3133.000000	0.850101
3132.000000	0.850110
3131.000000	0.850127
3130.000000	0.850159
3129.000000	0.850202
3128.000000	0.850246
3127.000000	0.850286
3126.000000	0.850316
3125.000000	0.850331
3124.000000	0.850334
3123.000000	0.850337
3122.000000	0.850351
3121.000000	0.850375
3120.000000	0.850397
3119.000000	0.850411
3118.000000	0.850422
3117.000000	0.850440
3116.000000	0.850469
3115.000000	0.850503
3114.000000	0.850539
3113.000000	0.850573
3112.000000	0.850605
3111.000000	0.850628
3110.000000	0.850639
3109.000000	0.850636
3108.000000	0.850628
3107.000000	0.850624
3106.000000	0.850635
3105.000000	0.850661
3104.000000	0.850695
3103.000000	0.850726
3102.000000	0.850754
3101.000000	0.850782
3100.000000	0.850812
3099.000000	0.850835
3098.000000	0.850842
3097.000000	0.850834
3096.000000	0.850824
3095.000000	0.850825
3094.000000	0.850836
3093.000000	0.850851
3092.000000	0.850863
3091.000000	0.850870
3090.000000	0.850875
3089.000000	0.850879
3088.000000	0.850885
3087.000000	0.850898
3086.000000	0.850919
3085.000000	0.850942
3084.000000	0.850959
3083.000000	0.850963
3082.000000	0.850955
3081.000000	0.850941
3080.000000	0.850925
3079.000000	0.850906
3078.000000	0.850885
3077.000000	0.850868
3076.000000	0.850862
3075.000000	0.850867
3074.000000	0.850876
3073.000000	0.850882
3072.000000	0.850886
3071.000000	0.850893
3070.000000	0.850907
3069.000000	0.850927
3068.000000	0.850949
3067.000000	0.850967
3066.000000	0.850973
3065.000000	0.850961
3064.000000	0.850931
3063.000000	0.850897
3062.000000	0.850877
3061.000000	0.850879
3060.000000	0.850892
3059.000000	0.850898
3058.000000	0.850899
3057.000000	0.850910
3056.000000	0.850938
3055.000000	0.850967
3054.000000	0.850970
3053.000000	0.850941
3052.000000	0.850900
3051.000000	0.850870
3050.000000	0.850858
3049.000000	0.850856
3048.000000	0.850857
3047.000000	0.850858
3046.000000	0.850851
3045.000000	0.850833
3044.000000	0.850812
3043.000000	0.850804
3042.000000	0.850818
3041.000000	0.850845
3040.000000	0.850866
3039.000000	0.850869
3038.000000	0.850848
3037.000000	0.850808
3036.000000	0.850761
3035.000000	0.850724
3034.000000	0.850709
3033.000000	0.850712
3032.000000	0.850719
3031.000000	0.850718
3030.000000	0.850706
3029.000000	0.850689
3028.000000	0.850675
3027.000000	0.850669
3026.000000	0.850665
3025.000000	0.850651
3024.000000	0.850622
3023.000000	0.850590
3022.000000	0.850572
3021.000000	0.850573
3020.000000	0.850577
3019.000000	0.850571
3018.000000	0.850553
3017.000000	0.850530
3016.000000	0.850507
3015.000000	0.850476
3014.000000	0.850437
3013.000000	0.850400
3012.000000	0.850375
3011.000000	0.850363
3010.000000	0.850354
3009.000000	0.850342
3008.000000	0.850337
3007.000000	0.850353
3006.000000	0.850396
3005.000000	0.850451
3004.000000	0.850497
3003.000000	0.850511
3002.000000	0.850480
3001.000000	0.850401
3000.000000	0.850287
2999.000000	0.850163
2998.000000	0.850063
2997.000000	0.850002
2996.000000	0.849971
2995.000000	0.849942
2994.000000	0.849903
2993.000000	0.849862
2992.000000	0.849836
2991.000000	0.849825
2990.000000	0.849813
2989.000000	0.849785
2988.000000	0.849743
2987.000000	0.849702
2986.000000	0.849674
2985.000000	0.849658
2984.000000	0.849649
2983.000000	0.849639
2982.000000	0.849624
2981.000000	0.849601
2980.000000	0.849575
2979.000000	0.849550
2978.000000	0.849532
2977.000000	0.849525
2976.000000	0.849524
2975.000000	0.849524
2974.000000	0.849516
2973.000000	0.849499
2972.000000	0.849481
2971.000000	0.849471
2970.000000	0.849471
2969.000000	0.849480
2968.000000	0.849492
2967.000000	0.849495
2966.000000	0.849482
2965.000000	0.849451
2964.000000	0.849415
2963.000000	0.849393
2962.000000	0.849394
2961.000000	0.849407
2960.000000	0.849412
2959.000000	0.849398
2958.000000	0.849361
2957.000000	0.849309
2956.000000	0.849255
2955.000000	0.849211
2954.000000	0.849177
2953.000000	0.849142
2952.000000	0.849104
2951.000000	0.849063
2950.000000	0.849027
2949.000000	0.848997
2948.000000	0.848973
2947.000000	0.848952
2946.000000	0.848932
2945.000000	0.848902
2944.000000	0.848857
2943.000000	0.848809
2942.000000	0.848781
2941.000000	0.848781
2940.000000	0.848796
2939.000000	0.848800
2938.000000	0.848780
2937.000000	0.848739
2936.000000	0.848690
2935.000000	0.848650
2934.000000	0.848625
2933.000000	0.848615
2932.000000	0.848604
2931.000000	0.848575
2930.000000	0.848525
2929.000000	0.848468
2928.000000	0.848423
2927.000000	0.848395
2926.000000	0.848371
2925.000000	0.848335
2924.000000	0.848285
2923.000000	0.848232
2922.000000	0.848190
2921.000000	0.848161
2920.000000	0.848135
2919.000000	0.848104
2918.000000	0.848064
2917.000000	0.848016
2916.000000	0.847961
2915.000000	0.847904
2914.000000	0.847855
2913.000000	0.847823
2912.000000	0.847810
2911.000000	0.847804
2910.000000	0.847785
2909.000000	0.847742
2908.000000	0.847675
2907.000000	0.847597
2906.000000	0.847522
2905.000000	0.847454
2904.000000	0.847397
2903.000000	0.847353
2902.000000	0.847325
2901.000000	0.847311
2900.000000	0.847297
2899.000000	0.847272
2898.000000	0.847236
2897.000000	0.847198
2896.000000	0.847164
2895.000000	0.847133
2894.000000	0.847101
2893.000000	0.847062
2892.000000	0.847014
2891.000000	0.846956
2890.000000	0.846893
2889.000000	0.846833
2888.000000	0.846778
2887.000000	0.846726
2886.000000	0.846673
2885.000000	0.846620
2884.000000	0.846574
2883.000000	0.846544
2882.000000	0.846533
2881.000000	0.846530
2880.000000	0.846516
2879.000000	0.846474
2878.000000	0.846410
2877.000000	0.846345
2876.000000	0.846294
2875.000000	0.846255
2874.000000	0.846221
2873.000000	0.846191
2872.000000	0.846167
2871.000000	0.846144
2870.000000	0.846106
2869.000000	0.846050
2868.000000	0.845989
2867.000000	0.845940
2866.000000	0.845910
2865.000000	0.845886
2864.000000	0.845856
2863.000000	0.845811
2862.000000	0.845750
2861.000000	0.845680
2860.000000	0.845611
2859.000000	0.845556
2858.000000	0.845519
2857.000000	0.845494
2856.000000	0.845466
2855.000000	0.845426
2854.000000	0.845373
2853.000000	0.845322
2852.000000	0.845289
2851.000000	0.845277
2850.000000	0.845273
2849.000000	0.845257
2848.000000	0.845224
2847.000000	0.845181
2846.000000	0.845141
2845.000000	0.845112
2844.000000	0.845091
2843.000000	0.845074
2842.000000	0.845054
2841.000000	0.845028
2840.000000	0.844998
2839.000000	0.844970
2838.000000	0.844950
2837.000000	0.844937
2836.000000	0.844926
2835.000000	0.844909
2834.000000	0.844880
2833.000000	0.844838
2832.000000	0.844790
2831.000000	0.844748
2830.000000	0.844726
2829.000000	0.844725
2828.000000	0.844731
2827.000000	0.844730
2826.000000	0.844710
2825.000000	0.844673
2824.000000	0.844622
2823.000000	0.844568
2822.000000	0.844518
2821.000000	0.844477
2820.000000	0.844442
2819.000000	0.844409
2818.000000	0.844380
2817.000000	0.844358
2816.000000	0.844341
2815.000000	0.844321
2814.000000	0.844295
2813.000000	0.844264
2812.000000	0.844228
2811.000000	0.844189
2810.000000	0.844154
2809.000000	0.844129
2808.000000	0.844114
2807.000000	0.844102
2806.000000	0.844087
2805.000000	0.844070
2804.000000	0.844052
2803.000000	0.844024
2802.000000	0.843984
2801.000000	0.843940
2800.000000	0.843906
2799.000000	0.843889
2798.000000	0.843882
2797.000000	0.843871
2796.000000	0.843851
2795.000000	0.843823
2794.000000	0.843795
2793.000000	0.843776
2792.000000	0.843765
2791.000000	0.843756
2790.000000	0.843740
2789.000000	0.843716
2788.000000	0.843687
2787.000000	0.843657
2786.000000	0.843628
2785.000000	0.843602
2784.000000	0.843586
2783.000000	0.843585
2782.000000	0.843588
2781.000000	0.843584
2780.000000	0.843565
2779.000000	0.843537
2778.000000	0.843504
2777.000000	0.843473
2776.000000	0.843449
2775.000000	0.843437
2774.000000	0.843433
2773.000000	0.843430
2772.000000	0.843422
2771.000000	0.843410
2770.000000	0.843395
2769.000000	0.843376
2768.000000	0.843352
2767.000000	0.843331
2766.000000	0.843320
2765.000000	0.843319
2764.000000	0.843321
2763.000000	0.843319
2762.000000	0.843312
2761.000000	0.843304
2760.000000	0.843299
2759.000000	0.843294
2758.000000	0.843283
2757.000000	0.843260
2756.000000	0.843226
2755.000000	0.843195
2754.000000	0.843179
2753.000000	0.843180
2752.000000	0.843186
2751.000000	0.843184
2750.000000	0.843170
2749.000000	0.843149
2748.000000	0.843132
2747.000000	0.843127
2746.000000	0.843130
2745.000000	0.843134
2744.000000	0.843134
2743.000000	0.843130
2742.000000	0.843125
2741.000000	0.843118
2740.000000	0.843108
2739.000000	0.843094
2738.000000	0.843082
2737.000000	0.843079
2736.000000	0.843084
2735.000000	0.843088
2734.000000	0.843089
2733.000000	0.843085
2732.000000	0.843079
2731.000000	0.843068
2730.000000	0.843054
2729.000000	0.843042
2728.000000	0.843039
2727.000000	0.843046
2726.000000	0.843056
2725.000000	0.843060
2724.000000	0.843059
2723.000000	0.843058
2722.000000	0.843056
2721.000000	0.843050
2720.000000	0.843035
2719.000000	0.843014
2718.000000	0.842991
2717.000000	0.842973
2716.000000	0.842965
2715.000000	0.842969
2714.000000	0.842983
2713.000000	0.842997
2712.000000	0.843004
2711.000000	0.843002
2710.000000	0.842992
2709.000000	0.842980
2708.000000	0.842968
2707.000000	0.842956
2706.000000	0.842947
2705.000000	0.842943
2704.000000	0.842947
2703.000000	0.842960
2702.000000	0.842976
2701.000000	0.842989
2700.000000	0.842994
2699.000000	0.842994
2698.000000	0.842992
2697.000000	0.842989
2696.000000	0.842988
2695.000000	0.842991
2694.000000	0.843001
2693.000000	0.843014
2692.000000	0.843023
2691.000000	0.843025
2690.000000	0.843021
2689.000000	0.843018
2688.000000	0.843021
2687.000000	0.843034
2686.000000	0.843055
2685.000000	0.843071
2684.000000	0.843073
2683.000000	0.843060
2682.000000	0.843044
2681.000000	0.843036
2680.000000	0.843037
2679.000000	0.843043
2678.000000	0.843051
2677.000000	0.843063
2676.000000	0.843083
2675.000000	0.843110
2674.000000	0.843138
2673.000000	0.843164
2672.000000	0.843188
2671.000000	0.843212
2670.000000	0.843235
2669.000000	0.843250
2668.000000	0.843254
2667.000000	0.843254
2666.000000	0.843259
2665.000000	0.843267
2664.000000	0.843274
2663.000000	0.843281
2662.000000	0.843296
2661.000000	0.843320
2660.000000	0.843346
2659.000000	0.843364
2658.000000	0.843372
2657.000000	0.843378
2656.000000	0.843391
2655.000000	0.843416
2654.000000	0.843453
2653.000000	0.843490
2652.000000	0.843516
2651.000000	0.843526
2650.000000	0.843527
2649.000000	0.843534
2648.000000	0.843554
2647.000000	0.843582
2646.000000	0.843609
2645.000000	0.843631
2644.000000	0.843646
2643.000000	0.843659
2642.000000	0.843669
2641.000000	0.843678
2640.000000	0.843691
2639.000000	0.843704
2638.000000	0.843714
2637.000000	0.843719
2636.000000	0.843726
2635.000000	0.843745
2634.000000	0.843777
2633.000000	0.843815
2632.000000	0.843851
2631.000000	0.843884
2630.000000	0.843911
2629.000000	0.843927
2628.000000	0.843931
2627.000000	0.843932
2626.000000	0.843948
2625.000000	0.843983
2624.000000	0.844030
2623.000000	0.844073
2622.000000	0.844103
2621.000000	0.844117
2620.000000	0.844119
2619.000000	0.844119
2618.000000	0.844127
2617.000000	0.844147
2616.000000	0.844175
2615.000000	0.844204
2614.000000	0.844229
2613.000000	0.844249
2612.000000	0.844265
2611.000000	0.844282
2610.000000	0.844302
2609.000000	0.844324
2608.000000	0.844340
2607.000000	0.844348
2606.000000	0.844355
2605.000000	0.844371
2604.000000	0.844397
2603.000000	0.844424
2602.000000	0.844447
2601.000000	0.844468
2600.000000	0.844491
2599.000000	0.844519
2598.000000	0.844545
2597.000000	0.844569
2596.000000	0.844587
2595.000000	0.844599
2594.000000	0.844606
2593.000000	0.844614
2592.000000	0.844632
2591.000000	0.844665
2590.000000	0.844703
2589.000000	0.844732
2588.000000	0.844745
2587.000000	0.844750
2586.000000	0.844761
2585.000000	0.844791
2584.000000	0.844838
2583.000000	0.844891
2582.000000	0.844932
2581.000000	0.844949
2580.000000	0.844949
2579.000000	0.844951
2578.000000	0.844966
2577.000000	0.844991
2576.000000	0.845015
2575.000000	0.845033
2574.000000	0.845051
2573.000000	0.845075
2572.000000	0.845106
2571.000000	0.845138
2570.000000	0.845164
2569.000000	0.845182
2568.000000	0.845199
2567.000000	0.845226
2566.000000	0.845265
2565.000000	0.845306
2564.000000	0.845343
2563.000000	0.845373
2562.000000	0.845395
2561.000000	0.845408
2560.000000	0.845417
2559.000000	0.845434
2558.000000	0.845471
2557.000000	0.845518
2556.000000	0.845556
2555.000000	0.845576
2554.000000	0.845588
2553.000000	0.845604
2552.000000	0.845631
2551.000000	0.845672
2550.000000	0.845723
2549.000000	0.845778
2548.000000	0.845823
2547.000000	0.845848
2546.000000	0.845860
2545.000000	0.845871
2544.000000	0.845890
2543.000000	0.845914
2542.000000	0.845930
2541.000000	0.845936
2540.000000	0.845940
2539.000000	0.845952
2538.000000	0.845977
2537.000000	0.846008
2536.000000	0.846036
2535.000000	0.846066
2534.000000	0.846104
2533.000000	0.846147
2532.000000	0.846186
2531.000000	0.846211
2530.000000	0.846224
2529.000000	0.846236
2528.000000	0.846260
2527.000000	0.846298
2526.000000	0.846345
2525.000000	0.846386
2524.000000	0.846412
2523.000000	0.846425
2522.000000	0.846434
2521.000000	0.846447
2520.000000	0.846462
2519.000000	0.846475
2518.000000	0.846491
2517.000000	0.846519
2516.000000	0.846561
2515.000000	0.846608
2514.000000	0.846648
2513.000000	0.846679
2512.000000	0.846707
2511.000000	0.846738
2510.000000	0.846771
2509.000000	0.846802
2508.000000	0.846825
2507.000000	0.846843
2506.000000	0.846863
2505.000000	0.846890
2504.000000	0.846925
2503.000000	0.846959
2502.000000	0.846985
2501.000000	0.846997
2500.000000	0.847001
2499.000000	0.847007
2498.000000	0.847024
2497.000000	0.847053
2496.000000	0.847090
2495.000000	0.847136
2494.000000	0.847188
2493.000000	0.847240
2492.000000	0.847275
2491.000000	0.847286
2490.000000	0.847280
2489.000000	0.847274
2488.000000	0.847285
2487.000000	0.847317
2486.000000	0.847363
2485.000000	0.847407
2484.000000	0.847439
2483.000000	0.847466
2482.000000	0.847498
2481.000000	0.847537
2480.000000	0.847573
2479.000000	0.847598
2478.000000	0.847615
2477.000000	0.847636
2476.000000	0.847667
2475.000000	0.847702
2474.000000	0.847730
2473.000000	0.847744
2472.000000	0.847750
2471.000000	0.847768
2470.000000	0.847807
2469.000000	0.847857
2468.000000	0.847901
2467.000000	0.847934
2466.000000	0.847961
2465.000000	0.847989
2464.000000	0.848019
2463.000000	0.848045
2462.000000	0.848068
2461.000000	0.848089
2460.000000	0.848108
2459.000000	0.848122
2458.000000	0.848133
2457.000000	0.848148
2456.000000	0.848172
2455.000000	0.848202
2454.000000	0.848233
2453.000000	0.848261
2452.000000	0.848284
2451.000000	0.848301
2450.000000	0.848311
2449.000000	0.848318
2448.000000	0.848331
2447.000000	0.848354
2446.000000	0.848381
2445.000000	0.848396
2444.000000	0.848398
2443.000000	0.848395
2442.000000	0.848397
2441.000000	0.848400
2440.000000	0.848395
2439.000000	0.848386
2438.000000	0.848387
2437.000000	0.848404
2436.000000	0.848424
2435.000000	0.848425
2434.000000	0.848404
2433.000000	0.848374
2432.000000	0.848349
2431.000000	0.848332
2430.000000	0.848322
2429.000000	0.848317
2428.000000	0.848317
2427.000000	0.848321
2426.000000	0.848327
2425.000000	0.848328
2424.000000	0.848318
2423.000000	0.848295
2422.000000	0.848266
2421.000000	0.848238
2420.000000	0.848221
2419.000000	0.848216
2418.000000	0.848218
2417.000000	0.848215
2416.000000	0.848200
2415.000000	0.848174
2414.000000	0.848150
2413.000000	0.848132
2412.000000	0.848113
2411.000000	0.848085
2410.000000	0.848047
2409.000000	0.848010
2408.000000	0.847987
2407.000000	0.847982
2406.000000	0.847991
2405.000000	0.848001
2404.000000	0.847999
2403.000000	0.847981
2402.000000	0.847949
2401.000000	0.847912
2400.000000	0.847884
2399.000000	0.847881
2398.000000	0.847904
2397.000000	0.847938
2396.000000	0.847955
2395.000000	0.847941
2394.000000	0.847906
2393.000000	0.847871
2392.000000	0.847853
2391.000000	0.847849
2390.000000	0.847850
2389.000000	0.847846
2388.000000	0.847836
2387.000000	0.847825
2386.000000	0.847818
2385.000000	0.847815
2384.000000	0.847817
2383.000000	0.847820
2382.000000	0.847815
2381.000000	0.847794
2380.000000	0.847758
2379.000000	0.847723
2378.000000	0.847699
2377.000000	0.847677
2376.000000	0.847640
2375.000000	0.847586
2374.000000	0.847529
2373.000000	0.847474
2372.000000	0.847414
2371.000000	0.847348
2370.000000	0.847291
2369.000000	0.847254
2368.000000	0.847231
2367.000000	0.847200
2366.000000	0.847156
2365.000000	0.847108
2364.000000	0.847071
2363.000000	0.847051
2362.000000	0.847048
2361.000000	0.847062
2360.000000	0.847089
2359.000000	0.847118
2358.000000	0.847144
2357.000000	0.847173
2356.000000	0.847217
2355.000000	0.847281
2354.000000	0.847356
2353.000000	0.847433
2352.000000	0.847513
2351.000000	0.847610
2350.000000	0.847736
2349.000000	0.847893
2348.000000	0.848077
2347.000000	0.848292
2346.000000	0.848554
2345.000000	0.848890
2344.000000	0.849318
2343.000000	0.849835
2342.000000	0.850395
2341.000000	0.850900
2340.000000	0.851226
2339.000000	0.851282
2338.000000	0.851065
2337.000000	0.850653
2336.000000	0.850161
2335.000000	0.849690
2334.000000	0.849301
2333.000000	0.849019
2332.000000	0.848843
2331.000000	0.848745
2330.000000	0.848689
2329.000000	0.848646
2328.000000	0.848604
2327.000000	0.848576
2326.000000	0.848576
2325.000000	0.848606
2324.000000	0.848648
2323.000000	0.848681
2322.000000	0.848697
2321.000000	0.848703
2320.000000	0.848711
2319.000000	0.848728
2318.000000	0.848750
2317.000000	0.848767
2316.000000	0.848775
2315.000000	0.848784
2314.000000	0.848807
2313.000000	0.848848
2312.000000	0.848896
2311.000000	0.848940
2310.000000	0.848977
2309.000000	0.849006
2308.000000	0.849028
2307.000000	0.849042
2306.000000	0.849055
2305.000000	0.849074
2304.000000	0.849096
2303.000000	0.849114
2302.000000	0.849128
2301.000000	0.849144
2300.000000	0.849164
2299.000000	0.849184
2298.000000	0.849198
2297.000000	0.849211
2296.000000	0.849231
2295.000000	0.849258
2294.000000	0.849282
2293.000000	0.849294
2292.000000	0.849294
2291.000000	0.849291
2290.000000	0.849300
2289.000000	0.849320
2288.000000	0.849345
2287.000000	0.849370
2286.000000	0.849399
2285.000000	0.849434
2284.000000	0.849468
2283.000000	0.849493
2282.000000	0.849505
2281.000000	0.849513
2280.000000	0.849530
2279.000000	0.849565
2278.000000	0.849615
2277.000000	0.849666
2276.000000	0.849705
2275.000000	0.849729
2274.000000	0.849743
2273.000000	0.849754
2272.000000	0.849761
2271.000000	0.849765
2270.000000	0.849767
2269.000000	0.849775
2268.000000	0.849790
2267.000000	0.849811
2266.000000	0.849834
2265.000000	0.849857
2264.000000	0.849875
2263.000000	0.849884
2262.000000	0.849887
2261.000000	0.849891
2260.000000	0.849905
2259.000000	0.849930
2258.000000	0.849959
2257.000000	0.849980
2256.000000	0.849983
2255.000000	0.849966
2254.000000	0.849943
2253.000000	0.849931
2252.000000	0.849937
2251.000000	0.849957
2250.000000	0.849983
2249.000000	0.850006
2248.000000	0.850026
2247.000000	0.850044
2246.000000	0.850062
2245.000000	0.850081
2244.000000	0.850097
2243.000000	0.850112
2242.000000	0.850125
2241.000000	0.850137
2240.000000	0.850145
2239.000000	0.850149
2238.000000	0.850157
2237.000000	0.850170
2236.000000	0.850184
2235.000000	0.850190
2234.000000	0.850190
2233.000000	0.850192
2232.000000	0.850202
2231.000000	0.850216
2230.000000	0.850232
2229.000000	0.850248
2228.000000	0.850262
2227.000000	0.850267
2226.000000	0.850262
2225.000000	0.850255
2224.000000	0.850250
2223.000000	0.850247
2222.000000	0.850243
2221.000000	0.850243
2220.000000	0.850247
2219.000000	0.850250
2218.000000	0.850246
2217.000000	0.850236
2216.000000	0.850230
2215.000000	0.850234
2214.000000	0.850243
2213.000000	0.850250
2212.000000	0.850252
2211.000000	0.850248
2210.000000	0.850238
2209.000000	0.850226
2208.000000	0.850220
2207.000000	0.850221
2206.000000	0.850225
2205.000000	0.850223
2204.000000	0.850214
2203.000000	0.850200
2202.000000	0.850181
2201.000000	0.850159
2200.000000	0.850140
2199.000000	0.850130
2198.000000	0.850129
2197.000000	0.850124
2196.000000	0.850107
2195.000000	0.850082
2194.000000	0.850060
2193.000000	0.850049
2192.000000	0.850043
2191.000000	0.850036
2190.000000	0.850024
2189.000000	0.850010
2188.000000	0.850000
2187.000000	0.850000
2186.000000	0.850006
2185.000000	0.850012
2184.000000	0.850010
2183.000000	0.849994
2182.000000	0.849969
2181.000000	0.849939
2180.000000	0.849906
2179.000000	0.849873
2178.000000	0.849847
2177.000000	0.849833
2176.000000	0.849833
2175.000000	0.849840
2174.000000	0.849841
2173.000000	0.849827
2172.000000	0.849798
2171.000000	0.849760
2170.000000	0.849721
2169.000000	0.849689
2168.000000	0.849665
2167.000000	0.849650
2166.000000	0.849641
2165.000000	0.849634
2164.000000	0.849624
2163.000000	0.849611
2162.000000	0.849597
2161.000000	0.849582
2160.000000	0.849563
2159.000000	0.849536
2158.000000	0.849495
2157.000000	0.849446
2156.000000	0.849401
2155.000000	0.849375
2154.000000	0.849368
2153.000000	0.849366
2152.000000	0.849351
2151.000000	0.849317
2150.000000	0.849270
2149.000000	0.849219
2148.000000	0.849173
2147.000000	0.849139
2146.000000	0.849121
2145.000000	0.849115
2144.000000	0.849104
2143.000000	0.849075
2142.000000	0.849027
2141.000000	0.848972
2140.000000	0.848924
2139.000000	0.848891
2138.000000	0.848876
2137.000000	0.848871
2136.000000	0.848858
2135.000000	0.848823
2134.000000	0.848767
2133.000000	0.848703
2132.000000	0.848647
2131.000000	0.848608
2130.000000	0.848588
2129.000000	0.848583
2128.000000	0.848578
2127.000000	0.848559
2126.000000	0.848521
2125.000000	0.848468
2124.000000	0.848414
2123.000000	0.848367
2122.000000	0.848333
2121.000000	0.848312
2120.000000	0.848295
2119.000000	0.848269
2118.000000	0.848228
2117.000000	0.848177
2116.000000	0.848130
2115.000000	0.848093
2114.000000	0.848063
2113.000000	0.848035
2112.000000	0.848006
2111.000000	0.847980
2110.000000	0.847960
2109.000000	0.847939
2108.000000	0.847909
2107.000000	0.847865
2106.000000	0.847808
2105.000000	0.847743
2104.000000	0.847681
2103.000000	0.847632
2102.000000	0.847606
2101.000000	0.847595
2100.000000	0.847583
2099.000000	0.847554
2098.000000	0.847513
2097.000000	0.847474
2096.000000	0.847444
2095.000000	0.847417
2094.000000	0.847384
2093.000000	0.847340
2092.000000	0.847294
2091.000000	0.847253
2090.000000	0.847221
2089.000000	0.847192
2088.000000	0.847155
2087.000000	0.847108
2086.000000	0.847058
2085.000000	0.847014
2084.000000	0.846983
2083.000000	0.846964
2082.000000	0.846946
2081.000000	0.846918
2080.000000	0.846875
2079.000000	0.846820
2078.000000	0.846767
2077.000000	0.846725
2076.000000	0.846690
2075.000000	0.846655
2074.000000	0.846617
2073.000000	0.846577
2072.000000	0.846537
2071.000000	0.846496
2070.000000	0.846455
2069.000000	0.846413
2068.000000	0.846370
2067.000000	0.846324
2066.000000	0.846281
2065.000000	0.846247
2064.000000	0.846221
2063.000000	0.846198
2062.000000	0.846171
2061.000000	0.846135
2060.000000	0.846092
2059.000000	0.846044
2058.000000	0.845994
2057.000000	0.845942
2056.000000	0.845889
2055.000000	0.845838
2054.000000	0.845795
2053.000000	0.845762
2052.000000	0.845735
2051.000000	0.845711
2050.000000	0.845685
2049.000000	0.845655
2048.000000	0.845615
2047.000000	0.845565
2046.000000	0.845506
2045.000000	0.845443
2044.000000	0.845379
2043.000000	0.845324
2042.000000	0.845286
2041.000000	0.845263
2040.000000	0.845241
2039.000000	0.845211
2038.000000	0.845175
2037.000000	0.845142
2036.000000	0.845114
2035.000000	0.845085
2034.000000	0.845055
2033.000000	0.845024
2032.000000	0.844993
2031.000000	0.844958
2030.000000	0.844917
2029.000000	0.844873
2028.000000	0.844831
2027.000000	0.844792
2026.000000	0.844757
2025.000000	0.844718
2024.000000	0.844669
2023.000000	0.844613
2022.000000	0.844564
2021.000000	0.844529
2020.000000	0.844503
2019.000000	0.844477
2018.000000	0.844450
2017.000000	0.844421
2016.000000	0.844387
2015.000000	0.844345
2014.000000	0.844301
2013.000000	0.844261
2012.000000	0.844225
2011.000000	0.844186
2010.000000	0.844145
2009.000000	0.844112
2008.000000	0.844095
2007.000000	0.844096
2006.000000	0.844111
2005.000000	0.844133
2004.000000	0.844151
2003.000000	0.844156
2002.000000	0.844141
2001.000000	0.844108
2000.000000	0.844053
1999.000000	0.843974
1998.000000	0.843886
1997.000000	0.843807
1996.000000	0.843750
1995.000000	0.843708
1994.000000	0.843673
1993.000000	0.843647
1992.000000	0.843631
1991.000000	0.843618
1990.000000	0.843598
1989.000000	0.843567
1988.000000	0.843527
1987.000000	0.843486
1986.000000	0.843454
1985.000000	0.843436
1984.000000	0.843431
1983.000000	0.843429
1982.000000	0.843422
1981.000000	0.843405
1980.000000	0.843382
1979.000000	0.843354
1978.000000	0.843326
1977.000000	0.843307
1976.000000	0.843295
1975.000000	0.843282
1974.000000	0.843263
1973.000000	0.843238
1972.000000	0.843212
1971.000000	0.843179
1970.000000	0.843138
1969.000000	0.843095
1968.000000	0.843063
1967.000000	0.843050
1966.000000	0.843052
1965.000000	0.843058
1964.000000	0.843060
1963.000000	0.843054
1962.000000	0.843044
1961.000000	0.843037
1960.000000	0.843036
1959.000000	0.843036
1958.000000	0.843033
1957.000000	0.843026
1956.000000	0.843019
1955.000000	0.843013
1954.000000	0.843005
1953.000000	0.842992
1952.000000	0.842971
1951.000000	0.842947
1950.000000	0.842926
1949.000000	0.842914
1948.000000	0.842911
1947.000000	0.842905
1946.000000	0.842884
1945.000000	0.842847
1944.000000	0.842807
1943.000000	0.842784
1942.000000	0.842783
1941.000000	0.842794
1940.000000	0.842798
1939.000000	0.842791
1938.000000	0.842781
1937.000000	0.842779
1936.000000	0.842785
1935.000000	0.842791
1934.000000	0.842794
1933.000000	0.842798
1932.000000	0.842802
1931.000000	0.842802
1930.000000	0.842797
1929.000000	0.842794
1928.000000	0.842799
1927.000000	0.842808
1926.000000	0.842813
1925.000000	0.842810
1924.000000	0.842802
1923.000000	0.842791
1922.000000	0.842779
1921.000000	0.842761
1920.000000	0.842737
1919.000000	0.842710
1918.000000	0.842696
1917.000000	0.842705
1916.000000	0.842736
1915.000000	0.842772
1914.000000	0.842800
1913.000000	0.842812
1912.000000	0.842810
1911.000000	0.842799
1910.000000	0.842787
1909.000000	0.842784
1908.000000	0.842797
1907.000000	0.842819
1906.000000	0.842838
1905.000000	0.842844
1904.000000	0.842838
1903.000000	0.842827
1902.000000	0.842823
1901.000000	0.842833
1900.000000	0.842851
1899.000000	0.842867
1898.000000	0.842873
1897.000000	0.842874
1896.000000	0.842873
1895.000000	0.842872
1894.000000	0.842869
1893.000000	0.842861
1892.000000	0.842846
1891.000000	0.842830
1890.000000	0.842824
1889.000000	0.842836
1888.000000	0.842864
1887.000000	0.842893
1886.000000	0.842914
1885.000000	0.842932
1884.000000	0.842955
1883.000000	0.842982
1882.000000	0.843001
1881.000000	0.843009
1880.000000	0.843004
1879.000000	0.842990
1878.000000	0.842972
1877.000000	0.842961
1876.000000	0.842970
1875.000000	0.842997
1874.000000	0.843032
1873.000000	0.843053
1872.000000	0.843047
1871.000000	0.843013
1870.000000	0.842970
1869.000000	0.842948
1868.000000	0.842966
1867.000000	0.843015
1866.000000	0.843073
1865.000000	0.843117
1864.000000	0.843141
1863.000000	0.843143
1862.000000	0.843134
1861.000000	0.843125
1860.000000	0.843125
1859.000000	0.843132
1858.000000	0.843138
1857.000000	0.843140
1856.000000	0.843140
1855.000000	0.843140
1854.000000	0.843144
1853.000000	0.843155
1852.000000	0.843178
1851.000000	0.843207
1850.000000	0.843229
1849.000000	0.843232
1848.000000	0.843213
1847.000000	0.843172
1846.000000	0.843121
1845.000000	0.843085
1844.000000	0.843098
1843.000000	0.843173
1842.000000	0.843282
1841.000000	0.843376
1840.000000	0.843426
1839.000000	0.843442
1838.000000	0.843456
1837.000000	0.843485
1836.000000	0.843519
1835.000000	0.843543
1834.000000	0.843546
1833.000000	0.843531
1832.000000	0.843503
1831.000000	0.843478
1830.000000	0.843475
1829.000000	0.843499
1828.000000	0.843538
1827.000000	0.843575
1826.000000	0.843611
1825.000000	0.843657
1824.000000	0.843720
1823.000000	0.843786
1822.000000	0.843839
1821.000000	0.843875
1820.000000	0.843904
1819.000000	0.843936
1818.000000	0.843969
1817.000000	0.844000
1816.000000	0.844028
1815.000000	0.844051
1814.000000	0.844070
1813.000000	0.844080
1812.000000	0.844082
1811.000000	0.844085
1810.000000	0.844107
1809.000000	0.844156
1808.000000	0.844222
1807.000000	0.844280
1806.000000	0.844315
1805.000000	0.844327
1804.000000	0.844327
1803.000000	0.844319
1802.000000	0.844309
1801.000000	0.844304
1800.000000	0.844318
1799.000000	0.844353
1798.000000	0.844398
1797.000000	0.844432
1796.000000	0.844432
1795.000000	0.844394
1794.000000	0.844343
1793.000000	0.844318
1792.000000	0.844351
1791.000000	0.844437
1790.000000	0.844542
1789.000000	0.844632
1788.000000	0.844685
1787.000000	0.844701
1786.000000	0.844701
1785.000000	0.844711
1784.000000	0.844743
1783.000000	0.844785
1782.000000	0.844825
1781.000000	0.844864
1780.000000	0.844913
1779.000000	0.844974
1778.000000	0.845034
1777.000000	0.845079
1776.000000	0.845092
1775.000000	0.845064
1774.000000	0.845006
1773.000000	0.844964
1772.000000	0.844983
1771.000000	0.845063
1770.000000	0.845165
1769.000000	0.845255
1768.000000	0.845341
1767.000000	0.845446
1766.000000	0.845558
1765.000000	0.845636
1764.000000	0.845656
1763.000000	0.845642
1762.000000	0.845643
1761.000000	0.845689
1760.000000	0.845766
1759.000000	0.845845
1758.000000	0.845906
1757.000000	0.845957
1756.000000	0.846012
1755.000000	0.846066
1754.000000	0.846094
1753.000000	0.846087
1752.000000	0.846066
1751.000000	0.846074
1750.000000	0.846128
1749.000000	0.846212
1748.000000	0.846297
1747.000000	0.846374
1746.000000	0.846447
1745.000000	0.846514
1744.000000	0.846571
1743.000000	0.846612
1742.000000	0.846641
1741.000000	0.846665
1740.000000	0.846704
1739.000000	0.846764
1738.000000	0.846812
1737.000000	0.846789
1736.000000	0.846674
1735.000000	0.846534
1734.000000	0.846488
1733.000000	0.846596
1732.000000	0.846810
1731.000000	0.847033
1730.000000	0.847211
1729.000000	0.847344
1728.000000	0.847449
1727.000000	0.847530
1726.000000	0.847592
1725.000000	0.847645
1724.000000	0.847698
1723.000000	0.847748
1722.000000	0.847775
1721.000000	0.847744
1720.000000	0.847632
1719.000000	0.847470
1718.000000	0.847347
1717.000000	0.847348
1716.000000	0.847474
1715.000000	0.847658
1714.000000	0.847840
1713.000000	0.848003
1712.000000	0.848142
1711.000000	0.848240
1710.000000	0.848283
1709.000000	0.848286
1708.000000	0.848272
1707.000000	0.848259
1706.000000	0.848266
1705.000000	0.848298
1704.000000	0.848314
1703.000000	0.848242
1702.000000	0.848066
1701.000000	0.847888
1700.000000	0.847834
1699.000000	0.847913
1698.000000	0.848019
1697.000000	0.848076
1696.000000	0.848130
1695.000000	0.848273
1694.000000	0.848510
1693.000000	0.848749
1692.000000	0.848898
1691.000000	0.848949
1690.000000	0.848952
1689.000000	0.848937
1688.000000	0.848881
1687.000000	0.848747
1686.000000	0.848559
1685.000000	0.848418
1684.000000	0.848425
1683.000000	0.848593
1682.000000	0.848832
1681.000000	0.849041
1680.000000	0.849175
1679.000000	0.849237
1678.000000	0.849235
1677.000000	0.849181
1676.000000	0.849118
1675.000000	0.849105
1674.000000	0.849156
1673.000000	0.849222
1672.000000	0.849242
1671.000000	0.849212
1670.000000	0.849182
1669.000000	0.849211
1668.000000	0.849305
1667.000000	0.849426
1666.000000	0.849518
1665.000000	0.849553
1664.000000	0.849543
1663.000000	0.849527
1662.000000	0.849543
1661.000000	0.849598
1660.000000	0.849670
1659.000000	0.849732
1658.000000	0.849749
1657.000000	0.849674
1656.000000	0.849459
1655.000000	0.849125
1654.000000	0.848804
1653.000000	0.848682
1652.000000	0.848843
1651.000000	0.849178
1650.000000	0.849481
1649.000000	0.849615
1648.000000	0.849594
1647.000000	0.849536
1646.000000	0.849548
1645.000000	0.849660
1644.000000	0.849825
1643.000000	0.849972
1642.000000	0.850053
1641.000000	0.850066
1640.000000	0.850036
1639.000000	0.849971
1638.000000	0.849862
1637.000000	0.849722
1636.000000	0.849622
1635.000000	0.849635
1634.000000	0.849768
1633.000000	0.849949
1632.000000	0.850094
1631.000000	0.850166
1630.000000	0.850177
1629.000000	0.850156
1628.000000	0.850123
1627.000000	0.850085
1626.000000	0.850044
1625.000000	0.850000
1624.000000	0.849962
1623.000000	0.849952
1622.000000	0.849978
1621.000000	0.850013
1620.000000	0.850003
1619.000000	0.849917
1618.000000	0.849796
1617.000000	0.849736
1616.000000	0.849811
1615.000000	0.849999
1614.000000	0.850204
1613.000000	0.850341
1612.000000	0.850393
1611.000000	0.850401
1610.000000	0.850405
1609.000000	0.850418
1608.000000	0.850438
1607.000000	0.850463
1606.000000	0.850486
1605.000000	0.850498
1604.000000	0.850495
1603.000000	0.850491
1602.000000	0.850501
1601.000000	0.850529
1600.000000	0.850564
1599.000000	0.850595
1598.000000	0.850613
1597.000000	0.850613
1596.000000	0.850600
1595.000000	0.850585
1594.000000	0.850574
1593.000000	0.850572
1592.000000	0.850577
1591.000000	0.850591
1590.000000	0.850616
1589.000000	0.850645
1588.000000	0.850672
1587.000000	0.850695
1586.000000	0.850713
1585.000000	0.850724
1584.000000	0.850726
1583.000000	0.850722
1582.000000	0.850724
1581.000000	0.850728
1580.000000	0.850705
1579.000000	0.850611
1578.000000	0.850446
1577.000000	0.850283
1576.000000	0.850230
1575.000000	0.850329
1574.000000	0.850506
1573.000000	0.850636
1572.000000	0.850652
1571.000000	0.850594
1570.000000	0.850554
1569.000000	0.850587
1568.000000	0.850671
1567.000000	0.850747
1566.000000	0.850781
1565.000000	0.850783
1564.000000	0.850766
1563.000000	0.850697
1562.000000	0.850511
1561.000000	0.850202
1560.000000	0.849890
1559.000000	0.849754
1558.000000	0.849876
1557.000000	0.850155
1556.000000	0.850418
1555.000000	0.850576
1554.000000	0.850659
1553.000000	0.850728
1552.000000	0.850800
1551.000000	0.850861
1550.000000	0.850909
1549.000000	0.850950
1548.000000	0.850977
1547.000000	0.850967
1546.000000	0.850908
1545.000000	0.850811
1544.000000	0.850683
1543.000000	0.850521
1542.000000	0.850332
1541.000000	0.850169
1540.000000	0.850122
1539.000000	0.850255
1538.000000	0.850529
1537.000000	0.850808
1536.000000	0.850963
1535.000000	0.850969
1534.000000	0.850915
1533.000000	0.850897
1532.000000	0.850941
1531.000000	0.851005
1530.000000	0.851039
1529.000000	0.851029
1528.000000	0.850988
1527.000000	0.850943
1526.000000	0.850909
1525.000000	0.850873
1524.000000	0.850800
1523.000000	0.850681
1522.000000	0.850567
1521.000000	0.850540
1520.000000	0.850625
1519.000000	0.850762
1518.000000	0.850870
1517.000000	0.850927
1516.000000	0.850962
1515.000000	0.851003
1514.000000	0.851046
1513.000000	0.851077
1512.000000	0.851085
1511.000000	0.851055
1510.000000	0.850948
1509.000000	0.850744
1508.000000	0.850494
1507.000000	0.850323
1506.000000	0.850341
1505.000000	0.850549
1504.000000	0.850835
1503.000000	0.851078
1502.000000	0.851224
1501.000000	0.851285
1500.000000	0.851287
