PE IR       SUBTECH     SPECTRUM    ASCII       PEDS        4.00        
   -1
TE110A_045_115K_2MIN.ASC
20/05/14
13:18:28.00
20/05/14
13:18:29.00
Administrator
TE110A.Thursday, May 14 2020, 014.
1000.000000
#HDR
-1
-1
#GR
cm-1
A
1.0
0.0
6000.000000
-2.000000
2501
8
1.275973
1.225643
#DATA
6000.000000	1.262028
5998.000000	1.262188
5996.000000	1.262354
5994.000000	1.262113
5992.000000	1.261403
5990.000000	1.260912
5988.000000	1.261001
5986.000000	1.261626
5984.000000	1.261957
5982.000000	1.261839
5980.000000	1.261848
5978.000000	1.261859
5976.000000	1.261929
5974.000000	1.261768
5972.000000	1.261653
5970.000000	1.261806
5968.000000	1.261789
5966.000000	1.261302
5964.000000	1.261056
5962.000000	1.261289
5960.000000	1.261631
5958.000000	1.261686
5956.000000	1.260992
5954.000000	1.260460
5952.000000	1.260413
5950.000000	1.260604
5948.000000	1.260783
5946.000000	1.260475
5944.000000	1.260314
5942.000000	1.260368
5940.000000	1.260505
5938.000000	1.260602
5936.000000	1.260554
5934.000000	1.260425
5932.000000	1.260478
5930.000000	1.260597
5928.000000	1.260803
5926.000000	1.260777
5924.000000	1.260421
5922.000000	1.260289
5920.000000	1.260404
5918.000000	1.260626
5916.000000	1.260573
5914.000000	1.260412
5912.000000	1.260530
5910.000000	1.260614
5908.000000	1.260739
5906.000000	1.260659
5904.000000	1.260463
5902.000000	1.260046
5900.000000	1.259661
5898.000000	1.259822
5896.000000	1.260068
5894.000000	1.260043
5892.000000	1.259765
5890.000000	1.259533
5888.000000	1.259169
5886.000000	1.259072
5884.000000	1.259174
5882.000000	1.259512
5880.000000	1.259631
5878.000000	1.259385
5876.000000	1.259388
5874.000000	1.259386
5872.000000	1.259299
5870.000000	1.259174
5868.000000	1.259178
5866.000000	1.259260
5864.000000	1.259372
5862.000000	1.259162
5860.000000	1.259179
5858.000000	1.259260
5856.000000	1.259210
5854.000000	1.258994
5852.000000	1.258558
5850.000000	1.258570
5848.000000	1.258754
5846.000000	1.258941
5844.000000	1.258910
5842.000000	1.258781
5840.000000	1.258788
5838.000000	1.258695
5836.000000	1.258550
5834.000000	1.258572
5832.000000	1.258936
5830.000000	1.259074
5828.000000	1.259033
5826.000000	1.258742
5824.000000	1.258508
5822.000000	1.258437
5820.000000	1.258286
5818.000000	1.258190
5816.000000	1.258017
5814.000000	1.257985
5812.000000	1.258116
5810.000000	1.258291
5808.000000	1.258289
5806.000000	1.258282
5804.000000	1.258333
5802.000000	1.258413
5800.000000	1.258530
5798.000000	1.258489
5796.000000	1.258506
5794.000000	1.258624
5792.000000	1.258696
5790.000000	1.258384
5788.000000	1.258161
5786.000000	1.258388
5784.000000	1.258825
5782.000000	1.258999
5780.000000	1.258688
5778.000000	1.258295
5776.000000	1.258135
5774.000000	1.257943
5772.000000	1.257727
5770.000000	1.257678
5768.000000	1.257792
5766.000000	1.258088
5764.000000	1.258242
5762.000000	1.258150
5760.000000	1.257990
5758.000000	1.257533
5756.000000	1.257289
5754.000000	1.257287
5752.000000	1.257490
5750.000000	1.257530
5748.000000	1.257489
5746.000000	1.257491
5744.000000	1.257245
5742.000000	1.257013
5740.000000	1.256853
5738.000000	1.257091
5736.000000	1.257232
5734.000000	1.257126
5732.000000	1.257046
5730.000000	1.256954
5728.000000	1.256964
5726.000000	1.257019
5724.000000	1.257076
5722.000000	1.257111
5720.000000	1.257182
5718.000000	1.257352
5716.000000	1.257402
5714.000000	1.257172
5712.000000	1.256805
5710.000000	1.256498
5708.000000	1.256393
5706.000000	1.256264
5704.000000	1.256235
5702.000000	1.256497
5700.000000	1.256752
5698.000000	1.256794
5696.000000	1.256480
5694.000000	1.256442
5692.000000	1.256459
5690.000000	1.256395
5688.000000	1.256171
5686.000000	1.256089
5684.000000	1.256246
5682.000000	1.256414
5680.000000	1.256499
5678.000000	1.256405
5676.000000	1.256095
5674.000000	1.255781
5672.000000	1.255711
5670.000000	1.255884
5668.000000	1.256113
5666.000000	1.256115
5664.000000	1.255974
5662.000000	1.255732
5660.000000	1.255734
5658.000000	1.255821
5656.000000	1.255834
5654.000000	1.255735
5652.000000	1.255567
5650.000000	1.255660
5648.000000	1.255697
5646.000000	1.255683
5644.000000	1.255737
5642.000000	1.255725
5640.000000	1.255763
5638.000000	1.255523
5636.000000	1.255238
5634.000000	1.255065
5632.000000	1.255137
5630.000000	1.255532
5628.000000	1.255793
5626.000000	1.255844
5624.000000	1.255613
5622.000000	1.255440
5620.000000	1.255472
5618.000000	1.255516
5616.000000	1.255354
5614.000000	1.255101
5612.000000	1.255046
5610.000000	1.255211
5608.000000	1.255234
5606.000000	1.254957
5604.000000	1.254762
5602.000000	1.254739
5600.000000	1.254955
5598.000000	1.255046
5596.000000	1.254922
5594.000000	1.254736
5592.000000	1.254610
5590.000000	1.254704
5588.000000	1.254929
5586.000000	1.255176
5584.000000	1.255189
5582.000000	1.254911
5580.000000	1.254537
5578.000000	1.254349
5576.000000	1.254333
5574.000000	1.254393
5572.000000	1.254391
5570.000000	1.254368
5568.000000	1.254444
5566.000000	1.254407
5564.000000	1.254184
5562.000000	1.254024
5560.000000	1.254219
5558.000000	1.254513
5556.000000	1.254488
5554.000000	1.254453
5552.000000	1.254522
5550.000000	1.254468
5548.000000	1.254326
5546.000000	1.254229
5544.000000	1.254242
5542.000000	1.254219
5540.000000	1.254230
5538.000000	1.254131
5536.000000	1.253943
5534.000000	1.253701
5532.000000	1.253512
5530.000000	1.253416
5528.000000	1.253497
5526.000000	1.253895
5524.000000	1.254147
5522.000000	1.254098
5520.000000	1.253865
5518.000000	1.253781
5516.000000	1.253865
5514.000000	1.253806
5512.000000	1.253608
5510.000000	1.253482
5508.000000	1.253655
5506.000000	1.253855
5504.000000	1.253932
5502.000000	1.253865
5500.000000	1.253787
5498.000000	1.253538
5496.000000	1.253216
5494.000000	1.252944
5492.000000	1.252832
5490.000000	1.252973
5488.000000	1.253299
5486.000000	1.253616
5484.000000	1.253744
5482.000000	1.253740
5480.000000	1.253434
5478.000000	1.252872
5476.000000	1.252557
5474.000000	1.252674
5472.000000	1.252838
5470.000000	1.252677
5468.000000	1.252544
5466.000000	1.252606
5464.000000	1.252745
5462.000000	1.252875
5460.000000	1.253135
5458.000000	1.253193
5456.000000	1.253035
5454.000000	1.252785
5452.000000	1.252603
5450.000000	1.252446
5448.000000	1.252309
5446.000000	1.252367
5444.000000	1.252272
5442.000000	1.252284
5440.000000	1.252459
5438.000000	1.252504
5436.000000	1.252357
5434.000000	1.252079
5432.000000	1.251992
5430.000000	1.251929
5428.000000	1.252094
5426.000000	1.252525
5424.000000	1.252684
5422.000000	1.252473
5420.000000	1.252034
5418.000000	1.251621
5416.000000	1.251377
5414.000000	1.251428
5412.000000	1.251778
5410.000000	1.252239
5408.000000	1.252453
5406.000000	1.252349
5404.000000	1.252234
5402.000000	1.252192
5400.000000	1.251979
5398.000000	1.251477
5396.000000	1.251204
5394.000000	1.251414
5392.000000	1.251900
5390.000000	1.252093
5388.000000	1.251905
5386.000000	1.251692
5384.000000	1.251798
5382.000000	1.251981
5380.000000	1.251617
5378.000000	1.251182
5376.000000	1.251118
5374.000000	1.251490
5372.000000	1.251809
5370.000000	1.251944
5368.000000	1.251780
5366.000000	1.251541
5364.000000	1.251504
5362.000000	1.251609
5360.000000	1.251587
5358.000000	1.251258
5356.000000	1.250868
5354.000000	1.250791
5352.000000	1.251006
5350.000000	1.251163
5348.000000	1.250789
5346.000000	1.250464
5344.000000	1.250585
5342.000000	1.250833
5340.000000	1.250914
5338.000000	1.251018
5336.000000	1.251269
5334.000000	1.251392
5332.000000	1.251226
5330.000000	1.250978
5328.000000	1.251008
5326.000000	1.251183
5324.000000	1.251238
5322.000000	1.251002
5320.000000	1.250783
5318.000000	1.250755
5316.000000	1.250953
5314.000000	1.251108
5312.000000	1.250953
5310.000000	1.250555
5308.000000	1.250380
5306.000000	1.250504
5304.000000	1.250738
5302.000000	1.250813
5300.000000	1.250806
5298.000000	1.250826
5296.000000	1.250886
5294.000000	1.250776
5292.000000	1.250460
5290.000000	1.250222
5288.000000	1.250225
5286.000000	1.250276
5284.000000	1.250338
5282.000000	1.250472
5280.000000	1.250585
5278.000000	1.250511
5276.000000	1.250436
5274.000000	1.250562
5272.000000	1.250551
5270.000000	1.250322
5268.000000	1.249970
5266.000000	1.249861
5264.000000	1.250024
5262.000000	1.250354
5260.000000	1.250510
5258.000000	1.250207
5256.000000	1.249974
5254.000000	1.250152
5252.000000	1.250295
5250.000000	1.250136
5248.000000	1.249965
5246.000000	1.250140
5244.000000	1.250366
5242.000000	1.250428
5240.000000	1.250487
5238.000000	1.250430
5236.000000	1.250233
5234.000000	1.250071
5232.000000	1.250113
5230.000000	1.250293
5228.000000	1.250243
5226.000000	1.250109
5224.000000	1.250025
5222.000000	1.249956
5220.000000	1.249858
5218.000000	1.249840
5216.000000	1.249893
5214.000000	1.249828
5212.000000	1.249518
5210.000000	1.249060
5208.000000	1.248942
5206.000000	1.249490
5204.000000	1.250076
5202.000000	1.250119
5200.000000	1.249769
5198.000000	1.249700
5196.000000	1.249855
5194.000000	1.250052
5192.000000	1.249995
5190.000000	1.249636
5188.000000	1.249369
5186.000000	1.249522
5184.000000	1.249809
5182.000000	1.249778
5180.000000	1.249572
5178.000000	1.249664
5176.000000	1.249858
5174.000000	1.249900
5172.000000	1.249718
5170.000000	1.249621
5168.000000	1.249552
5166.000000	1.249465
5164.000000	1.249477
5162.000000	1.249544
5160.000000	1.249504
5158.000000	1.249331
5156.000000	1.249291
5154.000000	1.249429
5152.000000	1.249500
5150.000000	1.249545
5148.000000	1.249677
5146.000000	1.249827
5144.000000	1.249844
5142.000000	1.249690
5140.000000	1.249513
5138.000000	1.249344
5136.000000	1.249337
5134.000000	1.249447
5132.000000	1.249522
5130.000000	1.249576
5128.000000	1.249561
5126.000000	1.249473
5124.000000	1.249288
5122.000000	1.249261
5120.000000	1.249348
5118.000000	1.249360
5116.000000	1.249308
5114.000000	1.249439
5112.000000	1.249606
5110.000000	1.249620
5108.000000	1.249510
5106.000000	1.249384
5104.000000	1.249225
5102.000000	1.249085
5100.000000	1.249010
5098.000000	1.248980
5096.000000	1.248985
5094.000000	1.249026
5092.000000	1.249003
5090.000000	1.249044
5088.000000	1.249218
5086.000000	1.249261
5084.000000	1.249173
5082.000000	1.249202
5080.000000	1.249294
5078.000000	1.249177
5076.000000	1.248947
5074.000000	1.248901
5072.000000	1.248983
5070.000000	1.249083
5068.000000	1.249120
5066.000000	1.249112
5064.000000	1.249171
5062.000000	1.249263
5060.000000	1.249235
5058.000000	1.249136
5056.000000	1.248993
5054.000000	1.249036
5052.000000	1.249129
5050.000000	1.249123
5048.000000	1.249005
5046.000000	1.249024
5044.000000	1.249132
5042.000000	1.249047
5040.000000	1.248984
5038.000000	1.249089
5036.000000	1.249262
5034.000000	1.249353
5032.000000	1.249290
5030.000000	1.249236
5028.000000	1.249216
5026.000000	1.249386
5024.000000	1.249478
5022.000000	1.249334
5020.000000	1.249160
5018.000000	1.249099
5016.000000	1.249034
5014.000000	1.248953
5012.000000	1.249047
5010.000000	1.249129
5008.000000	1.248869
5006.000000	1.248646
5004.000000	1.248716
5002.000000	1.248856
5000.000000	1.248854
4998.000000	1.248906
4996.000000	1.249099
4994.000000	1.249194
4992.000000	1.249180
4990.000000	1.249064
4988.000000	1.248949
4986.000000	1.248890
4984.000000	1.248984
4982.000000	1.249082
4980.000000	1.249166
4978.000000	1.249127
4976.000000	1.249038
4974.000000	1.249011
4972.000000	1.248936
4970.000000	1.248913
4968.000000	1.249033
4966.000000	1.249145
4964.000000	1.249075
4962.000000	1.248934
4960.000000	1.248810
4958.000000	1.248722
4956.000000	1.248884
4954.000000	1.249122
4952.000000	1.249193
4950.000000	1.249123
4948.000000	1.249007
4946.000000	1.248852
4944.000000	1.248792
4942.000000	1.248813
4940.000000	1.248797
4938.000000	1.248823
4936.000000	1.248979
4934.000000	1.249073
4932.000000	1.249025
4930.000000	1.249026
4928.000000	1.249116
4926.000000	1.249133
4924.000000	1.249093
4922.000000	1.249075
4920.000000	1.248993
4918.000000	1.248860
4916.000000	1.248761
4914.000000	1.248784
4912.000000	1.248824
4910.000000	1.248871
4908.000000	1.248893
4906.000000	1.248997
4904.000000	1.249041
4902.000000	1.248902
4900.000000	1.248749
4898.000000	1.248716
4896.000000	1.248685
4894.000000	1.248610
4892.000000	1.248686
4890.000000	1.248803
4888.000000	1.248756
4886.000000	1.248693
4884.000000	1.248688
4882.000000	1.248686
4880.000000	1.248714
4878.000000	1.248753
4876.000000	1.248698
4874.000000	1.248644
4872.000000	1.248736
4870.000000	1.248908
4868.000000	1.248976
4866.000000	1.248913
4864.000000	1.248780
4862.000000	1.248773
4860.000000	1.248802
4858.000000	1.248811
4856.000000	1.248771
4854.000000	1.248779
4852.000000	1.248857
4850.000000	1.248926
4848.000000	1.248851
4846.000000	1.248683
4844.000000	1.248658
4842.000000	1.248869
4840.000000	1.249081
4838.000000	1.249014
4836.000000	1.248808
4834.000000	1.248734
4832.000000	1.248742
4830.000000	1.248736
4828.000000	1.248702
4826.000000	1.248693
4824.000000	1.248817
4822.000000	1.248994
4820.000000	1.249056
4818.000000	1.248974
4816.000000	1.248878
4814.000000	1.248824
4812.000000	1.248794
4810.000000	1.248724
4808.000000	1.248555
4806.000000	1.248433
4804.000000	1.248559
4802.000000	1.248741
4800.000000	1.248680
4798.000000	1.248487
4796.000000	1.248403
4794.000000	1.248315
4792.000000	1.248162
4790.000000	1.248162
4788.000000	1.248294
4786.000000	1.248373
4784.000000	1.248385
4782.000000	1.248463
4780.000000	1.248570
4778.000000	1.248633
4776.000000	1.248704
4774.000000	1.248785
4772.000000	1.248787
4770.000000	1.248706
4768.000000	1.248665
4766.000000	1.248639
4764.000000	1.248629
4762.000000	1.248636
4760.000000	1.248608
4758.000000	1.248552
4756.000000	1.248548
4754.000000	1.248572
4752.000000	1.248495
4750.000000	1.248393
4748.000000	1.248361
4746.000000	1.248436
4744.000000	1.248542
4742.000000	1.248578
4740.000000	1.248492
4738.000000	1.248421
4736.000000	1.248401
4734.000000	1.248401
4732.000000	1.248483
4730.000000	1.248591
4728.000000	1.248535
4726.000000	1.248423
4724.000000	1.248366
4722.000000	1.248309
4720.000000	1.248290
4718.000000	1.248285
4716.000000	1.248248
4714.000000	1.248209
4712.000000	1.248184
4710.000000	1.248214
4708.000000	1.248294
4706.000000	1.248322
4704.000000	1.248270
4702.000000	1.248228
4700.000000	1.248129
4698.000000	1.248099
4696.000000	1.248104
4694.000000	1.248017
4692.000000	1.247907
4690.000000	1.247909
4688.000000	1.247942
4686.000000	1.248012
4684.000000	1.248153
4682.000000	1.248181
4680.000000	1.248078
4678.000000	1.248047
4676.000000	1.248085
4674.000000	1.248121
4672.000000	1.248156
4670.000000	1.248206
4668.000000	1.248229
4666.000000	1.248233
4664.000000	1.248216
4662.000000	1.248150
4660.000000	1.248154
4658.000000	1.248232
4656.000000	1.248321
4654.000000	1.248389
4652.000000	1.248418
4650.000000	1.248353
4648.000000	1.248238
4646.000000	1.248165
4644.000000	1.248146
4642.000000	1.248163
4640.000000	1.248052
4638.000000	1.247982
4636.000000	1.248022
4634.000000	1.248067
4632.000000	1.248102
4630.000000	1.248154
4628.000000	1.248193
4626.000000	1.248231
4624.000000	1.248188
4622.000000	1.248068
4620.000000	1.248003
4618.000000	1.248003
4616.000000	1.247992
4614.000000	1.247961
4612.000000	1.247937
4610.000000	1.248051
4608.000000	1.248090
4606.000000	1.247962
4604.000000	1.247915
4602.000000	1.247995
4600.000000	1.248031
4598.000000	1.248105
4596.000000	1.248144
4594.000000	1.248020
4592.000000	1.247939
4590.000000	1.247984
4588.000000	1.247945
4586.000000	1.247802
4584.000000	1.247764
4582.000000	1.247899
4580.000000	1.248045
4578.000000	1.248046
4576.000000	1.247928
4574.000000	1.247865
4572.000000	1.247901
4570.000000	1.248047
4568.000000	1.248215
4566.000000	1.248287
4564.000000	1.248198
4562.000000	1.248089
4560.000000	1.248043
4558.000000	1.248035
4556.000000	1.247967
4554.000000	1.247910
4552.000000	1.247926
4550.000000	1.247906
4548.000000	1.247803
4546.000000	1.247836
4544.000000	1.247958
4542.000000	1.247969
4540.000000	1.247885
4538.000000	1.247779
4536.000000	1.247655
4534.000000	1.247619
4532.000000	1.247765
4530.000000	1.247880
4528.000000	1.247824
4526.000000	1.247808
4524.000000	1.247868
4522.000000	1.247883
4520.000000	1.247899
4518.000000	1.247967
4516.000000	1.247900
4514.000000	1.247836
4512.000000	1.247931
4510.000000	1.248000
4508.000000	1.247848
4506.000000	1.247722
4504.000000	1.247745
4502.000000	1.247836
4500.000000	1.247915
4498.000000	1.247922
4496.000000	1.247805
4494.000000	1.247720
4492.000000	1.247769
4490.000000	1.247886
4488.000000	1.247855
4486.000000	1.247764
4484.000000	1.247760
4482.000000	1.247769
4480.000000	1.247806
4478.000000	1.247938
4476.000000	1.247973
4474.000000	1.247898
4472.000000	1.247820
4470.000000	1.247741
4468.000000	1.247747
4466.000000	1.247849
4464.000000	1.247850
4462.000000	1.247751
4460.000000	1.247663
4458.000000	1.247621
4456.000000	1.247651
4454.000000	1.247732
4452.000000	1.247831
4450.000000	1.247895
4448.000000	1.247884
4446.000000	1.247787
4444.000000	1.247682
4442.000000	1.247602
4440.000000	1.247604
4438.000000	1.247662
4436.000000	1.247719
4434.000000	1.247733
4432.000000	1.247682
4430.000000	1.247659
4428.000000	1.247656
4426.000000	1.247597
4424.000000	1.247549
4422.000000	1.247535
4420.000000	1.247482
4418.000000	1.247498
4416.000000	1.247583
4414.000000	1.247557
4412.000000	1.247454
4410.000000	1.247466
4408.000000	1.247547
4406.000000	1.247562
4404.000000	1.247517
4402.000000	1.247458
4400.000000	1.247381
4398.000000	1.247308
4396.000000	1.247280
4394.000000	1.247325
4392.000000	1.247395
4390.000000	1.247492
4388.000000	1.247566
4386.000000	1.247557
4384.000000	1.247503
4382.000000	1.247422
4380.000000	1.247368
4378.000000	1.247389
4376.000000	1.247402
4374.000000	1.247412
4372.000000	1.247427
4370.000000	1.247385
4368.000000	1.247338
4366.000000	1.247318
4364.000000	1.247300
4362.000000	1.247316
4360.000000	1.247367
4358.000000	1.247457
4356.000000	1.247531
4354.000000	1.247463
4352.000000	1.247272
4350.000000	1.247184
4348.000000	1.247251
4346.000000	1.247317
4344.000000	1.247261
4342.000000	1.247267
4340.000000	1.247338
4338.000000	1.247303
4336.000000	1.247161
4334.000000	1.247060
4332.000000	1.246980
4330.000000	1.246959
4328.000000	1.246936
4326.000000	1.246909
4324.000000	1.246915
4322.000000	1.246997
4320.000000	1.247088
4318.000000	1.247104
4316.000000	1.247060
4314.000000	1.247000
4312.000000	1.246896
4310.000000	1.246861
4308.000000	1.246898
4306.000000	1.246857
4304.000000	1.246726
4302.000000	1.246637
4300.000000	1.246704
4298.000000	1.246815
4296.000000	1.246799
4294.000000	1.246800
4292.000000	1.246850
4290.000000	1.246795
4288.000000	1.246654
4286.000000	1.246661
4284.000000	1.246776
4282.000000	1.246819
4280.000000	1.246810
4278.000000	1.246818
4276.000000	1.246686
4274.000000	1.246542
4272.000000	1.246579
4270.000000	1.246645
4268.000000	1.246657
4266.000000	1.246758
4264.000000	1.246883
4262.000000	1.246875
4260.000000	1.246738
4258.000000	1.246607
4256.000000	1.246588
4254.000000	1.246631
4252.000000	1.246615
4250.000000	1.246522
4248.000000	1.246402
4246.000000	1.246343
4244.000000	1.246377
4242.000000	1.246453
4240.000000	1.246487
4238.000000	1.246457
4236.000000	1.246404
4234.000000	1.246368
4232.000000	1.246303
4230.000000	1.246205
4228.000000	1.246127
4226.000000	1.246117
4224.000000	1.246151
4222.000000	1.246152
4220.000000	1.246143
4218.000000	1.246191
4216.000000	1.246233
4214.000000	1.246215
4212.000000	1.246134
4210.000000	1.246009
4208.000000	1.245920
4206.000000	1.245897
4204.000000	1.245888
4202.000000	1.245905
4200.000000	1.245935
4198.000000	1.245971
4196.000000	1.245934
4194.000000	1.245812
4192.000000	1.245805
4190.000000	1.245896
4188.000000	1.245951
4186.000000	1.245960
4184.000000	1.245849
4182.000000	1.245766
4180.000000	1.245846
4178.000000	1.245898
4176.000000	1.245843
4174.000000	1.245818
4172.000000	1.245804
4170.000000	1.245763
4168.000000	1.245718
4166.000000	1.245691
4164.000000	1.245615
4162.000000	1.245548
4160.000000	1.245538
4158.000000	1.245564
4156.000000	1.245576
4154.000000	1.245552
4152.000000	1.245473
4150.000000	1.245345
4148.000000	1.245202
4146.000000	1.245198
4144.000000	1.245277
4142.000000	1.245266
4140.000000	1.245163
4138.000000	1.245069
4136.000000	1.245028
4134.000000	1.244984
4132.000000	1.244951
4130.000000	1.244995
4128.000000	1.245000
4126.000000	1.244888
4124.000000	1.244769
4122.000000	1.244791
4120.000000	1.244824
4118.000000	1.244723
4116.000000	1.244633
4114.000000	1.244639
4112.000000	1.244637
4110.000000	1.244638
4108.000000	1.244584
4106.000000	1.244551
4104.000000	1.244607
4102.000000	1.244690
4100.000000	1.244709
4098.000000	1.244596
4096.000000	1.244414
4094.000000	1.244374
4092.000000	1.244421
4090.000000	1.244478
4088.000000	1.244474
4086.000000	1.244430
4084.000000	1.244481
4082.000000	1.244519
4080.000000	1.244428
4078.000000	1.244388
4076.000000	1.244324
4074.000000	1.244231
4072.000000	1.244245
4070.000000	1.244306
4068.000000	1.244267
4066.000000	1.244163
4064.000000	1.244088
4062.000000	1.244041
4060.000000	1.243934
4058.000000	1.243774
4056.000000	1.243717
4054.000000	1.243816
4052.000000	1.243789
4050.000000	1.243675
4048.000000	1.243683
4046.000000	1.243765
4044.000000	1.243819
4042.000000	1.243781
4040.000000	1.243631
4038.000000	1.243460
4036.000000	1.243390
4034.000000	1.243431
4032.000000	1.243433
4030.000000	1.243408
4028.000000	1.243318
4026.000000	1.243226
4024.000000	1.243278
4022.000000	1.243273
4020.000000	1.243120
4018.000000	1.243070
4016.000000	1.243067
4014.000000	1.242944
4012.000000	1.242858
4010.000000	1.242943
4008.000000	1.242992
4006.000000	1.242946
4004.000000	1.242936
4002.000000	1.242951
4000.000000	1.242877
3998.000000	1.242797
3996.000000	1.242758
3994.000000	1.242699
3992.000000	1.242612
3990.000000	1.242552
3988.000000	1.242576
3986.000000	1.242618
3984.000000	1.242508
3982.000000	1.242389
3980.000000	1.242386
3978.000000	1.242312
3976.000000	1.242198
3974.000000	1.242222
3972.000000	1.242264
3970.000000	1.242250
3968.000000	1.242217
3966.000000	1.242143
3964.000000	1.241980
3962.000000	1.241881
3960.000000	1.241904
3958.000000	1.241874
3956.000000	1.241836
3954.000000	1.241776
3952.000000	1.241451
3950.000000	1.241161
3948.000000	1.241274
3946.000000	1.241324
3944.000000	1.241080
3942.000000	1.241265
3940.000000	1.241684
3938.000000	1.241595
3936.000000	1.241018
3934.000000	1.240392
3932.000000	1.240535
3930.000000	1.241242
3928.000000	1.241166
3926.000000	1.240580
3924.000000	1.240509
3922.000000	1.240397
3920.000000	1.239828
3918.000000	1.239814
3916.000000	1.240674
3914.000000	1.241269
3912.000000	1.241118
3910.000000	1.240675
3908.000000	1.239459
3906.000000	1.237653
3904.000000	1.237148
3902.000000	1.238142
3900.000000	1.239560
3898.000000	1.240970
3896.000000	1.240853
3894.000000	1.238845
3892.000000	1.238146
3890.000000	1.239293
3888.000000	1.238527
3886.000000	1.237794
3884.000000	1.239270
3882.000000	1.239417
3880.000000	1.239409
3878.000000	1.240073
3876.000000	1.239020
3874.000000	1.237485
3872.000000	1.236032
3870.000000	1.236499
3868.000000	1.238552
3866.000000	1.238382
3864.000000	1.238320
3862.000000	1.239633
3860.000000	1.239542
3858.000000	1.235740
3856.000000	1.228933
3854.000000	1.228796
3852.000000	1.237621
3850.000000	1.242756
3848.000000	1.241000
3846.000000	1.238436
3844.000000	1.237163
3842.000000	1.235827
3840.000000	1.233525
3838.000000	1.234090
3836.000000	1.237868
3834.000000	1.239198
3832.000000	1.238670
3830.000000	1.238857
3828.000000	1.238572
3826.000000	1.237717
3824.000000	1.235606
3822.000000	1.234470
3820.000000	1.235955
3818.000000	1.235284
3816.000000	1.235759
3814.000000	1.239778
3812.000000	1.240083
3810.000000	1.236610
3808.000000	1.234843
3806.000000	1.236138
3804.000000	1.235084
3802.000000	1.233856
3800.000000	1.237414
3798.000000	1.239185
3796.000000	1.238574
3794.000000	1.239074
3792.000000	1.239002
3790.000000	1.238505
3788.000000	1.238132
3786.000000	1.237823
3784.000000	1.237769
3782.000000	1.237348
3780.000000	1.237129
3778.000000	1.237991
3776.000000	1.238501
3774.000000	1.237686
3772.000000	1.236173
3770.000000	1.235913
3768.000000	1.236881
3766.000000	1.237366
3764.000000	1.237391
3762.000000	1.236440
3760.000000	1.235612
3758.000000	1.236209
3756.000000	1.234969
3754.000000	1.230534
3752.000000	1.228534
3750.000000	1.231849
3748.000000	1.232935
3746.000000	1.229397
3744.000000	1.232269
3742.000000	1.238357
3740.000000	1.236262
3738.000000	1.231716
3736.000000	1.231532
3734.000000	1.233581
3732.000000	1.235557
3730.000000	1.236671
3728.000000	1.235594
3726.000000	1.234724
3724.000000	1.235102
3722.000000	1.235465
3720.000000	1.235885
3718.000000	1.235865
3716.000000	1.234329
3714.000000	1.231634
3712.000000	1.231606
3710.000000	1.234665
3708.000000	1.236547
3706.000000	1.236003
3704.000000	1.234499
3702.000000	1.234302
3700.000000	1.235474
3698.000000	1.235672
3696.000000	1.234905
3694.000000	1.233517
3692.000000	1.230873
3690.000000	1.229223
3688.000000	1.232440
3686.000000	1.236452
3684.000000	1.235952
3682.000000	1.234000
3680.000000	1.231905
3678.000000	1.228381
3676.000000	1.228051
3674.000000	1.231266
3672.000000	1.230691
3670.000000	1.230878
3668.000000	1.234448
3666.000000	1.235155
3664.000000	1.233983
3662.000000	1.233383
3660.000000	1.232258
3658.000000	1.230597
3656.000000	1.231138
3654.000000	1.231433
3652.000000	1.227912
3650.000000	1.226480
3648.000000	1.230349
3646.000000	1.233586
3644.000000	1.233354
3642.000000	1.232301
3640.000000	1.231914
3638.000000	1.231682
3636.000000	1.231179
3634.000000	1.230273
3632.000000	1.227613
3630.000000	1.225643
3628.000000	1.229287
3626.000000	1.232857
3624.000000	1.231544
3622.000000	1.228854
3620.000000	1.228038
3618.000000	1.229555
3616.000000	1.230079
3614.000000	1.229072
3612.000000	1.228515
3610.000000	1.228486
3608.000000	1.229696
3606.000000	1.230976
3604.000000	1.230567
3602.000000	1.229766
3600.000000	1.229569
3598.000000	1.229414
3596.000000	1.229208
3594.000000	1.229457
3592.000000	1.229082
3590.000000	1.227525
3588.000000	1.227367
3586.000000	1.229203
3584.000000	1.230155
3582.000000	1.229788
3580.000000	1.229487
3578.000000	1.229437
3576.000000	1.229369
3574.000000	1.229321
3572.000000	1.228798
3570.000000	1.227476
3568.000000	1.227031
3566.000000	1.228474
3564.000000	1.229568
3562.000000	1.229411
3560.000000	1.229271
3558.000000	1.229401
3556.000000	1.229255
3554.000000	1.228955
3552.000000	1.229101
3550.000000	1.229195
3548.000000	1.228773
3546.000000	1.228808
3544.000000	1.229439
3542.000000	1.229781
3540.000000	1.229658
3538.000000	1.229499
3536.000000	1.229570
3534.000000	1.229730
3532.000000	1.229671
3530.000000	1.229546
3528.000000	1.229646
3526.000000	1.229767
3524.000000	1.229766
3522.000000	1.230026
3520.000000	1.230399
3518.000000	1.230656
3516.000000	1.230834
3514.000000	1.230880
3512.000000	1.230855
3510.000000	1.230981
3508.000000	1.231258
3506.000000	1.231187
3504.000000	1.231081
3502.000000	1.231508
3500.000000	1.231949
3498.000000	1.232115
3496.000000	1.232300
3494.000000	1.232622
3492.000000	1.232843
3490.000000	1.232937
3488.000000	1.233153
3486.000000	1.233388
3484.000000	1.233503
3482.000000	1.233761
3480.000000	1.234199
3478.000000	1.234570
3476.000000	1.234810
3474.000000	1.235121
3472.000000	1.235489
3470.000000	1.235758
3468.000000	1.236033
3466.000000	1.236393
3464.000000	1.236773
3462.000000	1.237221
3460.000000	1.237631
3458.000000	1.237889
3456.000000	1.238208
3454.000000	1.238594
3452.000000	1.238896
3450.000000	1.239082
3448.000000	1.239374
3446.000000	1.239929
3444.000000	1.240431
3442.000000	1.240877
3440.000000	1.241364
3438.000000	1.241730
3436.000000	1.242071
3434.000000	1.242492
3432.000000	1.242906
3430.000000	1.243316
3428.000000	1.243742
3426.000000	1.244117
3424.000000	1.244368
3422.000000	1.244613
3420.000000	1.245010
3418.000000	1.245410
3416.000000	1.245618
3414.000000	1.245808
3412.000000	1.246058
3410.000000	1.246283
3408.000000	1.246457
3406.000000	1.246653
3404.000000	1.246850
3402.000000	1.247018
3400.000000	1.247220
3398.000000	1.247466
3396.000000	1.247690
3394.000000	1.247739
3392.000000	1.247793
3390.000000	1.248048
3388.000000	1.248314
3386.000000	1.248437
3384.000000	1.248497
3382.000000	1.248612
3380.000000	1.248747
3378.000000	1.248906
3376.000000	1.249057
3374.000000	1.249173
3372.000000	1.249148
3370.000000	1.249053
3368.000000	1.249130
3366.000000	1.249400
3364.000000	1.249647
3362.000000	1.249695
3360.000000	1.249672
3358.000000	1.249765
3356.000000	1.249853
3354.000000	1.249914
3352.000000	1.249949
3350.000000	1.250025
3348.000000	1.250219
3346.000000	1.250334
3344.000000	1.250311
3342.000000	1.250297
3340.000000	1.250295
3338.000000	1.250331
3336.000000	1.250463
3334.000000	1.250619
3332.000000	1.250731
3330.000000	1.250814
3328.000000	1.250846
3326.000000	1.250842
3324.000000	1.250947
3322.000000	1.251013
3320.000000	1.250968
3318.000000	1.251064
3316.000000	1.251153
3314.000000	1.251121
3312.000000	1.251123
3310.000000	1.251125
3308.000000	1.251143
3306.000000	1.251249
3304.000000	1.251415
3302.000000	1.251565
3300.000000	1.251577
3298.000000	1.251558
3296.000000	1.251581
3294.000000	1.251547
3292.000000	1.251558
3290.000000	1.251668
3288.000000	1.251739
3286.000000	1.251786
3284.000000	1.251861
3282.000000	1.251927
3280.000000	1.251955
3278.000000	1.251977
3276.000000	1.251987
3274.000000	1.252037
3272.000000	1.252091
3270.000000	1.252103
3268.000000	1.252156
3266.000000	1.252241
3264.000000	1.252330
3262.000000	1.252378
3260.000000	1.252314
3258.000000	1.252296
3256.000000	1.252361
3254.000000	1.252442
3252.000000	1.252485
3250.000000	1.252507
3248.000000	1.252571
3246.000000	1.252615
3244.000000	1.252679
3242.000000	1.252748
3240.000000	1.252723
3238.000000	1.252708
3236.000000	1.252725
3234.000000	1.252746
3232.000000	1.252863
3230.000000	1.252991
3228.000000	1.253094
3226.000000	1.253215
3224.000000	1.253265
3222.000000	1.253233
3220.000000	1.253290
3218.000000	1.253374
3216.000000	1.253360
3214.000000	1.253344
3212.000000	1.253350
3210.000000	1.253364
3208.000000	1.253412
3206.000000	1.253427
3204.000000	1.253419
3202.000000	1.253395
3200.000000	1.253372
3198.000000	1.253387
3196.000000	1.253426
3194.000000	1.253552
3192.000000	1.253597
3190.000000	1.253535
3188.000000	1.253540
3186.000000	1.253559
3184.000000	1.253613
3182.000000	1.253657
3180.000000	1.253606
3178.000000	1.253550
3176.000000	1.253569
3174.000000	1.253642
3172.000000	1.253704
3170.000000	1.253709
3168.000000	1.253728
3166.000000	1.253882
3164.000000	1.254016
3162.000000	1.254007
3160.000000	1.253966
3158.000000	1.253951
3156.000000	1.253911
3154.000000	1.253919
3152.000000	1.253985
3150.000000	1.254080
3148.000000	1.254142
3146.000000	1.254171
3144.000000	1.254159
3142.000000	1.254150
3140.000000	1.254226
3138.000000	1.254309
3136.000000	1.254364
3134.000000	1.254399
3132.000000	1.254429
3130.000000	1.254407
3128.000000	1.254374
3126.000000	1.254377
3124.000000	1.254397
3122.000000	1.254412
3120.000000	1.254388
3118.000000	1.254365
3116.000000	1.254390
3114.000000	1.254478
3112.000000	1.254482
3110.000000	1.254384
3108.000000	1.254317
3106.000000	1.254353
3104.000000	1.254418
3102.000000	1.254418
3100.000000	1.254373
3098.000000	1.254320
3096.000000	1.254244
3094.000000	1.254207
3092.000000	1.254175
3090.000000	1.254035
3088.000000	1.253937
3086.000000	1.253927
3084.000000	1.253860
3082.000000	1.253818
3080.000000	1.253786
3078.000000	1.253796
3076.000000	1.253759
3074.000000	1.253577
3072.000000	1.253367
3070.000000	1.253224
3068.000000	1.253168
3066.000000	1.253203
3064.000000	1.253290
3062.000000	1.253290
3060.000000	1.253190
3058.000000	1.253101
3056.000000	1.253059
3054.000000	1.252977
3052.000000	1.252890
3050.000000	1.252889
3048.000000	1.252878
3046.000000	1.252743
3044.000000	1.252590
3042.000000	1.252585
3040.000000	1.252666
3038.000000	1.252661
3036.000000	1.252551
3034.000000	1.252449
3032.000000	1.252395
3030.000000	1.252318
3028.000000	1.252187
3026.000000	1.252067
3024.000000	1.251970
3022.000000	1.251975
3020.000000	1.252161
3018.000000	1.252409
3016.000000	1.252650
3014.000000	1.252815
3012.000000	1.252878
3010.000000	1.252852
3008.000000	1.252720
3006.000000	1.252520
3004.000000	1.252301
3002.000000	1.252138
3000.000000	1.251998
2998.000000	1.251918
2996.000000	1.251902
2994.000000	1.251828
2992.000000	1.251753
2990.000000	1.251716
2988.000000	1.251686
2986.000000	1.251641
2984.000000	1.251564
2982.000000	1.251452
2980.000000	1.251413
2978.000000	1.251367
2976.000000	1.251281
2974.000000	1.251222
2972.000000	1.251239
2970.000000	1.251349
2968.000000	1.251569
2966.000000	1.252054
2964.000000	1.252844
2962.000000	1.253590
2960.000000	1.253944
2958.000000	1.253865
2956.000000	1.253505
2954.000000	1.252995
2952.000000	1.252443
2950.000000	1.251896
2948.000000	1.251403
2946.000000	1.250918
2944.000000	1.250423
2942.000000	1.250050
2940.000000	1.249858
2938.000000	1.249819
2936.000000	1.249894
2934.000000	1.249992
2932.000000	1.250055
2930.000000	1.250032
2928.000000	1.250214
2926.000000	1.250842
2924.000000	1.251763
2922.000000	1.252686
2920.000000	1.253305
2918.000000	1.253567
2916.000000	1.253525
2914.000000	1.253233
2912.000000	1.252860
2910.000000	1.252431
2908.000000	1.252014
2906.000000	1.251761
2904.000000	1.251684
2902.000000	1.251586
2900.000000	1.251419
2898.000000	1.251283
2896.000000	1.251197
2894.000000	1.251169
2892.000000	1.251117
2890.000000	1.251019
2888.000000	1.250881
2886.000000	1.250722
2884.000000	1.250550
2882.000000	1.250346
2880.000000	1.250177
2878.000000	1.249990
2876.000000	1.249728
2874.000000	1.249461
2872.000000	1.249185
2870.000000	1.248780
2868.000000	1.248325
2866.000000	1.248128
2864.000000	1.248349
2862.000000	1.248956
2860.000000	1.249710
2858.000000	1.250284
2856.000000	1.250563
2854.000000	1.250732
2852.000000	1.250921
2850.000000	1.251191
2848.000000	1.251432
2846.000000	1.251318
2844.000000	1.250944
2842.000000	1.250653
2840.000000	1.250470
2838.000000	1.250332
2836.000000	1.250170
2834.000000	1.249989
2832.000000	1.249902
2830.000000	1.249884
2828.000000	1.249843
2826.000000	1.249749
2824.000000	1.249699
2822.000000	1.249686
2820.000000	1.249648
2818.000000	1.249629
2816.000000	1.249614
2814.000000	1.249504
2812.000000	1.249435
2810.000000	1.249420
2808.000000	1.249389
2806.000000	1.249320
2804.000000	1.249291
2802.000000	1.249267
2800.000000	1.249247
2798.000000	1.249258
2796.000000	1.249215
2794.000000	1.249193
2792.000000	1.249230
2790.000000	1.249196
2788.000000	1.249226
2786.000000	1.249329
2784.000000	1.249340
2782.000000	1.249221
2780.000000	1.249110
2778.000000	1.249078
2776.000000	1.249006
2774.000000	1.248947
2772.000000	1.248976
2770.000000	1.248962
2768.000000	1.248926
2766.000000	1.248960
2764.000000	1.249025
2762.000000	1.248980
2760.000000	1.248903
2758.000000	1.248877
2756.000000	1.248910
2754.000000	1.248935
2752.000000	1.248943
2750.000000	1.248986
2748.000000	1.249004
2746.000000	1.249014
2744.000000	1.249061
2742.000000	1.249085
2740.000000	1.249092
2738.000000	1.249113
2736.000000	1.249138
2734.000000	1.249104
2732.000000	1.249076
2730.000000	1.249095
2728.000000	1.249139
2726.000000	1.249211
2724.000000	1.249276
2722.000000	1.249361
2720.000000	1.249509
2718.000000	1.249537
2716.000000	1.249563
2714.000000	1.249638
2712.000000	1.249663
2710.000000	1.249668
2708.000000	1.249716
2706.000000	1.249827
2704.000000	1.249996
2702.000000	1.250082
2700.000000	1.250076
2698.000000	1.250121
2696.000000	1.250236
2694.000000	1.250323
2692.000000	1.250374
2690.000000	1.250383
2688.000000	1.250439
2686.000000	1.250562
2684.000000	1.250664
2682.000000	1.250714
2680.000000	1.250784
2678.000000	1.250906
2676.000000	1.251011
2674.000000	1.251091
2672.000000	1.251129
2670.000000	1.251095
2668.000000	1.251135
2666.000000	1.251294
2664.000000	1.251447
2662.000000	1.251498
2660.000000	1.251532
2658.000000	1.251582
2656.000000	1.251644
2654.000000	1.251747
2652.000000	1.251804
2650.000000	1.251823
2648.000000	1.251867
2646.000000	1.251945
2644.000000	1.252013
2642.000000	1.251998
2640.000000	1.252009
2638.000000	1.252018
2636.000000	1.252044
2634.000000	1.252027
2632.000000	1.252048
2630.000000	1.252124
2628.000000	1.252145
2626.000000	1.252122
2624.000000	1.252117
2622.000000	1.252187
2620.000000	1.252258
2618.000000	1.252234
2616.000000	1.252206
2614.000000	1.252216
2612.000000	1.252248
2610.000000	1.252315
2608.000000	1.252343
2606.000000	1.252324
2604.000000	1.252342
2602.000000	1.252316
2600.000000	1.252306
2598.000000	1.252362
2596.000000	1.252430
2594.000000	1.252467
2592.000000	1.252500
2590.000000	1.252527
2588.000000	1.252567
2586.000000	1.252585
2584.000000	1.252655
2582.000000	1.252699
2580.000000	1.252691
2578.000000	1.252680
2576.000000	1.252647
2574.000000	1.252579
2572.000000	1.252607
2570.000000	1.252674
2568.000000	1.252667
2566.000000	1.252638
2564.000000	1.252677
2562.000000	1.252721
2560.000000	1.252773
2558.000000	1.252773
2556.000000	1.252707
2554.000000	1.252677
2552.000000	1.252666
2550.000000	1.252666
2548.000000	1.252715
2546.000000	1.252769
2544.000000	1.252817
2542.000000	1.252798
2540.000000	1.252726
2538.000000	1.252693
2536.000000	1.252714
2534.000000	1.252719
2532.000000	1.252682
2530.000000	1.252639
2528.000000	1.252599
2526.000000	1.252589
2524.000000	1.252591
2522.000000	1.252584
2520.000000	1.252620
2518.000000	1.252603
2516.000000	1.252587
2514.000000	1.252619
2512.000000	1.252644
2510.000000	1.252600
2508.000000	1.252549
2506.000000	1.252547
2504.000000	1.252557
2502.000000	1.252542
2500.000000	1.252508
2498.000000	1.252462
2496.000000	1.252459
2494.000000	1.252517
2492.000000	1.252553
2490.000000	1.252530
2488.000000	1.252515
2486.000000	1.252479
2484.000000	1.252462
2482.000000	1.252433
2480.000000	1.252423
2478.000000	1.252409
2476.000000	1.252405
2474.000000	1.252451
2472.000000	1.252497
2470.000000	1.252474
2468.000000	1.252445
2466.000000	1.252450
2464.000000	1.252486
2462.000000	1.252552
2460.000000	1.252560
2458.000000	1.252509
2456.000000	1.252486
2454.000000	1.252456
2452.000000	1.252420
2450.000000	1.252433
2448.000000	1.252465
2446.000000	1.252437
2444.000000	1.252429
2442.000000	1.252439
2440.000000	1.252395
2438.000000	1.252341
2436.000000	1.252362
2434.000000	1.252353
2432.000000	1.252324
2430.000000	1.252360
2428.000000	1.252421
2426.000000	1.252402
2424.000000	1.252341
2422.000000	1.252323
2420.000000	1.252325
2418.000000	1.252307
2416.000000	1.252294
2414.000000	1.252247
2412.000000	1.252220
2410.000000	1.252195
2408.000000	1.252228
2406.000000	1.252280
2404.000000	1.252233
2402.000000	1.252138
2400.000000	1.252115
2398.000000	1.252100
2396.000000	1.252077
2394.000000	1.252031
2392.000000	1.252021
2390.000000	1.252014
2388.000000	1.252032
2386.000000	1.251968
2384.000000	1.251892
2382.000000	1.251732
2380.000000	1.251521
2378.000000	1.251384
2376.000000	1.251159
2374.000000	1.250814
2372.000000	1.250521
2370.000000	1.250252
2368.000000	1.250062
2366.000000	1.249990
2364.000000	1.250038
2362.000000	1.250172
2360.000000	1.250353
2358.000000	1.250666
2356.000000	1.251118
2354.000000	1.251542
2352.000000	1.251851
2350.000000	1.251655
2348.000000	1.250931
2346.000000	1.250506
2344.000000	1.250796
2342.000000	1.251456
2340.000000	1.252158
2338.000000	1.252332
2336.000000	1.251917
2334.000000	1.251432
2332.000000	1.251213
2330.000000	1.251162
2328.000000	1.251179
2326.000000	1.251295
2324.000000	1.251439
2322.000000	1.251479
2320.000000	1.251485
2318.000000	1.251566
2316.000000	1.251688
2314.000000	1.251703
2312.000000	1.251688
2310.000000	1.251703
2308.000000	1.251780
2306.000000	1.251839
2304.000000	1.251822
2302.000000	1.251803
2300.000000	1.251817
2298.000000	1.251782
2296.000000	1.251857
2294.000000	1.251904
2292.000000	1.251892
2290.000000	1.251872
2288.000000	1.251886
2286.000000	1.251963
2284.000000	1.252034
2282.000000	1.251939
2280.000000	1.251851
2278.000000	1.251848
2276.000000	1.251907
2274.000000	1.251863
2272.000000	1.251867
2270.000000	1.251937
2268.000000	1.251919
2266.000000	1.251785
2264.000000	1.251743
2262.000000	1.251741
2260.000000	1.251776
2258.000000	1.251734
2256.000000	1.251718
2254.000000	1.251746
2252.000000	1.251708
2250.000000	1.251695
2248.000000	1.251681
2246.000000	1.251647
2244.000000	1.251689
2242.000000	1.251668
2240.000000	1.251579
2238.000000	1.251478
2236.000000	1.251405
2234.000000	1.251352
2232.000000	1.251343
2230.000000	1.251371
2228.000000	1.251301
2226.000000	1.251220
2224.000000	1.251213
2222.000000	1.251207
2220.000000	1.251185
2218.000000	1.251118
2216.000000	1.251055
2214.000000	1.250997
2212.000000	1.250958
2210.000000	1.250920
2208.000000	1.250863
2206.000000	1.250832
2204.000000	1.250818
2202.000000	1.250791
2200.000000	1.250750
2198.000000	1.250643
2196.000000	1.250580
2194.000000	1.250562
2192.000000	1.250526
2190.000000	1.250475
2188.000000	1.250459
2186.000000	1.250450
2184.000000	1.250436
2182.000000	1.250311
2180.000000	1.250233
2178.000000	1.250220
2176.000000	1.250168
2174.000000	1.250064
2172.000000	1.249989
2170.000000	1.249954
2168.000000	1.250028
2166.000000	1.249980
2164.000000	1.249850
2162.000000	1.249715
2160.000000	1.249670
2158.000000	1.249630
2156.000000	1.249612
2154.000000	1.249585
2152.000000	1.249535
2150.000000	1.249407
2148.000000	1.249317
2146.000000	1.249278
2144.000000	1.249291
2142.000000	1.249233
2140.000000	1.249141
2138.000000	1.249055
2136.000000	1.249025
2134.000000	1.248990
2132.000000	1.248972
2130.000000	1.248881
2128.000000	1.248783
2126.000000	1.248731
2124.000000	1.248786
2122.000000	1.248789
2120.000000	1.248650
2118.000000	1.248558
2116.000000	1.248539
2114.000000	1.248523
2112.000000	1.248527
2110.000000	1.248412
2108.000000	1.248285
2106.000000	1.248218
2104.000000	1.248208
2102.000000	1.248245
2100.000000	1.248250
2098.000000	1.248150
2096.000000	1.248094
2094.000000	1.248070
2092.000000	1.248032
2090.000000	1.248000
2088.000000	1.247954
2086.000000	1.247850
2084.000000	1.247786
2082.000000	1.247751
2080.000000	1.247770
2078.000000	1.247754
2076.000000	1.247702
2074.000000	1.247649
2072.000000	1.247644
2070.000000	1.247601
2068.000000	1.247514
2066.000000	1.247417
2064.000000	1.247407
2062.000000	1.247394
2060.000000	1.247358
2058.000000	1.247293
2056.000000	1.247296
2054.000000	1.247250
2052.000000	1.247189
2050.000000	1.247094
2048.000000	1.247073
2046.000000	1.247066
2044.000000	1.247110
2042.000000	1.247077
2040.000000	1.247067
2038.000000	1.247078
2036.000000	1.246943
2034.000000	1.246790
2032.000000	1.246714
2030.000000	1.246675
2028.000000	1.246743
2026.000000	1.246704
2024.000000	1.246627
2022.000000	1.246585
2020.000000	1.246509
2018.000000	1.246421
2016.000000	1.246566
2014.000000	1.246627
2012.000000	1.246552
2010.000000	1.246487
2008.000000	1.246481
2006.000000	1.246488
2004.000000	1.246447
2002.000000	1.246350
2000.000000	1.246349
1998.000000	1.246358
1996.000000	1.246273
1994.000000	1.245983
1992.000000	1.246010
1990.000000	1.246188
1988.000000	1.246154
1986.000000	1.246163
1984.000000	1.246167
1982.000000	1.246123
1980.000000	1.246123
1978.000000	1.246100
1976.000000	1.246019
1974.000000	1.246018
1972.000000	1.246028
1970.000000	1.245854
1968.000000	1.245721
1966.000000	1.245840
1964.000000	1.245959
1962.000000	1.245887
1960.000000	1.245857
1958.000000	1.246040
1956.000000	1.246014
1954.000000	1.245872
1952.000000	1.245868
1950.000000	1.245840
1948.000000	1.245892
1946.000000	1.245795
1944.000000	1.245457
1942.000000	1.245618
1940.000000	1.246085
1938.000000	1.246064
1936.000000	1.246011
1934.000000	1.245910
1932.000000	1.245883
1930.000000	1.245865
1928.000000	1.245892
1926.000000	1.245769
1924.000000	1.245561
1922.000000	1.245667
1920.000000	1.245347
1918.000000	1.245292
1916.000000	1.246136
1914.000000	1.246175
1912.000000	1.245983
1910.000000	1.245904
1908.000000	1.246117
1906.000000	1.246185
1904.000000	1.246226
1902.000000	1.246262
1900.000000	1.246248
1898.000000	1.246043
1896.000000	1.245991
1894.000000	1.246069
1892.000000	1.245882
1890.000000	1.245681
1888.000000	1.246248
1886.000000	1.246351
1884.000000	1.246265
1882.000000	1.246215
1880.000000	1.246210
1878.000000	1.246136
1876.000000	1.246200
1874.000000	1.246105
1872.000000	1.245380
1870.000000	1.244515
1868.000000	1.245379
1866.000000	1.246248
1864.000000	1.246221
1862.000000	1.246018
1860.000000	1.246101
1858.000000	1.246131
1856.000000	1.246163
1854.000000	1.246099
1852.000000	1.246140
1850.000000	1.245904
1848.000000	1.245364
1846.000000	1.243735
1844.000000	1.244080
1842.000000	1.246189
1840.000000	1.246273
1838.000000	1.245945
1836.000000	1.246058
1834.000000	1.245912
1832.000000	1.244923
1830.000000	1.244752
1828.000000	1.245557
1826.000000	1.245240
1824.000000	1.245884
1822.000000	1.246368
1820.000000	1.246220
1818.000000	1.246132
1816.000000	1.246260
1814.000000	1.246022
1812.000000	1.245741
1810.000000	1.245942
1808.000000	1.246281
1806.000000	1.246116
1804.000000	1.245706
1802.000000	1.245178
1800.000000	1.245500
1798.000000	1.245954
1796.000000	1.245335
1794.000000	1.243438
1792.000000	1.244074
1790.000000	1.246151
1788.000000	1.246182
1786.000000	1.245447
1784.000000	1.245708
1782.000000	1.245626
1780.000000	1.245797
1778.000000	1.245987
1776.000000	1.244794
1774.000000	1.242334
1772.000000	1.243245
1770.000000	1.245234
1768.000000	1.245532
1766.000000	1.246465
1764.000000	1.245254
1762.000000	1.244792
1760.000000	1.245952
1758.000000	1.245562
1756.000000	1.245937
1754.000000	1.245255
1752.000000	1.243293
1750.000000	1.244518
1748.000000	1.245879
1746.000000	1.246212
1744.000000	1.245993
1742.000000	1.245182
1740.000000	1.245077
1738.000000	1.245623
1736.000000	1.241354
1734.000000	1.241132
1732.000000	1.246482
1730.000000	1.247351
1728.000000	1.247481
1726.000000	1.247400
1724.000000	1.247300
1722.000000	1.246705
1720.000000	1.243123
1718.000000	1.240931
1716.000000	1.244871
1714.000000	1.247318
1712.000000	1.247811
1710.000000	1.247251
1708.000000	1.246405
1706.000000	1.245713
1704.000000	1.245566
1702.000000	1.240714
1700.000000	1.241184
1698.000000	1.243065
1696.000000	1.242846
1694.000000	1.248211
1692.000000	1.248727
1690.000000	1.247598
1688.000000	1.245619
1686.000000	1.240323
1684.000000	1.242716
1682.000000	1.248450
1680.000000	1.248471
1678.000000	1.246969
1676.000000	1.245251
1674.000000	1.247186
1672.000000	1.246690
1670.000000	1.245686
1668.000000	1.248095
1666.000000	1.248717
1664.000000	1.247032
1662.000000	1.247974
1660.000000	1.249297
1658.000000	1.248380
1656.000000	1.242591
1654.000000	1.236405
1652.000000	1.243981
1650.000000	1.248911
1648.000000	1.245029
1646.000000	1.246153
1644.000000	1.249729
1642.000000	1.249933
1640.000000	1.248854
1638.000000	1.245547
1636.000000	1.244161
1634.000000	1.248862
1632.000000	1.250516
1630.000000	1.249250
1628.000000	1.248806
1626.000000	1.248315
1624.000000	1.247475
1622.000000	1.248865
1620.000000	1.248121
1618.000000	1.244647
1616.000000	1.246871
1614.000000	1.250195
1612.000000	1.249578
1610.000000	1.249623
1608.000000	1.250318
1606.000000	1.251039
1604.000000	1.251152
1602.000000	1.251342
1600.000000	1.251356
1598.000000	1.251292
1596.000000	1.251075
1594.000000	1.251163
1592.000000	1.251189
1590.000000	1.251132
1588.000000	1.251075
1586.000000	1.251052
1584.000000	1.251039
1582.000000	1.251228
1580.000000	1.250330
1578.000000	1.246368
1576.000000	1.246721
1574.000000	1.251161
1572.000000	1.249546
1570.000000	1.248329
1568.000000	1.250171
1566.000000	1.250534
1564.000000	1.249541
1562.000000	1.244351
1560.000000	1.238803
1558.000000	1.244503
1556.000000	1.249003
1554.000000	1.249670
1552.000000	1.250790
1550.000000	1.250740
1548.000000	1.250468
1546.000000	1.248685
1544.000000	1.246426
1542.000000	1.242820
1540.000000	1.242935
1538.000000	1.249417
1536.000000	1.250411
1534.000000	1.248589
1532.000000	1.250327
1530.000000	1.250371
1528.000000	1.248838
1526.000000	1.248039
1524.000000	1.246452
1522.000000	1.244536
1520.000000	1.247433
1518.000000	1.248482
1516.000000	1.249029
1514.000000	1.249683
1512.000000	1.249150
1510.000000	1.246689
1508.000000	1.241762
1506.000000	1.244069
1504.000000	1.249565
1502.000000	1.248422
1500.000000	1.245017
1498.000000	1.242669
1496.000000	1.245513
1494.000000	1.250906
1492.000000	1.251953
1490.000000	1.251895
1488.000000	1.252618
1486.000000	1.252900
1484.000000	1.252493
1482.000000	1.251546
1480.000000	1.251099
1478.000000	1.249915
1476.000000	1.248296
1474.000000	1.246453
1472.000000	1.248050
1470.000000	1.250657
1468.000000	1.250000
1466.000000	1.248439
1464.000000	1.249414
1462.000000	1.249955
1460.000000	1.246438
1458.000000	1.242268
1456.000000	1.245423
1454.000000	1.249409
1452.000000	1.249955
1450.000000	1.250895
1448.000000	1.251561
1446.000000	1.251840
1444.000000	1.251139
1442.000000	1.250785
1440.000000	1.249617
1438.000000	1.247168
1436.000000	1.248487
1434.000000	1.250703
1432.000000	1.249914
1430.000000	1.249775
1428.000000	1.250264
1426.000000	1.250112
1424.000000	1.249665
1422.000000	1.248318
1420.000000	1.246341
1418.000000	1.248578
1416.000000	1.250226
1414.000000	1.250125
1412.000000	1.249710
1410.000000	1.249509
1408.000000	1.248980
1406.000000	1.248642
1404.000000	1.249506
1402.000000	1.250230
1400.000000	1.249773
1398.000000	1.250018
1396.000000	1.249427
1394.000000	1.249743
1392.000000	1.250413
1390.000000	1.249415
1388.000000	1.248379
1386.000000	1.249253
1384.000000	1.250032
1382.000000	1.250203
1380.000000	1.249997
1378.000000	1.249722
1376.000000	1.249129
1374.000000	1.249102
1372.000000	1.249614
1370.000000	1.249581
1368.000000	1.249533
1366.000000	1.249231
1364.000000	1.248432
1362.000000	1.248631
1360.000000	1.249205
1358.000000	1.249335
1356.000000	1.249205
1354.000000	1.249203
1352.000000	1.249181
1350.000000	1.249140
1348.000000	1.249163
1346.000000	1.249068
1344.000000	1.248874
1342.000000	1.248501
1340.000000	1.248187
1338.000000	1.248533
1336.000000	1.248842
1334.000000	1.248882
1332.000000	1.248715
1330.000000	1.248646
1328.000000	1.248618
1326.000000	1.248668
1324.000000	1.248547
1322.000000	1.248276
1320.000000	1.247987
1318.000000	1.248040
1316.000000	1.248020
1314.000000	1.247888
1312.000000	1.247955
1310.000000	1.248055
1308.000000	1.247965
1306.000000	1.247872
1304.000000	1.247733
1302.000000	1.247702
1300.000000	1.247715
1298.000000	1.247685
1296.000000	1.247511
1294.000000	1.247342
1292.000000	1.247289
1290.000000	1.247357
1288.000000	1.247374
1286.000000	1.247450
1284.000000	1.247522
1282.000000	1.247539
1280.000000	1.247527
1278.000000	1.247681
1276.000000	1.247738
1274.000000	1.247674
1272.000000	1.247640
1270.000000	1.247901
1268.000000	1.248487
1266.000000	1.249748
1264.000000	1.251785
1262.000000	1.254462
1260.000000	1.256830
1258.000000	1.257571
1256.000000	1.256389
1254.000000	1.254404
1252.000000	1.252684
1250.000000	1.251600
1248.000000	1.250946
1246.000000	1.250869
1244.000000	1.251009
1242.000000	1.251192
1240.000000	1.251452
1238.000000	1.251668
1236.000000	1.251766
1234.000000	1.251980
1232.000000	1.252206
1230.000000	1.252592
1228.000000	1.252947
1226.000000	1.253162
1224.000000	1.253357
1222.000000	1.253569
1220.000000	1.253770
1218.000000	1.254148
1216.000000	1.254534
1214.000000	1.254796
1212.000000	1.255024
1210.000000	1.255413
1208.000000	1.255717
1206.000000	1.256047
1204.000000	1.256354
1202.000000	1.256653
1200.000000	1.256838
1198.000000	1.257173
1196.000000	1.257474
1194.000000	1.257721
1192.000000	1.258178
1190.000000	1.258696
1188.000000	1.258916
1186.000000	1.258930
1184.000000	1.258895
1182.000000	1.259285
1180.000000	1.260396
1178.000000	1.261349
1176.000000	1.261502
1174.000000	1.261610
1172.000000	1.261941
1170.000000	1.262385
1168.000000	1.262648
1166.000000	1.262984
1164.000000	1.263312
1162.000000	1.263628
1160.000000	1.263924
1158.000000	1.264470
1156.000000	1.265105
1154.000000	1.265542
1152.000000	1.265873
1150.000000	1.266264
1148.000000	1.266633
1146.000000	1.266968
1144.000000	1.267195
1142.000000	1.267559
1140.000000	1.267893
1138.000000	1.268034
1136.000000	1.268139
1134.000000	1.268486
1132.000000	1.268877
1130.000000	1.269235
1128.000000	1.269419
1126.000000	1.269516
1124.000000	1.269597
1122.000000	1.269925
1120.000000	1.270287
1118.000000	1.270656
1116.000000	1.271061
1114.000000	1.271572
1112.000000	1.271952
1110.000000	1.272395
1108.000000	1.272992
1106.000000	1.273510
1104.000000	1.273903
1102.000000	1.274495
1100.000000	1.274850
1098.000000	1.275286
1096.000000	1.275633
1094.000000	1.275692
1092.000000	1.275701
1090.000000	1.275847
1088.000000	1.275973
1086.000000	1.275838
1084.000000	1.275572
1082.000000	1.275672
1080.000000	1.275942
1078.000000	1.275699
1076.000000	1.275253
1074.000000	1.275279
1072.000000	1.275058
1070.000000	1.274320
1068.000000	1.273265
1066.000000	1.272720
1064.000000	1.272738
1062.000000	1.272617
1060.000000	1.271713
1058.000000	1.271095
1056.000000	1.270244
1054.000000	1.268771
1052.000000	1.268563
1050.000000	1.270054
1048.000000	1.271205
1046.000000	1.270699
1044.000000	1.269403
1042.000000	1.268501
1040.000000	1.267849
1038.000000	1.267433
1036.000000	1.266404
1034.000000	1.265554
1032.000000	1.265369
1030.000000	1.265235
1028.000000	1.264732
1026.000000	1.264298
1024.000000	1.264411
1022.000000	1.264453
1020.000000	1.263668
1018.000000	1.262761
1016.000000	1.262030
1014.000000	1.260952
1012.000000	1.259226
1010.000000	1.257727
1008.000000	1.256456
1006.000000	1.254455
1004.000000	1.252469
1002.000000	1.251028
1000.000000	1.249400
