PE IR       SUBTECH     SPECTRUM    ASCII       PEDS        4.00        
   -1
TE108B1_002_80K.ASC
20/02/21
14:17:42.00
20/02/21
14:17:42.00
Administrator
Sample 002 By Administrator Date Friday, February 21 2020
1500.000000
#HDR
-1
-1
#GR
cm-1
A
1.0
0.0
4000.000000
-1.000000
2501
8
1.062184
0.977083
#DATA
4000.000000	0.991177
3999.000000	0.991185
3998.000000	0.991197
3997.000000	0.991201
3996.000000	0.991190
3995.000000	0.991163
3994.000000	0.991128
3993.000000	0.991092
3992.000000	0.991060
3991.000000	0.991036
3990.000000	0.991023
3989.000000	0.991022
3988.000000	0.991030
3987.000000	0.991041
3986.000000	0.991051
3985.000000	0.991053
3984.000000	0.991048
3983.000000	0.991034
3982.000000	0.991014
3981.000000	0.990991
3980.000000	0.990967
3979.000000	0.990939
3978.000000	0.990903
3977.000000	0.990853
3976.000000	0.990793
3975.000000	0.990730
3974.000000	0.990669
3973.000000	0.990612
3972.000000	0.990554
3971.000000	0.990495
3970.000000	0.990435
3969.000000	0.990376
3968.000000	0.990326
3967.000000	0.990287
3966.000000	0.990259
3965.000000	0.990228
3964.000000	0.990179
3963.000000	0.990105
3962.000000	0.990009
3961.000000	0.989903
3960.000000	0.989799
3959.000000	0.989703
3958.000000	0.989618
3957.000000	0.989540
3956.000000	0.989471
3955.000000	0.989408
3954.000000	0.989347
3953.000000	0.989279
3952.000000	0.989197
3951.000000	0.989099
3950.000000	0.988989
3949.000000	0.988878
3948.000000	0.988779
3947.000000	0.988695
3946.000000	0.988613
3945.000000	0.988516
3944.000000	0.988397
3943.000000	0.988271
3942.000000	0.988158
3941.000000	0.988067
3940.000000	0.987990
3939.000000	0.987908
3938.000000	0.987809
3937.000000	0.987690
3936.000000	0.987554
3935.000000	0.987408
3934.000000	0.987256
3933.000000	0.987106
3932.000000	0.986968
3931.000000	0.986854
3930.000000	0.986761
3929.000000	0.986674
3928.000000	0.986573
3927.000000	0.986448
3926.000000	0.986306
3925.000000	0.986168
3924.000000	0.986048
3923.000000	0.985942
3922.000000	0.985829
3921.000000	0.985692
3920.000000	0.985531
3919.000000	0.985366
3918.000000	0.985221
3917.000000	0.985113
3916.000000	0.985038
3915.000000	0.984975
3914.000000	0.984901
3913.000000	0.984801
3912.000000	0.984674
3911.000000	0.984535
3910.000000	0.984401
3909.000000	0.984271
3908.000000	0.984125
3907.000000	0.983937
3906.000000	0.983698
3905.000000	0.983434
3904.000000	0.983189
3903.000000	0.983000
3902.000000	0.982870
3901.000000	0.982782
3900.000000	0.982722
3899.000000	0.982686
3898.000000	0.982672
3897.000000	0.982664
3896.000000	0.982632
3895.000000	0.982545
3894.000000	0.982391
3893.000000	0.982193
3892.000000	0.982007
3891.000000	0.981888
3890.000000	0.981839
3889.000000	0.981799
3888.000000	0.981691
3887.000000	0.981501
3886.000000	0.981298
3885.000000	0.981172
3884.000000	0.981148
3883.000000	0.981159
3882.000000	0.981120
3881.000000	0.981012
3880.000000	0.980892
3879.000000	0.980822
3878.000000	0.980797
3877.000000	0.980765
3876.000000	0.980689
3875.000000	0.980576
3874.000000	0.980445
3873.000000	0.980283
3872.000000	0.980068
3871.000000	0.979820
3870.000000	0.979616
3869.000000	0.979523
3868.000000	0.979531
3867.000000	0.979558
3866.000000	0.979523
3865.000000	0.979422
3864.000000	0.979313
3863.000000	0.979251
3862.000000	0.979243
3861.000000	0.979261
3860.000000	0.979281
3859.000000	0.979280
3858.000000	0.979198
3857.000000	0.978949
3856.000000	0.978493
3855.000000	0.977922
3854.000000	0.977446
3853.000000	0.977270
3852.000000	0.977447
3851.000000	0.977847
3850.000000	0.978262
3849.000000	0.978538
3848.000000	0.978644
3847.000000	0.978627
3846.000000	0.978547
3845.000000	0.978444
3844.000000	0.978344
3843.000000	0.978261
3842.000000	0.978179
3841.000000	0.978047
3840.000000	0.977825
3839.000000	0.977549
3838.000000	0.977329
3837.000000	0.977269
3836.000000	0.977380
3835.000000	0.977572
3834.000000	0.977729
3833.000000	0.977799
3832.000000	0.977806
3831.000000	0.977809
3830.000000	0.977834
3829.000000	0.977865
3828.000000	0.977878
3827.000000	0.977874
3826.000000	0.977860
3825.000000	0.977821
3824.000000	0.977717
3823.000000	0.977543
3822.000000	0.977366
3821.000000	0.977282
3820.000000	0.977311
3819.000000	0.977365
3818.000000	0.977331
3817.000000	0.977197
3816.000000	0.977083
3815.000000	0.977123
3814.000000	0.977337
3813.000000	0.977618
3812.000000	0.977834
3811.000000	0.977914
3810.000000	0.977858
3809.000000	0.977706
3808.000000	0.977532
3807.000000	0.977430
3806.000000	0.977450
3805.000000	0.977535
3804.000000	0.977562
3803.000000	0.977465
3802.000000	0.977320
3801.000000	0.977279
3800.000000	0.977420
3799.000000	0.977671
3798.000000	0.977895
3797.000000	0.978023
3796.000000	0.978088
3795.000000	0.978159
3794.000000	0.978264
3793.000000	0.978378
3792.000000	0.978468
3791.000000	0.978530
3790.000000	0.978578
3789.000000	0.978623
3788.000000	0.978664
3787.000000	0.978700
3786.000000	0.978739
3785.000000	0.978791
3784.000000	0.978853
3783.000000	0.978908
3782.000000	0.978935
3781.000000	0.978926
3780.000000	0.978906
3779.000000	0.978917
3778.000000	0.978990
3777.000000	0.979121
3776.000000	0.979272
3775.000000	0.979407
3774.000000	0.979502
3773.000000	0.979541
3772.000000	0.979527
3771.000000	0.979488
3770.000000	0.979474
3769.000000	0.979519
3768.000000	0.979612
3767.000000	0.979715
3766.000000	0.979807
3765.000000	0.979895
3764.000000	0.979994
3763.000000	0.980086
3762.000000	0.980143
3761.000000	0.980156
3760.000000	0.980155
3759.000000	0.980188
3758.000000	0.980281
3757.000000	0.980413
3756.000000	0.980521
3755.000000	0.980535
3754.000000	0.980421
3753.000000	0.980206
3752.000000	0.979977
3751.000000	0.979857
3750.000000	0.979929
3749.000000	0.980172
3748.000000	0.980441
3747.000000	0.980555
3746.000000	0.980457
3745.000000	0.980290
3744.000000	0.980291
3743.000000	0.980582
3742.000000	0.981064
3741.000000	0.981514
3740.000000	0.981770
3739.000000	0.981817
3738.000000	0.981747
3737.000000	0.981665
3736.000000	0.981637
3735.000000	0.981682
3734.000000	0.981791
3733.000000	0.981947
3732.000000	0.982148
3731.000000	0.982396
3730.000000	0.982668
3729.000000	0.982916
3728.000000	0.983100
3727.000000	0.983227
3726.000000	0.983339
3725.000000	0.983467
3724.000000	0.983616
3723.000000	0.983778
3722.000000	0.983957
3721.000000	0.984167
3720.000000	0.984406
3719.000000	0.984656
3718.000000	0.984901
3717.000000	0.985127
3716.000000	0.985294
3715.000000	0.985353
3714.000000	0.985351
3713.000000	0.985526
3712.000000	0.986228
3711.000000	0.987614
3710.000000	0.989387
3709.000000	0.990898
3708.000000	0.991609
3707.000000	0.991480
3706.000000	0.990927
3705.000000	0.990424
3704.000000	0.990186
3703.000000	0.990179
3702.000000	0.990320
3701.000000	0.990579
3700.000000	0.990946
3699.000000	0.991373
3698.000000	0.991803
3697.000000	0.992216
3696.000000	0.992625
3695.000000	0.993039
3694.000000	0.993446
3693.000000	0.993824
3692.000000	0.994148
3691.000000	0.994415
3690.000000	0.994667
3689.000000	0.995004
3688.000000	0.995524
3687.000000	0.996248
3686.000000	0.997088
3685.000000	0.997916
3684.000000	0.998655
3683.000000	0.999316
3682.000000	0.999955
3681.000000	1.000615
3680.000000	1.001279
3679.000000	1.001886
3678.000000	1.002385
3677.000000	1.002816
3676.000000	1.003315
3675.000000	1.004012
3674.000000	1.004895
3673.000000	1.005810
3672.000000	1.006610
3671.000000	1.007304
3670.000000	1.008035
3669.000000	1.008916
3668.000000	1.009923
3667.000000	1.010938
3666.000000	1.011868
3665.000000	1.012702
3664.000000	1.013475
3663.000000	1.014222
3662.000000	1.014964
3661.000000	1.015711
3660.000000	1.016443
3659.000000	1.017127
3658.000000	1.017751
3657.000000	1.018359
3656.000000	1.019025
3655.000000	1.019775
3654.000000	1.020545
3653.000000	1.021225
3652.000000	1.021753
3651.000000	1.022171
3650.000000	1.022600
3649.000000	1.023149
3648.000000	1.023852
3647.000000	1.024661
3646.000000	1.025487
3645.000000	1.026252
3644.000000	1.026923
3643.000000	1.027518
3642.000000	1.028080
3641.000000	1.028632
3640.000000	1.029168
3639.000000	1.029669
3638.000000	1.030125
3637.000000	1.030547
3636.000000	1.030955
3635.000000	1.031370
3634.000000	1.031797
3633.000000	1.032198
3632.000000	1.032503
3631.000000	1.032682
3630.000000	1.032810
3629.000000	1.033033
3628.000000	1.033446
3627.000000	1.034008
3626.000000	1.034581
3625.000000	1.035055
3624.000000	1.035405
3623.000000	1.035668
3622.000000	1.035875
3621.000000	1.036051
3620.000000	1.036233
3619.000000	1.036473
3618.000000	1.036788
3617.000000	1.037135
3616.000000	1.037442
3615.000000	1.037668
3614.000000	1.037830
3613.000000	1.037974
3612.000000	1.038127
3611.000000	1.038280
3610.000000	1.038422
3609.000000	1.038568
3608.000000	1.038744
3607.000000	1.038948
3606.000000	1.039148
3605.000000	1.039334
3604.000000	1.039565
3603.000000	1.039932
3602.000000	1.040451
3601.000000	1.041008
3600.000000	1.041420
3599.000000	1.041580
3598.000000	1.041523
3597.000000	1.041373
3596.000000	1.041240
3595.000000	1.041170
3594.000000	1.041162
3593.000000	1.041193
3592.000000	1.041235
3591.000000	1.041258
3590.000000	1.041249
3589.000000	1.041223
3588.000000	1.041219
3587.000000	1.041266
3586.000000	1.041366
3585.000000	1.041494
3584.000000	1.041619
3583.000000	1.041719
3582.000000	1.041784
3581.000000	1.041822
3580.000000	1.041844
3579.000000	1.041865
3578.000000	1.041890
3577.000000	1.041919
3576.000000	1.041947
3575.000000	1.041977
3574.000000	1.042011
3573.000000	1.042046
3572.000000	1.042065
3571.000000	1.042051
3570.000000	1.041997
3569.000000	1.041924
3568.000000	1.041871
3567.000000	1.041872
3566.000000	1.041929
3565.000000	1.042015
3564.000000	1.042090
3563.000000	1.042135
3562.000000	1.042158
3561.000000	1.042178
3560.000000	1.042208
3559.000000	1.042247
3558.000000	1.042285
3557.000000	1.042312
3556.000000	1.042323
3555.000000	1.042322
3554.000000	1.042324
3553.000000	1.042347
3552.000000	1.042395
3551.000000	1.042449
3550.000000	1.042476
3549.000000	1.042456
3548.000000	1.042403
3547.000000	1.042355
3546.000000	1.042345
3545.000000	1.042384
3544.000000	1.042456
3543.000000	1.042538
3542.000000	1.042608
3541.000000	1.042653
3540.000000	1.042667
3539.000000	1.042653
3538.000000	1.042626
3537.000000	1.042606
3536.000000	1.042606
3535.000000	1.042628
3534.000000	1.042659
3533.000000	1.042685
3532.000000	1.042699
3531.000000	1.042709
3530.000000	1.042724
3529.000000	1.042742
3528.000000	1.042756
3527.000000	1.042765
3526.000000	1.042777
3525.000000	1.042807
3524.000000	1.042859
3523.000000	1.042921
3522.000000	1.042980
3521.000000	1.043031
3520.000000	1.043077
3519.000000	1.043120
3518.000000	1.043159
3517.000000	1.043190
3516.000000	1.043215
3515.000000	1.043244
3514.000000	1.043281
3513.000000	1.043323
3512.000000	1.043362
3511.000000	1.043395
3510.000000	1.043424
3509.000000	1.043452
3508.000000	1.043483
3507.000000	1.043520
3506.000000	1.043561
3505.000000	1.043604
3504.000000	1.043649
3503.000000	1.043700
3502.000000	1.043760
3501.000000	1.043827
3500.000000	1.043899
3499.000000	1.043975
3498.000000	1.044053
3497.000000	1.044125
3496.000000	1.044184
3495.000000	1.044231
3494.000000	1.044279
3493.000000	1.044335
3492.000000	1.044394
3491.000000	1.044439
3490.000000	1.044466
3489.000000	1.044486
3488.000000	1.044523
3487.000000	1.044595
3486.000000	1.044699
3485.000000	1.044808
3484.000000	1.044898
3483.000000	1.044961
3482.000000	1.045009
3481.000000	1.045060
3480.000000	1.045125
3479.000000	1.045206
3478.000000	1.045296
3477.000000	1.045385
3476.000000	1.045468
3475.000000	1.045546
3474.000000	1.045627
3473.000000	1.045713
3472.000000	1.045797
3471.000000	1.045875
3470.000000	1.045951
3469.000000	1.046032
3468.000000	1.046124
3467.000000	1.046227
3466.000000	1.046340
3465.000000	1.046455
3464.000000	1.046563
3463.000000	1.046663
3462.000000	1.046764
3461.000000	1.046876
3460.000000	1.047000
3459.000000	1.047124
3458.000000	1.047244
3457.000000	1.047356
3456.000000	1.047464
3455.000000	1.047568
3454.000000	1.047673
3453.000000	1.047780
3452.000000	1.047890
3451.000000	1.047995
3450.000000	1.048093
3449.000000	1.048189
3448.000000	1.048295
3447.000000	1.048418
3446.000000	1.048556
3445.000000	1.048699
3444.000000	1.048838
3443.000000	1.048972
3442.000000	1.049096
3441.000000	1.049211
3440.000000	1.049321
3439.000000	1.049436
3438.000000	1.049563
3437.000000	1.049690
3436.000000	1.049807
3435.000000	1.049914
3434.000000	1.050028
3433.000000	1.050159
3432.000000	1.050306
3431.000000	1.050458
3430.000000	1.050610
3429.000000	1.050760
3428.000000	1.050903
3427.000000	1.051033
3426.000000	1.051151
3425.000000	1.051269
3424.000000	1.051393
3423.000000	1.051522
3422.000000	1.051654
3421.000000	1.051786
3420.000000	1.051919
3419.000000	1.052046
3418.000000	1.052165
3417.000000	1.052276
3416.000000	1.052386
3415.000000	1.052503
3414.000000	1.052628
3413.000000	1.052759
3412.000000	1.052889
3411.000000	1.053010
3410.000000	1.053115
3409.000000	1.053208
3408.000000	1.053294
3407.000000	1.053381
3406.000000	1.053472
3405.000000	1.053561
3404.000000	1.053643
3403.000000	1.053715
3402.000000	1.053780
3401.000000	1.053845
3400.000000	1.053915
3399.000000	1.053995
3398.000000	1.054083
3397.000000	1.054175
3396.000000	1.054260
3395.000000	1.054333
3394.000000	1.054396
3393.000000	1.054459
3392.000000	1.054534
3391.000000	1.054627
3390.000000	1.054730
3389.000000	1.054829
3388.000000	1.054910
3387.000000	1.054974
3386.000000	1.055031
3385.000000	1.055085
3384.000000	1.055134
3383.000000	1.055175
3382.000000	1.055212
3381.000000	1.055254
3380.000000	1.055309
3379.000000	1.055371
3378.000000	1.055432
3377.000000	1.055486
3376.000000	1.055537
3375.000000	1.055592
3374.000000	1.055652
3373.000000	1.055704
3372.000000	1.055738
3371.000000	1.055753
3370.000000	1.055766
3369.000000	1.055791
3368.000000	1.055832
3367.000000	1.055884
3366.000000	1.055940
3365.000000	1.055998
3364.000000	1.056054
3363.000000	1.056107
3362.000000	1.056153
3361.000000	1.056193
3360.000000	1.056226
3359.000000	1.056253
3358.000000	1.056276
3357.000000	1.056297
3356.000000	1.056320
3355.000000	1.056347
3354.000000	1.056377
3353.000000	1.056405
3352.000000	1.056428
3351.000000	1.056448
3350.000000	1.056470
3349.000000	1.056494
3348.000000	1.056524
3347.000000	1.056562
3346.000000	1.056608
3345.000000	1.056658
3344.000000	1.056697
3343.000000	1.056718
3342.000000	1.056727
3341.000000	1.056736
3340.000000	1.056750
3339.000000	1.056763
3338.000000	1.056769
3337.000000	1.056777
3336.000000	1.056797
3335.000000	1.056833
3334.000000	1.056871
3333.000000	1.056897
3332.000000	1.056910
3331.000000	1.056923
3330.000000	1.056943
3329.000000	1.056970
3328.000000	1.056995
3327.000000	1.057017
3326.000000	1.057043
3325.000000	1.057082
3324.000000	1.057132
3323.000000	1.057185
3322.000000	1.057230
3321.000000	1.057264
3320.000000	1.057296
3319.000000	1.057338
3318.000000	1.057393
3317.000000	1.057452
3316.000000	1.057499
3315.000000	1.057526
3314.000000	1.057537
3313.000000	1.057544
3312.000000	1.057555
3311.000000	1.057575
3310.000000	1.057604
3309.000000	1.057640
3308.000000	1.057681
3307.000000	1.057726
3306.000000	1.057773
3305.000000	1.057818
3304.000000	1.057855
3303.000000	1.057888
3302.000000	1.057924
3301.000000	1.057971
3300.000000	1.058027
3299.000000	1.058081
3298.000000	1.058124
3297.000000	1.058155
3296.000000	1.058184
3295.000000	1.058222
3294.000000	1.058271
3293.000000	1.058323
3292.000000	1.058367
3291.000000	1.058408
3290.000000	1.058454
3289.000000	1.058508
3288.000000	1.058562
3287.000000	1.058607
3286.000000	1.058641
3285.000000	1.058666
3284.000000	1.058687
3283.000000	1.058711
3282.000000	1.058748
3281.000000	1.058801
3280.000000	1.058858
3279.000000	1.058902
3278.000000	1.058922
3277.000000	1.058924
3276.000000	1.058927
3275.000000	1.058948
3274.000000	1.058995
3273.000000	1.059062
3272.000000	1.059133
3271.000000	1.059195
3270.000000	1.059242
3269.000000	1.059271
3268.000000	1.059285
3267.000000	1.059295
3266.000000	1.059313
3265.000000	1.059349
3264.000000	1.059395
3263.000000	1.059438
3262.000000	1.059473
3261.000000	1.059510
3260.000000	1.059557
3259.000000	1.059606
3258.000000	1.059646
3257.000000	1.059674
3256.000000	1.059696
3255.000000	1.059722
3254.000000	1.059752
3253.000000	1.059788
3252.000000	1.059832
3251.000000	1.059884
3250.000000	1.059932
3249.000000	1.059966
3248.000000	1.059988
3247.000000	1.060011
3246.000000	1.060047
3245.000000	1.060093
3244.000000	1.060138
3243.000000	1.060177
3242.000000	1.060216
3241.000000	1.060264
3240.000000	1.060323
3239.000000	1.060384
3238.000000	1.060433
3237.000000	1.060463
3236.000000	1.060476
3235.000000	1.060486
3234.000000	1.060512
3233.000000	1.060566
3232.000000	1.060646
3231.000000	1.060740
3230.000000	1.060833
3229.000000	1.060910
3228.000000	1.060969
3227.000000	1.061022
3226.000000	1.061080
3225.000000	1.061141
3224.000000	1.061194
3223.000000	1.061233
3222.000000	1.061264
3221.000000	1.061299
3220.000000	1.061343
3219.000000	1.061394
3218.000000	1.061448
3217.000000	1.061500
3216.000000	1.061543
3215.000000	1.061569
3214.000000	1.061578
3213.000000	1.061577
3212.000000	1.061572
3211.000000	1.061574
3210.000000	1.061590
3209.000000	1.061618
3208.000000	1.061649
3207.000000	1.061669
3206.000000	1.061678
3205.000000	1.061678
3204.000000	1.061676
3203.000000	1.061675
3202.000000	1.061675
3201.000000	1.061674
3200.000000	1.061673
3199.000000	1.061676
3198.000000	1.061683
3197.000000	1.061687
3196.000000	1.061683
3195.000000	1.061675
3194.000000	1.061676
3193.000000	1.061690
3192.000000	1.061706
3191.000000	1.061711
3190.000000	1.061701
3189.000000	1.061687
3188.000000	1.061678
3187.000000	1.061673
3186.000000	1.061669
3185.000000	1.061664
3184.000000	1.061663
3183.000000	1.061667
3182.000000	1.061675
3181.000000	1.061682
3180.000000	1.061691
3179.000000	1.061701
3178.000000	1.061709
3177.000000	1.061709
3176.000000	1.061701
3175.000000	1.061691
3174.000000	1.061686
3173.000000	1.061688
3172.000000	1.061689
3171.000000	1.061684
3170.000000	1.061672
3169.000000	1.061663
3168.000000	1.061661
3167.000000	1.061668
3166.000000	1.061676
3165.000000	1.061672
3164.000000	1.061655
3163.000000	1.061638
3162.000000	1.061632
3161.000000	1.061641
3160.000000	1.061656
3159.000000	1.061673
3158.000000	1.061693
3157.000000	1.061714
3156.000000	1.061726
3155.000000	1.061721
3154.000000	1.061702
3153.000000	1.061686
3152.000000	1.061683
3151.000000	1.061689
3150.000000	1.061698
3149.000000	1.061704
3148.000000	1.061708
3147.000000	1.061715
3146.000000	1.061724
3145.000000	1.061734
3144.000000	1.061747
3143.000000	1.061766
3142.000000	1.061794
3141.000000	1.061821
3140.000000	1.061838
3139.000000	1.061843
3138.000000	1.061845
3137.000000	1.061854
3136.000000	1.061868
3135.000000	1.061881
3134.000000	1.061893
3133.000000	1.061907
3132.000000	1.061924
3131.000000	1.061943
3130.000000	1.061964
3129.000000	1.061991
3128.000000	1.062022
3127.000000	1.062049
3126.000000	1.062059
3125.000000	1.062047
3124.000000	1.062024
3123.000000	1.062008
3122.000000	1.062014
3121.000000	1.062040
3120.000000	1.062068
3119.000000	1.062082
3118.000000	1.062083
3117.000000	1.062086
3116.000000	1.062101
3115.000000	1.062128
3114.000000	1.062154
3113.000000	1.062174
3112.000000	1.062184
3111.000000	1.062180
3110.000000	1.062156
3109.000000	1.062119
3108.000000	1.062087
3107.000000	1.062077
3106.000000	1.062091
3105.000000	1.062110
3104.000000	1.062115
3103.000000	1.062099
3102.000000	1.062073
3101.000000	1.062047
3100.000000	1.062026
3099.000000	1.062010
3098.000000	1.061993
3097.000000	1.061970
3096.000000	1.061936
3095.000000	1.061895
3094.000000	1.061854
3093.000000	1.061813
3092.000000	1.061767
3091.000000	1.061713
3090.000000	1.061656
3089.000000	1.061605
3088.000000	1.061565
3087.000000	1.061532
3086.000000	1.061497
3085.000000	1.061456
3084.000000	1.061409
3083.000000	1.061359
3082.000000	1.061309
3081.000000	1.061253
3080.000000	1.061185
3079.000000	1.061111
3078.000000	1.061046
3077.000000	1.060999
3076.000000	1.060968
3075.000000	1.060939
3074.000000	1.060900
3073.000000	1.060845
3072.000000	1.060773
3071.000000	1.060692
3070.000000	1.060609
3069.000000	1.060533
3068.000000	1.060463
3067.000000	1.060397
3066.000000	1.060336
3065.000000	1.060283
3064.000000	1.060238
3063.000000	1.060191
3062.000000	1.060134
3061.000000	1.060064
3060.000000	1.059987
3059.000000	1.059908
3058.000000	1.059830
3057.000000	1.059752
3056.000000	1.059676
3055.000000	1.059607
3054.000000	1.059546
3053.000000	1.059491
3052.000000	1.059430
3051.000000	1.059360
3050.000000	1.059283
3049.000000	1.059207
3048.000000	1.059136
3047.000000	1.059069
3046.000000	1.059002
3045.000000	1.058927
3044.000000	1.058844
3043.000000	1.058757
3042.000000	1.058678
3041.000000	1.058613
3040.000000	1.058555
3039.000000	1.058496
3038.000000	1.058433
3037.000000	1.058367
3036.000000	1.058296
3035.000000	1.058221
3034.000000	1.058142
3033.000000	1.058065
3032.000000	1.057990
3031.000000	1.057917
3030.000000	1.057846
3029.000000	1.057775
3028.000000	1.057698
3027.000000	1.057611
3026.000000	1.057519
3025.000000	1.057434
3024.000000	1.057358
3023.000000	1.057285
3022.000000	1.057202
3021.000000	1.057103
3020.000000	1.056983
3019.000000	1.056842
3018.000000	1.056686
3017.000000	1.056529
3016.000000	1.056384
3015.000000	1.056258
3014.000000	1.056155
3013.000000	1.056073
3012.000000	1.056001
3011.000000	1.055922
3010.000000	1.055825
3009.000000	1.055708
3008.000000	1.055579
3007.000000	1.055444
3006.000000	1.055303
3005.000000	1.055160
3004.000000	1.055020
3003.000000	1.054885
3002.000000	1.054751
3001.000000	1.054611
3000.000000	1.054462
2999.000000	1.054306
2998.000000	1.054152
2997.000000	1.054000
2996.000000	1.053847
2995.000000	1.053687
2994.000000	1.053518
2993.000000	1.053348
2992.000000	1.053182
2991.000000	1.053025
2990.000000	1.052874
2989.000000	1.052723
2988.000000	1.052568
2987.000000	1.052404
2986.000000	1.052234
2985.000000	1.052062
2984.000000	1.051894
2983.000000	1.051735
2982.000000	1.051587
2981.000000	1.051442
2980.000000	1.051292
2979.000000	1.051127
2978.000000	1.050951
2977.000000	1.050776
2976.000000	1.050610
2975.000000	1.050452
2974.000000	1.050292
2973.000000	1.050121
2972.000000	1.049938
2971.000000	1.049750
2970.000000	1.049564
2969.000000	1.049382
2968.000000	1.049203
2967.000000	1.049023
2966.000000	1.048840
2965.000000	1.048647
2964.000000	1.048444
2963.000000	1.048237
2962.000000	1.048034
2961.000000	1.047839
2960.000000	1.047641
2959.000000	1.047429
2958.000000	1.047204
2957.000000	1.046977
2956.000000	1.046756
2955.000000	1.046538
2954.000000	1.046319
2953.000000	1.046100
2952.000000	1.045886
2951.000000	1.045677
2950.000000	1.045467
2949.000000	1.045250
2948.000000	1.045027
2947.000000	1.044807
2946.000000	1.044598
2945.000000	1.044405
2944.000000	1.044224
2943.000000	1.044045
2942.000000	1.043860
2941.000000	1.043665
2940.000000	1.043465
2939.000000	1.043262
2938.000000	1.043058
2937.000000	1.042858
2936.000000	1.042670
2935.000000	1.042496
2934.000000	1.042326
2933.000000	1.042147
2932.000000	1.041955
2931.000000	1.041757
2930.000000	1.041552
2929.000000	1.041335
2928.000000	1.041099
2927.000000	1.040853
2926.000000	1.040616
2925.000000	1.040401
2924.000000	1.040204
2923.000000	1.040006
2922.000000	1.039792
2921.000000	1.039564
2920.000000	1.039334
2919.000000	1.039118
2918.000000	1.038917
2917.000000	1.038728
2916.000000	1.038545
2915.000000	1.038366
2914.000000	1.038189
2913.000000	1.038007
2912.000000	1.037817
2911.000000	1.037624
2910.000000	1.037440
2909.000000	1.037264
2908.000000	1.037085
2907.000000	1.036895
2906.000000	1.036701
2905.000000	1.036515
2904.000000	1.036343
2903.000000	1.036178
2902.000000	1.036007
2901.000000	1.035826
2900.000000	1.035638
2899.000000	1.035452
2898.000000	1.035273
2897.000000	1.035098
2896.000000	1.034923
2895.000000	1.034754
2894.000000	1.034594
2893.000000	1.034439
2892.000000	1.034276
2891.000000	1.034096
2890.000000	1.033909
2889.000000	1.033732
2888.000000	1.033570
2887.000000	1.033419
2886.000000	1.033269
2885.000000	1.033112
2884.000000	1.032947
2883.000000	1.032773
2882.000000	1.032598
2881.000000	1.032432
2880.000000	1.032278
2879.000000	1.032131
2878.000000	1.031984
2877.000000	1.031834
2876.000000	1.031684
2875.000000	1.031540
2874.000000	1.031404
2873.000000	1.031272
2872.000000	1.031136
2871.000000	1.030992
2870.000000	1.030844
2869.000000	1.030703
2868.000000	1.030569
2867.000000	1.030432
2866.000000	1.030284
2865.000000	1.030126
2864.000000	1.029965
2863.000000	1.029799
2862.000000	1.029623
2861.000000	1.029441
2860.000000	1.029267
2859.000000	1.029113
2858.000000	1.028976
2857.000000	1.028849
2856.000000	1.028728
2855.000000	1.028615
2854.000000	1.028506
2853.000000	1.028387
2852.000000	1.028253
2851.000000	1.028114
2850.000000	1.027989
2849.000000	1.027884
2848.000000	1.027791
2847.000000	1.027697
2846.000000	1.027595
2845.000000	1.027486
2844.000000	1.027373
2843.000000	1.027267
2842.000000	1.027171
2841.000000	1.027082
2840.000000	1.026995
2839.000000	1.026910
2838.000000	1.026827
2837.000000	1.026746
2836.000000	1.026658
2835.000000	1.026558
2834.000000	1.026448
2833.000000	1.026336
2832.000000	1.026232
2831.000000	1.026134
2830.000000	1.026039
2829.000000	1.025940
2828.000000	1.025835
2827.000000	1.025734
2826.000000	1.025647
2825.000000	1.025573
2824.000000	1.025504
2823.000000	1.025428
2822.000000	1.025347
2821.000000	1.025263
2820.000000	1.025176
2819.000000	1.025085
2818.000000	1.024994
2817.000000	1.024905
2816.000000	1.024822
2815.000000	1.024743
2814.000000	1.024671
2813.000000	1.024605
2812.000000	1.024538
2811.000000	1.024464
2810.000000	1.024385
2809.000000	1.024310
2808.000000	1.024245
2807.000000	1.024183
2806.000000	1.024117
2805.000000	1.024044
2804.000000	1.023966
2803.000000	1.023889
2802.000000	1.023816
2801.000000	1.023747
2800.000000	1.023678
2799.000000	1.023610
2798.000000	1.023546
2797.000000	1.023489
2796.000000	1.023440
2795.000000	1.023393
2794.000000	1.023341
2793.000000	1.023279
2792.000000	1.023206
2791.000000	1.023132
2790.000000	1.023066
2789.000000	1.023015
2788.000000	1.022971
2787.000000	1.022926
2786.000000	1.022880
2785.000000	1.022841
2784.000000	1.022810
2783.000000	1.022779
2782.000000	1.022739
2781.000000	1.022692
2780.000000	1.022644
2779.000000	1.022598
2778.000000	1.022550
2777.000000	1.022496
2776.000000	1.022436
2775.000000	1.022373
2774.000000	1.022313
2773.000000	1.022261
2772.000000	1.022223
2771.000000	1.022195
2770.000000	1.022169
2769.000000	1.022134
2768.000000	1.022090
2767.000000	1.022044
2766.000000	1.022006
2765.000000	1.021979
2764.000000	1.021957
2763.000000	1.021935
2762.000000	1.021912
2761.000000	1.021885
2760.000000	1.021848
2759.000000	1.021801
2758.000000	1.021750
2757.000000	1.021708
2756.000000	1.021678
2755.000000	1.021653
2754.000000	1.021627
2753.000000	1.021597
2752.000000	1.021566
2751.000000	1.021539
2750.000000	1.021519
2749.000000	1.021506
2748.000000	1.021500
2747.000000	1.021495
2746.000000	1.021493
2745.000000	1.021491
2744.000000	1.021487
2743.000000	1.021478
2742.000000	1.021463
2741.000000	1.021446
2740.000000	1.021434
2739.000000	1.021428
2738.000000	1.021423
2737.000000	1.021412
2736.000000	1.021393
2735.000000	1.021372
2734.000000	1.021356
2733.000000	1.021348
2732.000000	1.021340
2731.000000	1.021323
2730.000000	1.021298
2729.000000	1.021271
2728.000000	1.021253
2727.000000	1.021248
2726.000000	1.021256
2725.000000	1.021268
2724.000000	1.021272
2723.000000	1.021263
2722.000000	1.021247
2721.000000	1.021236
2720.000000	1.021236
2719.000000	1.021242
2718.000000	1.021249
2717.000000	1.021252
2716.000000	1.021255
2715.000000	1.021265
2714.000000	1.021282
2713.000000	1.021301
2712.000000	1.021316
2711.000000	1.021322
2710.000000	1.021324
2709.000000	1.021331
2708.000000	1.021345
2707.000000	1.021358
2706.000000	1.021363
2705.000000	1.021363
2704.000000	1.021370
2703.000000	1.021392
2702.000000	1.021427
2701.000000	1.021467
2700.000000	1.021500
2699.000000	1.021526
2698.000000	1.021547
2697.000000	1.021570
2696.000000	1.021594
2695.000000	1.021619
2694.000000	1.021646
2693.000000	1.021675
2692.000000	1.021705
2691.000000	1.021735
2690.000000	1.021768
2689.000000	1.021804
2688.000000	1.021842
2687.000000	1.021879
2686.000000	1.021915
2685.000000	1.021953
2684.000000	1.021993
2683.000000	1.022031
2682.000000	1.022068
2681.000000	1.022111
2680.000000	1.022164
2679.000000	1.022223
2678.000000	1.022276
2677.000000	1.022319
2676.000000	1.022360
2675.000000	1.022407
2674.000000	1.022462
2673.000000	1.022521
2672.000000	1.022581
2671.000000	1.022640
2670.000000	1.022697
2669.000000	1.022750
2668.000000	1.022799
2667.000000	1.022847
2666.000000	1.022899
2665.000000	1.022953
2664.000000	1.023002
2663.000000	1.023046
2662.000000	1.023092
2661.000000	1.023150
2660.000000	1.023225
2659.000000	1.023308
2658.000000	1.023385
2657.000000	1.023454
2656.000000	1.023518
2655.000000	1.023584
2654.000000	1.023654
2653.000000	1.023730
2652.000000	1.023811
2651.000000	1.023898
2650.000000	1.023986
2649.000000	1.024070
2648.000000	1.024150
2647.000000	1.024226
2646.000000	1.024302
2645.000000	1.024377
2644.000000	1.024456
2643.000000	1.024542
2642.000000	1.024636
2641.000000	1.024733
2640.000000	1.024831
2639.000000	1.024928
2638.000000	1.025023
2637.000000	1.025115
2636.000000	1.025204
2635.000000	1.025291
2634.000000	1.025376
2633.000000	1.025458
2632.000000	1.025540
2631.000000	1.025626
2630.000000	1.025718
2629.000000	1.025811
2628.000000	1.025899
2627.000000	1.025986
2626.000000	1.026080
2625.000000	1.026183
2624.000000	1.026287
2623.000000	1.026388
2622.000000	1.026488
2621.000000	1.026591
2620.000000	1.026690
2619.000000	1.026779
2618.000000	1.026859
2617.000000	1.026942
2616.000000	1.027036
2615.000000	1.027139
2614.000000	1.027245
2613.000000	1.027348
2612.000000	1.027453
2611.000000	1.027562
2610.000000	1.027673
2609.000000	1.027781
2608.000000	1.027886
2607.000000	1.027991
2606.000000	1.028100
2605.000000	1.028214
2604.000000	1.028333
2603.000000	1.028451
2602.000000	1.028560
2601.000000	1.028659
2600.000000	1.028753
2599.000000	1.028854
2598.000000	1.028964
2597.000000	1.029081
2596.000000	1.029198
2595.000000	1.029316
2594.000000	1.029433
2593.000000	1.029545
2592.000000	1.029652
2591.000000	1.029755
2590.000000	1.029861
2589.000000	1.029973
2588.000000	1.030089
2587.000000	1.030209
2586.000000	1.030331
2585.000000	1.030455
2584.000000	1.030580
2583.000000	1.030706
2582.000000	1.030839
2581.000000	1.030977
2580.000000	1.031111
2579.000000	1.031234
2578.000000	1.031346
2577.000000	1.031455
2576.000000	1.031569
2575.000000	1.031688
2574.000000	1.031807
2573.000000	1.031922
2572.000000	1.032039
2571.000000	1.032165
2570.000000	1.032299
2569.000000	1.032433
2568.000000	1.032559
2567.000000	1.032680
2566.000000	1.032803
2565.000000	1.032931
2564.000000	1.033063
2563.000000	1.033200
2562.000000	1.033344
2561.000000	1.033494
2560.000000	1.033649
2559.000000	1.033808
2558.000000	1.033967
2557.000000	1.034124
2556.000000	1.034275
2555.000000	1.034418
2554.000000	1.034560
2553.000000	1.034706
2552.000000	1.034858
2551.000000	1.035016
2550.000000	1.035175
2549.000000	1.035329
2548.000000	1.035479
2547.000000	1.035630
2546.000000	1.035785
2545.000000	1.035946
2544.000000	1.036104
2543.000000	1.036256
2542.000000	1.036404
2541.000000	1.036555
2540.000000	1.036712
2539.000000	1.036874
2538.000000	1.037039
2537.000000	1.037205
2536.000000	1.037372
2535.000000	1.037542
2534.000000	1.037713
2533.000000	1.037881
2532.000000	1.038045
2531.000000	1.038206
2530.000000	1.038365
2529.000000	1.038520
2528.000000	1.038672
2527.000000	1.038823
2526.000000	1.038984
2525.000000	1.039158
2524.000000	1.039344
2523.000000	1.039533
2522.000000	1.039717
2521.000000	1.039888
2520.000000	1.040046
2519.000000	1.040199
2518.000000	1.040351
2517.000000	1.040500
2516.000000	1.040643
2515.000000	1.040787
2514.000000	1.040943
2513.000000	1.041113
2512.000000	1.041285
2511.000000	1.041451
2510.000000	1.041608
2509.000000	1.041759
2508.000000	1.041908
2507.000000	1.042055
2506.000000	1.042203
2505.000000	1.042349
2504.000000	1.042492
2503.000000	1.042629
2502.000000	1.042767
2501.000000	1.042908
2500.000000	1.043048
2499.000000	1.043179
2498.000000	1.043297
2497.000000	1.043402
2496.000000	1.043494
2495.000000	1.043584
2494.000000	1.043680
2493.000000	1.043785
2492.000000	1.043889
2491.000000	1.043985
2490.000000	1.044075
2489.000000	1.044169
2488.000000	1.044269
2487.000000	1.044370
2486.000000	1.044463
2485.000000	1.044538
2484.000000	1.044596
2483.000000	1.044646
2482.000000	1.044707
2481.000000	1.044786
2480.000000	1.044873
2479.000000	1.044951
2478.000000	1.045018
2477.000000	1.045078
2476.000000	1.045135
2475.000000	1.045190
2474.000000	1.045244
2473.000000	1.045302
2472.000000	1.045359
2471.000000	1.045408
2470.000000	1.045445
2469.000000	1.045481
2468.000000	1.045525
2467.000000	1.045577
2466.000000	1.045628
2465.000000	1.045671
2464.000000	1.045705
2463.000000	1.045737
2462.000000	1.045769
2461.000000	1.045803
2460.000000	1.045832
2459.000000	1.045849
2458.000000	1.045853
2457.000000	1.045850
2456.000000	1.045845
2455.000000	1.045840
2454.000000	1.045828
2453.000000	1.045802
2452.000000	1.045764
2451.000000	1.045722
2450.000000	1.045682
2449.000000	1.045644
2448.000000	1.045601
2447.000000	1.045552
2446.000000	1.045502
2445.000000	1.045453
2444.000000	1.045400
2443.000000	1.045338
2442.000000	1.045265
2441.000000	1.045181
2440.000000	1.045088
2439.000000	1.044992
2438.000000	1.044904
2437.000000	1.044831
2436.000000	1.044766
2435.000000	1.044696
2434.000000	1.044618
2433.000000	1.044536
2432.000000	1.044458
2431.000000	1.044380
2430.000000	1.044296
2429.000000	1.044200
2428.000000	1.044097
2427.000000	1.043996
2426.000000	1.043904
2425.000000	1.043822
2424.000000	1.043741
2423.000000	1.043657
2422.000000	1.043568
2421.000000	1.043475
2420.000000	1.043375
2419.000000	1.043270
2418.000000	1.043163
2417.000000	1.043062
2416.000000	1.042967
2415.000000	1.042876
2414.000000	1.042786
2413.000000	1.042695
2412.000000	1.042606
2411.000000	1.042522
2410.000000	1.042444
2409.000000	1.042362
2408.000000	1.042266
2407.000000	1.042156
2406.000000	1.042041
2405.000000	1.041931
2404.000000	1.041827
2403.000000	1.041730
2402.000000	1.041637
2401.000000	1.041548
2400.000000	1.041459
2399.000000	1.041368
2398.000000	1.041278
2397.000000	1.041193
2396.000000	1.041112
2395.000000	1.041042
2394.000000	1.040991
2393.000000	1.040964
2392.000000	1.040953
2391.000000	1.040945
2390.000000	1.040938
2389.000000	1.040946
2388.000000	1.040989
2387.000000	1.041092
2386.000000	1.041286
2385.000000	1.041611
2384.000000	1.042125
2383.000000	1.042887
2382.000000	1.043929
2381.000000	1.045195
2380.000000	1.046543
2379.000000	1.047796
2378.000000	1.048821
2377.000000	1.049569
2376.000000	1.050063
2375.000000	1.050363
2374.000000	1.050536
2373.000000	1.050634
2372.000000	1.050680
2371.000000	1.050674
2370.000000	1.050617
2369.000000	1.050524
2368.000000	1.050423
2367.000000	1.050344
2366.000000	1.050321
2365.000000	1.050385
2364.000000	1.050559
2363.000000	1.050844
2362.000000	1.051222
2361.000000	1.051661
2360.000000	1.052131
2359.000000	1.052617
2358.000000	1.053115
2357.000000	1.053625
2356.000000	1.054141
2355.000000	1.054659
2354.000000	1.055191
2353.000000	1.055746
2352.000000	1.056306
2351.000000	1.056808
2350.000000	1.057166
2349.000000	1.057313
2348.000000	1.057247
2347.000000	1.057044
2346.000000	1.056826
2345.000000	1.056699
2344.000000	1.056706
2343.000000	1.056821
2342.000000	1.056967
2341.000000	1.057045
2340.000000	1.056962
2339.000000	1.056676
2338.000000	1.056222
2337.000000	1.055700
2336.000000	1.055217
2335.000000	1.054830
2334.000000	1.054546
2333.000000	1.054338
2332.000000	1.054179
2331.000000	1.054053
2330.000000	1.053958
2329.000000	1.053894
2328.000000	1.053856
2327.000000	1.053832
2326.000000	1.053811
2325.000000	1.053794
2324.000000	1.053786
2323.000000	1.053789
2322.000000	1.053796
2321.000000	1.053800
2320.000000	1.053796
2319.000000	1.053786
2318.000000	1.053774
2317.000000	1.053767
2316.000000	1.053765
2315.000000	1.053770
2314.000000	1.053781
2313.000000	1.053794
2312.000000	1.053800
2311.000000	1.053791
2310.000000	1.053772
2309.000000	1.053752
2308.000000	1.053732
2307.000000	1.053709
2306.000000	1.053683
2305.000000	1.053663
2304.000000	1.053654
2303.000000	1.053656
2302.000000	1.053660
2301.000000	1.053656
2300.000000	1.053639
2299.000000	1.053609
2298.000000	1.053574
2297.000000	1.053543
2296.000000	1.053515
2295.000000	1.053486
2294.000000	1.053457
2293.000000	1.053428
2292.000000	1.053395
2291.000000	1.053355
2290.000000	1.053309
2289.000000	1.053258
2288.000000	1.053205
2287.000000	1.053179
2286.000000	1.053250
2285.000000	1.053487
2284.000000	1.053872
2283.000000	1.054275
2282.000000	1.054537
2281.000000	1.054582
2280.000000	1.054459
2279.000000	1.054278
2278.000000	1.054123
2277.000000	1.054021
2276.000000	1.053958
2275.000000	1.053919
2274.000000	1.053893
2273.000000	1.053881
2272.000000	1.053879
2271.000000	1.053885
2270.000000	1.053892
2269.000000	1.053894
2268.000000	1.053887
2267.000000	1.053871
2266.000000	1.053853
2265.000000	1.053841
2264.000000	1.053840
2263.000000	1.053845
2262.000000	1.053850
2261.000000	1.053850
2260.000000	1.053842
2259.000000	1.053833
2258.000000	1.053827
2257.000000	1.053829
2256.000000	1.053838
2255.000000	1.053854
2254.000000	1.053875
2253.000000	1.053898
2252.000000	1.053915
2251.000000	1.053925
2250.000000	1.053932
2249.000000	1.053944
2248.000000	1.053960
2247.000000	1.053970
2246.000000	1.053969
2245.000000	1.053958
2244.000000	1.053947
2243.000000	1.053948
2242.000000	1.053966
2241.000000	1.053997
2240.000000	1.054032
2239.000000	1.054061
2238.000000	1.054081
2237.000000	1.054086
2236.000000	1.054075
2235.000000	1.054054
2234.000000	1.054035
2233.000000	1.054028
2232.000000	1.054032
2231.000000	1.054034
2230.000000	1.054030
2229.000000	1.054025
2228.000000	1.054024
2227.000000	1.054028
2226.000000	1.054037
2225.000000	1.054044
2224.000000	1.054045
2223.000000	1.054037
2222.000000	1.054027
2221.000000	1.054024
2220.000000	1.054027
2219.000000	1.054027
2218.000000	1.054021
2217.000000	1.054017
2216.000000	1.054020
2215.000000	1.054023
2214.000000	1.054016
2213.000000	1.053999
2212.000000	1.053979
2211.000000	1.053961
2210.000000	1.053950
2209.000000	1.053945
2208.000000	1.053944
2207.000000	1.053942
2206.000000	1.053934
2205.000000	1.053920
2204.000000	1.053906
2203.000000	1.053894
2202.000000	1.053880
2201.000000	1.053861
2200.000000	1.053838
2199.000000	1.053813
2198.000000	1.053785
2197.000000	1.053753
2196.000000	1.053715
2195.000000	1.053678
2194.000000	1.053649
2193.000000	1.053635
2192.000000	1.053629
2191.000000	1.053623
2190.000000	1.053611
2189.000000	1.053598
2188.000000	1.053587
2187.000000	1.053576
2186.000000	1.053562
2185.000000	1.053540
2184.000000	1.053511
2183.000000	1.053478
2182.000000	1.053445
2181.000000	1.053416
2180.000000	1.053389
2179.000000	1.053355
2178.000000	1.053316
2177.000000	1.053276
2176.000000	1.053243
2175.000000	1.053215
2174.000000	1.053187
2173.000000	1.053159
2172.000000	1.053131
2171.000000	1.053102
2170.000000	1.053066
2169.000000	1.053020
2168.000000	1.052967
2167.000000	1.052913
2166.000000	1.052862
2165.000000	1.052815
2164.000000	1.052771
2163.000000	1.052728
2162.000000	1.052683
2161.000000	1.052635
2160.000000	1.052583
2159.000000	1.052531
2158.000000	1.052482
2157.000000	1.052436
2156.000000	1.052390
2155.000000	1.052337
2154.000000	1.052274
2153.000000	1.052204
2152.000000	1.052129
2151.000000	1.052053
2150.000000	1.051978
2149.000000	1.051906
2148.000000	1.051835
2147.000000	1.051768
2146.000000	1.051710
2145.000000	1.051662
2144.000000	1.051618
2143.000000	1.051568
2142.000000	1.051505
2141.000000	1.051432
2140.000000	1.051351
2139.000000	1.051266
2138.000000	1.051177
2137.000000	1.051089
2136.000000	1.051002
2135.000000	1.050915
2134.000000	1.050824
2133.000000	1.050733
2132.000000	1.050646
2131.000000	1.050570
2130.000000	1.050502
2129.000000	1.050434
2128.000000	1.050358
2127.000000	1.050271
2126.000000	1.050177
2125.000000	1.050079
2124.000000	1.049978
2123.000000	1.049872
2122.000000	1.049762
2121.000000	1.049651
2120.000000	1.049542
2119.000000	1.049435
2118.000000	1.049334
2117.000000	1.049238
2116.000000	1.049144
2115.000000	1.049046
2114.000000	1.048941
2113.000000	1.048827
2112.000000	1.048703
2111.000000	1.048574
2110.000000	1.048446
2109.000000	1.048327
2108.000000	1.048213
2107.000000	1.048095
2106.000000	1.047968
2105.000000	1.047838
2104.000000	1.047713
2103.000000	1.047597
2102.000000	1.047482
2101.000000	1.047362
2100.000000	1.047230
2099.000000	1.047090
2098.000000	1.046953
2097.000000	1.046823
2096.000000	1.046697
2095.000000	1.046569
2094.000000	1.046441
2093.000000	1.046320
2092.000000	1.046208
2091.000000	1.046099
2090.000000	1.045979
2089.000000	1.045845
2088.000000	1.045696
2087.000000	1.045541
2086.000000	1.045388
2085.000000	1.045245
2084.000000	1.045110
2083.000000	1.044975
2082.000000	1.044831
2081.000000	1.044680
2080.000000	1.044527
2079.000000	1.044380
2078.000000	1.044245
2077.000000	1.044116
2076.000000	1.043980
2075.000000	1.043831
2074.000000	1.043676
2073.000000	1.043530
2072.000000	1.043396
2071.000000	1.043260
2070.000000	1.043114
2069.000000	1.042961
2068.000000	1.042808
2067.000000	1.042655
2066.000000	1.042497
2065.000000	1.042342
2064.000000	1.042195
2063.000000	1.042055
2062.000000	1.041915
2061.000000	1.041770
2060.000000	1.041620
2059.000000	1.041468
2058.000000	1.041318
2057.000000	1.041171
2056.000000	1.041026
2055.000000	1.040879
2054.000000	1.040726
2053.000000	1.040573
2052.000000	1.040427
2051.000000	1.040291
2050.000000	1.040161
2049.000000	1.040031
2048.000000	1.039896
2047.000000	1.039755
2046.000000	1.039610
2045.000000	1.039467
2044.000000	1.039331
2043.000000	1.039202
2042.000000	1.039072
2041.000000	1.038938
2040.000000	1.038799
2039.000000	1.038658
2038.000000	1.038521
2037.000000	1.038393
2036.000000	1.038275
2035.000000	1.038160
2034.000000	1.038045
2033.000000	1.037927
2032.000000	1.037803
2031.000000	1.037665
2030.000000	1.037514
2029.000000	1.037363
2028.000000	1.037223
2027.000000	1.037097
2026.000000	1.036978
2025.000000	1.036858
2024.000000	1.036738
2023.000000	1.036623
2022.000000	1.036515
2021.000000	1.036409
2020.000000	1.036290
2019.000000	1.036150
2018.000000	1.035998
2017.000000	1.035854
2016.000000	1.035731
2015.000000	1.035622
2014.000000	1.035516
2013.000000	1.035408
2012.000000	1.035305
2011.000000	1.035209
2010.000000	1.035116
2009.000000	1.035022
2008.000000	1.034930
2007.000000	1.034842
2006.000000	1.034758
2005.000000	1.034670
2004.000000	1.034568
2003.000000	1.034457
2002.000000	1.034350
2001.000000	1.034259
2000.000000	1.034186
1999.000000	1.034118
1998.000000	1.034045
1997.000000	1.033962
1996.000000	1.033872
1995.000000	1.033773
1994.000000	1.033666
1993.000000	1.033559
1992.000000	1.033465
1991.000000	1.033390
1990.000000	1.033329
1989.000000	1.033272
1988.000000	1.033210
1987.000000	1.033143
1986.000000	1.033071
1985.000000	1.032995
1984.000000	1.032915
1983.000000	1.032834
1982.000000	1.032759
1981.000000	1.032698
1980.000000	1.032650
1979.000000	1.032608
1978.000000	1.032557
1977.000000	1.032493
1976.000000	1.032422
1975.000000	1.032355
1974.000000	1.032298
1973.000000	1.032247
1972.000000	1.032195
1971.000000	1.032139
1970.000000	1.032075
1969.000000	1.032005
1968.000000	1.031938
1967.000000	1.031889
1966.000000	1.031858
1965.000000	1.031831
1964.000000	1.031798
1963.000000	1.031765
1962.000000	1.031739
1961.000000	1.031713
1960.000000	1.031672
1959.000000	1.031619
1958.000000	1.031572
1957.000000	1.031539
1956.000000	1.031513
1955.000000	1.031482
1954.000000	1.031452
1953.000000	1.031429
1952.000000	1.031409
1951.000000	1.031382
1950.000000	1.031346
1949.000000	1.031304
1948.000000	1.031261
1947.000000	1.031222
1946.000000	1.031188
1945.000000	1.031156
1944.000000	1.031125
1943.000000	1.031103
1942.000000	1.031103
1941.000000	1.031125
1940.000000	1.031144
1939.000000	1.031145
1938.000000	1.031134
1937.000000	1.031128
1936.000000	1.031130
1935.000000	1.031134
1934.000000	1.031134
1933.000000	1.031131
1932.000000	1.031124
1931.000000	1.031108
1930.000000	1.031088
1929.000000	1.031074
1928.000000	1.031073
1927.000000	1.031079
1926.000000	1.031084
1925.000000	1.031078
1924.000000	1.031066
1923.000000	1.031060
1922.000000	1.031069
1921.000000	1.031077
1920.000000	1.031060
1919.000000	1.031021
1918.000000	1.031002
1917.000000	1.031036
1916.000000	1.031109
1915.000000	1.031183
1914.000000	1.031237
1913.000000	1.031272
1912.000000	1.031292
1911.000000	1.031296
1910.000000	1.031292
1909.000000	1.031295
1908.000000	1.031309
1907.000000	1.031332
1906.000000	1.031360
1905.000000	1.031395
1904.000000	1.031429
1903.000000	1.031451
1902.000000	1.031466
1901.000000	1.031488
1900.000000	1.031521
1899.000000	1.031554
1898.000000	1.031575
1897.000000	1.031586
1896.000000	1.031596
1895.000000	1.031612
1894.000000	1.031641
1893.000000	1.031680
1892.000000	1.031713
1891.000000	1.031731
1890.000000	1.031742
1889.000000	1.031771
1888.000000	1.031822
1887.000000	1.031882
1886.000000	1.031937
1885.000000	1.031986
1884.000000	1.032029
1883.000000	1.032067
1882.000000	1.032105
1881.000000	1.032151
1880.000000	1.032202
1879.000000	1.032247
1878.000000	1.032287
1877.000000	1.032329
1876.000000	1.032372
1875.000000	1.032410
1874.000000	1.032443
1873.000000	1.032473
1872.000000	1.032489
1871.000000	1.032476
1870.000000	1.032452
1869.000000	1.032464
1868.000000	1.032540
1867.000000	1.032659
1866.000000	1.032779
1865.000000	1.032878
1864.000000	1.032956
1863.000000	1.033021
1862.000000	1.033078
1861.000000	1.033138
1860.000000	1.033209
1859.000000	1.033285
1858.000000	1.033360
1857.000000	1.033434
1856.000000	1.033507
1855.000000	1.033574
1854.000000	1.033633
1853.000000	1.033694
1852.000000	1.033765
1851.000000	1.033840
1850.000000	1.033913
1849.000000	1.033982
1848.000000	1.034037
1847.000000	1.034047
1846.000000	1.034005
1845.000000	1.033963
1844.000000	1.034001
1843.000000	1.034157
1842.000000	1.034384
1841.000000	1.034593
1840.000000	1.034733
1839.000000	1.034818
1838.000000	1.034890
1837.000000	1.034975
1836.000000	1.035068
1835.000000	1.035161
1834.000000	1.035247
1833.000000	1.035308
1832.000000	1.035329
1831.000000	1.035333
1830.000000	1.035379
1829.000000	1.035504
1828.000000	1.035669
1827.000000	1.035814
1826.000000	1.035928
1825.000000	1.036057
1824.000000	1.036230
1823.000000	1.036419
1822.000000	1.036579
1821.000000	1.036703
1820.000000	1.036808
1819.000000	1.036910
1818.000000	1.037015
1817.000000	1.037130
1816.000000	1.037257
1815.000000	1.037383
1814.000000	1.037497
1813.000000	1.037597
1812.000000	1.037696
1811.000000	1.037804
1810.000000	1.037929
1809.000000	1.038073
1808.000000	1.038224
1807.000000	1.038367
1806.000000	1.038497
1805.000000	1.038621
1804.000000	1.038732
1803.000000	1.038819
1802.000000	1.038896
1801.000000	1.038995
1800.000000	1.039133
1799.000000	1.039290
1798.000000	1.039447
1797.000000	1.039596
1796.000000	1.039714
1795.000000	1.039767
1794.000000	1.039761
1793.000000	1.039776
1792.000000	1.039894
1791.000000	1.040126
1790.000000	1.040404
1789.000000	1.040661
1788.000000	1.040866
1787.000000	1.041021
1786.000000	1.041151
1785.000000	1.041293
1784.000000	1.041460
1783.000000	1.041630
1782.000000	1.041776
1781.000000	1.041912
1780.000000	1.042070
1779.000000	1.042259
1778.000000	1.042458
1777.000000	1.042638
1776.000000	1.042764
1775.000000	1.042803
1774.000000	1.042770
1773.000000	1.042763
1772.000000	1.042892
1771.000000	1.043161
1770.000000	1.043470
1769.000000	1.043732
1768.000000	1.043958
1767.000000	1.044203
1766.000000	1.044461
1765.000000	1.044668
1764.000000	1.044788
1763.000000	1.044865
1762.000000	1.044985
1761.000000	1.045186
1760.000000	1.045428
1759.000000	1.045635
1758.000000	1.045781
1757.000000	1.045915
1756.000000	1.046098
1755.000000	1.046310
1754.000000	1.046459
1753.000000	1.046493
1752.000000	1.046479
1751.000000	1.046536
1750.000000	1.046713
1749.000000	1.046964
1748.000000	1.047224
1747.000000	1.047461
1746.000000	1.047671
1745.000000	1.047852
1744.000000	1.048002
1743.000000	1.048123
1742.000000	1.048210
1741.000000	1.048270
1740.000000	1.048351
1739.000000	1.048506
1738.000000	1.048691
1737.000000	1.048750
1736.000000	1.048591
1735.000000	1.048343
1734.000000	1.048280
1733.000000	1.048539
1732.000000	1.048985
1731.000000	1.049387
1730.000000	1.049648
1729.000000	1.049823
1728.000000	1.049977
1727.000000	1.050105
1726.000000	1.050187
1725.000000	1.050240
1724.000000	1.050297
1723.000000	1.050364
1722.000000	1.050416
1721.000000	1.050389
1720.000000	1.050221
1719.000000	1.049942
1718.000000	1.049715
1717.000000	1.049716
1716.000000	1.049954
1715.000000	1.050276
1714.000000	1.050546
1713.000000	1.050745
1712.000000	1.050897
1711.000000	1.050996
1710.000000	1.051036
1709.000000	1.051043
1708.000000	1.051026
1707.000000	1.050968
1706.000000	1.050901
1705.000000	1.050901
1704.000000	1.050936
1703.000000	1.050830
1702.000000	1.050501
1701.000000	1.050149
1700.000000	1.050058
1699.000000	1.050232
1698.000000	1.050392
1697.000000	1.050369
1696.000000	1.050321
1695.000000	1.050497
1694.000000	1.050898
1693.000000	1.051287
1692.000000	1.051483
1691.000000	1.051517
1690.000000	1.051519
1689.000000	1.051529
1688.000000	1.051448
1687.000000	1.051161
1686.000000	1.050712
1685.000000	1.050350
1684.000000	1.050339
1683.000000	1.050691
1682.000000	1.051159
1681.000000	1.051493
1680.000000	1.051646
1679.000000	1.051692
1678.000000	1.051658
1677.000000	1.051530
1676.000000	1.051374
1675.000000	1.051325
1674.000000	1.051426
1673.000000	1.051557
1672.000000	1.051579
1671.000000	1.051490
1670.000000	1.051412
1669.000000	1.051448
1668.000000	1.051598
1667.000000	1.051780
1666.000000	1.051894
1665.000000	1.051887
1664.000000	1.051797
1663.000000	1.051734
1662.000000	1.051780
1661.000000	1.051909
1660.000000	1.052027
1659.000000	1.052084
1658.000000	1.052084
1657.000000	1.051985
1656.000000	1.051660
1655.000000	1.051064
1654.000000	1.050424
1653.000000	1.050147
1652.000000	1.050447
1651.000000	1.051096
1650.000000	1.051639
1649.000000	1.051804
1648.000000	1.051670
1647.000000	1.051507
1646.000000	1.051518
1645.000000	1.051720
1644.000000	1.052000
1643.000000	1.052223
1642.000000	1.052325
1641.000000	1.052335
1640.000000	1.052301
1639.000000	1.052203
1638.000000	1.051984
1637.000000	1.051680
1636.000000	1.051464
1635.000000	1.051501
1634.000000	1.051775
1633.000000	1.052106
1632.000000	1.052323
1631.000000	1.052378
1630.000000	1.052327
1629.000000	1.052254
1628.000000	1.052212
1627.000000	1.052203
1626.000000	1.052182
1625.000000	1.052111
1624.000000	1.052018
1623.000000	1.051979
1622.000000	1.052037
1621.000000	1.052130
1620.000000	1.052122
1619.000000	1.051935
1618.000000	1.051652
1617.000000	1.051480
1616.000000	1.051577
1615.000000	1.051895
1614.000000	1.052236
1613.000000	1.052435
1612.000000	1.052485
1611.000000	1.052474
1610.000000	1.052459
1609.000000	1.052439
1608.000000	1.052414
1607.000000	1.052403
1606.000000	1.052413
1605.000000	1.052428
1604.000000	1.052437
1603.000000	1.052449
1602.000000	1.052466
1601.000000	1.052482
1600.000000	1.052494
1599.000000	1.052509
1598.000000	1.052525
1597.000000	1.052532
1596.000000	1.052530
1595.000000	1.052531
1594.000000	1.052539
1593.000000	1.052543
1592.000000	1.052539
1591.000000	1.052534
1590.000000	1.052532
1589.000000	1.052532
1588.000000	1.052531
1587.000000	1.052532
1586.000000	1.052540
1585.000000	1.052556
1584.000000	1.052572
1583.000000	1.052580
1582.000000	1.052586
1581.000000	1.052590
1580.000000	1.052552
1579.000000	1.052396
1578.000000	1.052097
1577.000000	1.051782
1576.000000	1.051674
1575.000000	1.051872
1574.000000	1.052221
1573.000000	1.052450
1572.000000	1.052435
1571.000000	1.052277
1570.000000	1.052165
1569.000000	1.052191
1568.000000	1.052313
1567.000000	1.052435
1566.000000	1.052497
1565.000000	1.052504
1564.000000	1.052474
1563.000000	1.052356
1562.000000	1.052036
1561.000000	1.051488
1560.000000	1.050918
1559.000000	1.050659
1558.000000	1.050850
1557.000000	1.051295
1556.000000	1.051693
1555.000000	1.051930
1554.000000	1.052090
1553.000000	1.052252
1552.000000	1.052388
1551.000000	1.052456
1550.000000	1.052477
1549.000000	1.052494
1548.000000	1.052496
1547.000000	1.052440
1546.000000	1.052319
1545.000000	1.052163
1544.000000	1.051987
1543.000000	1.051757
1542.000000	1.051445
1541.000000	1.051112
1540.000000	1.050937
1539.000000	1.051082
1538.000000	1.051518
1537.000000	1.051996
1536.000000	1.052255
1535.000000	1.052256
1534.000000	1.052175
1533.000000	1.052188
1532.000000	1.052306
1531.000000	1.052429
1530.000000	1.052483
1529.000000	1.052461
1528.000000	1.052382
1527.000000	1.052284
1526.000000	1.052213
1525.000000	1.052158
1524.000000	1.052040
1523.000000	1.051815
1522.000000	1.051588
1521.000000	1.051533
1520.000000	1.051692
1519.000000	1.051925
1518.000000	1.052082
1517.000000	1.052158
1516.000000	1.052233
1515.000000	1.052328
1514.000000	1.052386
1513.000000	1.052382
1512.000000	1.052358
1511.000000	1.052326
1510.000000	1.052208
1509.000000	1.051920
1508.000000	1.051517
1507.000000	1.051217
1506.000000	1.051238
1505.000000	1.051603
1504.000000	1.052107
1503.000000	1.052504
1502.000000	1.052690
1501.000000	1.052713
1500.000000	1.052656
