PE IR       SUBTECH     SPECTRUM    ASCII       PEDS        4.00        
   -1
TE108B1_033_80K.ASC
20/02/21
16:19:41.00
20/02/21
16:19:41.00
Administrator
Sample 033 By Administrator Date Friday, February 21 2020
1500.000000
#HDR
-1
-1
#GR
cm-1
A
1.0
0.0
4000.000000
-1.000000
2501
8
0.911117
0.876787
#DATA
4000.000000	0.886551
3999.000000	0.886509
3998.000000	0.886473
3997.000000	0.886454
3996.000000	0.886453
3995.000000	0.886461
3994.000000	0.886466
3993.000000	0.886461
3992.000000	0.886448
3991.000000	0.886436
3990.000000	0.886429
3989.000000	0.886424
3988.000000	0.886417
3987.000000	0.886404
3986.000000	0.886383
3985.000000	0.886352
3984.000000	0.886316
3983.000000	0.886285
3982.000000	0.886266
3981.000000	0.886254
3980.000000	0.886238
3979.000000	0.886209
3978.000000	0.886166
3977.000000	0.886119
3976.000000	0.886078
3975.000000	0.886047
3974.000000	0.886026
3973.000000	0.886013
3972.000000	0.886010
3971.000000	0.886015
3970.000000	0.886021
3969.000000	0.886016
3968.000000	0.885999
3967.000000	0.885973
3966.000000	0.885940
3965.000000	0.885895
3964.000000	0.885831
3963.000000	0.885748
3962.000000	0.885662
3961.000000	0.885593
3960.000000	0.885556
3959.000000	0.885555
3958.000000	0.885581
3957.000000	0.885614
3956.000000	0.885635
3955.000000	0.885628
3954.000000	0.885588
3953.000000	0.885520
3952.000000	0.885439
3951.000000	0.885360
3950.000000	0.885297
3949.000000	0.885253
3948.000000	0.885227
3947.000000	0.885212
3946.000000	0.885199
3945.000000	0.885178
3944.000000	0.885146
3943.000000	0.885114
3942.000000	0.885096
3941.000000	0.885095
3940.000000	0.885093
3939.000000	0.885069
3938.000000	0.885016
3937.000000	0.884949
3936.000000	0.884887
3935.000000	0.884835
3934.000000	0.884781
3933.000000	0.884712
3932.000000	0.884637
3931.000000	0.884577
3930.000000	0.884551
3929.000000	0.884554
3928.000000	0.884559
3927.000000	0.884542
3926.000000	0.884497
3925.000000	0.884436
3924.000000	0.884378
3923.000000	0.884330
3922.000000	0.884290
3921.000000	0.884245
3920.000000	0.884188
3919.000000	0.884121
3918.000000	0.884059
3917.000000	0.884014
3916.000000	0.883992
3915.000000	0.883991
3914.000000	0.883998
3913.000000	0.884001
3912.000000	0.883985
3911.000000	0.883947
3910.000000	0.883890
3909.000000	0.883825
3908.000000	0.883759
3907.000000	0.883688
3906.000000	0.883598
3905.000000	0.883485
3904.000000	0.883362
3903.000000	0.883258
3902.000000	0.883190
3901.000000	0.883157
3900.000000	0.883148
3899.000000	0.883161
3898.000000	0.883200
3897.000000	0.883260
3896.000000	0.883316
3895.000000	0.883334
3894.000000	0.883297
3893.000000	0.883212
3892.000000	0.883108
3891.000000	0.883023
3890.000000	0.882976
3889.000000	0.882951
3888.000000	0.882910
3887.000000	0.882830
3886.000000	0.882735
3885.000000	0.882679
3884.000000	0.882690
3883.000000	0.882740
3882.000000	0.882765
3881.000000	0.882729
3880.000000	0.882661
3879.000000	0.882619
3878.000000	0.882629
3877.000000	0.882656
3876.000000	0.882648
3875.000000	0.882585
3874.000000	0.882487
3873.000000	0.882373
3872.000000	0.882246
3871.000000	0.882108
3870.000000	0.881989
3869.000000	0.881930
3868.000000	0.881945
3867.000000	0.881990
3866.000000	0.882003
3865.000000	0.881955
3864.000000	0.881879
3863.000000	0.881828
3862.000000	0.881828
3861.000000	0.881859
3860.000000	0.881893
3859.000000	0.881912
3858.000000	0.881894
3857.000000	0.881789
3856.000000	0.881540
3855.000000	0.881155
3854.000000	0.880741
3853.000000	0.880462
3852.000000	0.880430
3851.000000	0.880627
3850.000000	0.880929
3849.000000	0.881198
3848.000000	0.881359
3847.000000	0.881410
3846.000000	0.881385
3845.000000	0.881313
3844.000000	0.881221
3843.000000	0.881130
3842.000000	0.881053
3841.000000	0.880969
3840.000000	0.880844
3839.000000	0.880670
3838.000000	0.880492
3837.000000	0.880385
3836.000000	0.880385
3835.000000	0.880463
3834.000000	0.880550
3833.000000	0.880594
3832.000000	0.880596
3831.000000	0.880589
3830.000000	0.880596
3829.000000	0.880608
3828.000000	0.880597
3827.000000	0.880549
3826.000000	0.880476
3825.000000	0.880390
3824.000000	0.880285
3823.000000	0.880152
3822.000000	0.880010
3821.000000	0.879912
3820.000000	0.879890
3819.000000	0.879913
3818.000000	0.879896
3817.000000	0.879794
3816.000000	0.879652
3815.000000	0.879574
3814.000000	0.879622
3813.000000	0.879760
3812.000000	0.879893
3811.000000	0.879944
3810.000000	0.879895
3809.000000	0.879766
3808.000000	0.879600
3807.000000	0.879456
3806.000000	0.879383
3805.000000	0.879377
3804.000000	0.879367
3803.000000	0.879276
3802.000000	0.879112
3801.000000	0.878975
3800.000000	0.878959
3799.000000	0.879065
3798.000000	0.879200
3797.000000	0.879271
3796.000000	0.879263
3795.000000	0.879222
3794.000000	0.879198
3793.000000	0.879197
3792.000000	0.879201
3791.000000	0.879199
3790.000000	0.879197
3789.000000	0.879199
3788.000000	0.879196
3787.000000	0.879171
3786.000000	0.879120
3785.000000	0.879056
3784.000000	0.878998
3783.000000	0.878953
3782.000000	0.878911
3781.000000	0.878861
3780.000000	0.878804
3779.000000	0.878756
3778.000000	0.878732
3777.000000	0.878730
3776.000000	0.878735
3775.000000	0.878734
3774.000000	0.878720
3773.000000	0.878684
3772.000000	0.878614
3771.000000	0.878505
3770.000000	0.878378
3769.000000	0.878270
3768.000000	0.878203
3767.000000	0.878169
3766.000000	0.878151
3765.000000	0.878142
3764.000000	0.878148
3763.000000	0.878167
3762.000000	0.878179
3761.000000	0.878161
3760.000000	0.878106
3759.000000	0.878031
3758.000000	0.877973
3757.000000	0.877953
3756.000000	0.877954
3755.000000	0.877917
3754.000000	0.877783
3753.000000	0.877540
3752.000000	0.877252
3751.000000	0.877024
3750.000000	0.876940
3749.000000	0.877007
3748.000000	0.877140
3747.000000	0.877209
3746.000000	0.877127
3745.000000	0.876936
3744.000000	0.876787
3743.000000	0.876822
3742.000000	0.877048
3741.000000	0.877340
3740.000000	0.877538
3739.000000	0.877565
3738.000000	0.877453
3737.000000	0.877284
3736.000000	0.877138
3735.000000	0.877055
3734.000000	0.877035
3733.000000	0.877058
3732.000000	0.877105
3731.000000	0.877178
3730.000000	0.877279
3729.000000	0.877390
3728.000000	0.877471
3727.000000	0.877498
3726.000000	0.877491
3725.000000	0.877487
3724.000000	0.877505
3723.000000	0.877528
3722.000000	0.877537
3721.000000	0.877531
3720.000000	0.877523
3719.000000	0.877528
3718.000000	0.877554
3717.000000	0.877599
3716.000000	0.877643
3715.000000	0.877651
3714.000000	0.877598
3713.000000	0.877494
3712.000000	0.877389
3711.000000	0.877338
3710.000000	0.877370
3709.000000	0.877470
3708.000000	0.877599
3707.000000	0.877719
3706.000000	0.877807
3705.000000	0.877859
3704.000000	0.877879
3703.000000	0.877883
3702.000000	0.877891
3701.000000	0.877924
3700.000000	0.877994
3699.000000	0.878096
3698.000000	0.878201
3697.000000	0.878283
3696.000000	0.878330
3695.000000	0.878349
3694.000000	0.878357
3693.000000	0.878358
3692.000000	0.878341
3691.000000	0.878286
3690.000000	0.878191
3689.000000	0.878092
3688.000000	0.878065
3687.000000	0.878165
3686.000000	0.878376
3685.000000	0.878616
3684.000000	0.878803
3683.000000	0.878909
3682.000000	0.878963
3681.000000	0.879005
3680.000000	0.879043
3679.000000	0.879048
3678.000000	0.878985
3677.000000	0.878858
3676.000000	0.878735
3675.000000	0.878713
3674.000000	0.878832
3673.000000	0.879027
3672.000000	0.879179
3671.000000	0.879236
3670.000000	0.879264
3669.000000	0.879376
3668.000000	0.879612
3667.000000	0.879906
3666.000000	0.880162
3665.000000	0.880340
3664.000000	0.880461
3663.000000	0.880564
3662.000000	0.880670
3661.000000	0.880778
3660.000000	0.880881
3659.000000	0.880969
3658.000000	0.881037
3657.000000	0.881090
3656.000000	0.881160
3655.000000	0.881275
3654.000000	0.881424
3653.000000	0.881553
3652.000000	0.881601
3651.000000	0.881567
3650.000000	0.881519
3649.000000	0.881549
3648.000000	0.881706
3647.000000	0.881965
3646.000000	0.882260
3645.000000	0.882532
3644.000000	0.882758
3643.000000	0.882942
3642.000000	0.883100
3641.000000	0.883244
3640.000000	0.883380
3639.000000	0.883514
3638.000000	0.883646
3637.000000	0.883776
3636.000000	0.883899
3635.000000	0.884020
3634.000000	0.884145
3633.000000	0.884269
3632.000000	0.884366
3631.000000	0.884404
3630.000000	0.884394
3629.000000	0.884400
3628.000000	0.884507
3627.000000	0.884747
3626.000000	0.885073
3625.000000	0.885400
3624.000000	0.885657
3623.000000	0.885826
3622.000000	0.885925
3621.000000	0.885986
3620.000000	0.886043
3619.000000	0.886131
3618.000000	0.886274
3617.000000	0.886474
3616.000000	0.886703
3615.000000	0.886923
3614.000000	0.887107
3613.000000	0.887251
3612.000000	0.887366
3611.000000	0.887461
3610.000000	0.887550
3609.000000	0.887657
3608.000000	0.887814
3607.000000	0.888030
3606.000000	0.888281
3605.000000	0.888514
3604.000000	0.888690
3603.000000	0.888811
3602.000000	0.888913
3601.000000	0.889029
3600.000000	0.889171
3599.000000	0.889326
3598.000000	0.889476
3597.000000	0.889608
3596.000000	0.889728
3595.000000	0.889851
3594.000000	0.889989
3593.000000	0.890136
3592.000000	0.890272
3591.000000	0.890373
3590.000000	0.890429
3589.000000	0.890456
3588.000000	0.890489
3587.000000	0.890564
3586.000000	0.890692
3585.000000	0.890858
3584.000000	0.891024
3583.000000	0.891162
3582.000000	0.891260
3581.000000	0.891329
3580.000000	0.891389
3579.000000	0.891455
3578.000000	0.891534
3577.000000	0.891618
3576.000000	0.891699
3575.000000	0.891774
3574.000000	0.891848
3573.000000	0.891924
3572.000000	0.891995
3571.000000	0.892046
3570.000000	0.892068
3569.000000	0.892070
3568.000000	0.892077
3567.000000	0.892109
3566.000000	0.892171
3565.000000	0.892252
3564.000000	0.892336
3563.000000	0.892411
3562.000000	0.892476
3561.000000	0.892535
3560.000000	0.892592
3559.000000	0.892643
3558.000000	0.892683
3557.000000	0.892708
3556.000000	0.892730
3555.000000	0.892757
3554.000000	0.892791
3553.000000	0.892822
3552.000000	0.892849
3551.000000	0.892879
3550.000000	0.892917
3549.000000	0.892956
3548.000000	0.892988
3547.000000	0.893010
3546.000000	0.893031
3545.000000	0.893059
3544.000000	0.893096
3543.000000	0.893138
3542.000000	0.893179
3541.000000	0.893210
3540.000000	0.893225
3539.000000	0.893223
3538.000000	0.893211
3537.000000	0.893204
3536.000000	0.893217
3535.000000	0.893253
3534.000000	0.893297
3533.000000	0.893334
3532.000000	0.893359
3531.000000	0.893381
3530.000000	0.893406
3529.000000	0.893430
3528.000000	0.893451
3527.000000	0.893469
3526.000000	0.893492
3525.000000	0.893525
3524.000000	0.893568
3523.000000	0.893622
3522.000000	0.893681
3521.000000	0.893733
3520.000000	0.893767
3519.000000	0.893786
3518.000000	0.893805
3517.000000	0.893838
3516.000000	0.893886
3515.000000	0.893942
3514.000000	0.893999
3513.000000	0.894054
3512.000000	0.894107
3511.000000	0.894160
3510.000000	0.894218
3509.000000	0.894285
3508.000000	0.894361
3507.000000	0.894434
3506.000000	0.894497
3505.000000	0.894548
3504.000000	0.894598
3503.000000	0.894661
3502.000000	0.894746
3501.000000	0.894853
3500.000000	0.894975
3499.000000	0.895099
3498.000000	0.895213
3497.000000	0.895314
3496.000000	0.895403
3495.000000	0.895485
3494.000000	0.895568
3493.000000	0.895655
3492.000000	0.895750
3491.000000	0.895851
3490.000000	0.895951
3489.000000	0.896051
3488.000000	0.896157
3487.000000	0.896277
3486.000000	0.896407
3485.000000	0.896529
3484.000000	0.896624
3483.000000	0.896694
3482.000000	0.896765
3481.000000	0.896862
3480.000000	0.896986
3479.000000	0.897117
3478.000000	0.897234
3477.000000	0.897341
3476.000000	0.897454
3475.000000	0.897588
3474.000000	0.897732
3473.000000	0.897869
3472.000000	0.897993
3471.000000	0.898110
3470.000000	0.898230
3469.000000	0.898355
3468.000000	0.898483
3467.000000	0.898617
3466.000000	0.898754
3465.000000	0.898893
3464.000000	0.899034
3463.000000	0.899183
3462.000000	0.899346
3461.000000	0.899517
3460.000000	0.899677
3459.000000	0.899814
3458.000000	0.899931
3457.000000	0.900044
3456.000000	0.900166
3455.000000	0.900299
3454.000000	0.900435
3453.000000	0.900566
3452.000000	0.900690
3451.000000	0.900811
3450.000000	0.900930
3449.000000	0.901045
3448.000000	0.901160
3447.000000	0.901286
3446.000000	0.901434
3445.000000	0.901601
3444.000000	0.901772
3443.000000	0.901932
3442.000000	0.902072
3441.000000	0.902195
3440.000000	0.902311
3439.000000	0.902427
3438.000000	0.902549
3437.000000	0.902671
3436.000000	0.902789
3435.000000	0.902903
3434.000000	0.903022
3433.000000	0.903150
3432.000000	0.903281
3431.000000	0.903403
3430.000000	0.903512
3429.000000	0.903616
3428.000000	0.903727
3427.000000	0.903846
3426.000000	0.903970
3425.000000	0.904090
3424.000000	0.904207
3423.000000	0.904323
3422.000000	0.904441
3421.000000	0.904554
3420.000000	0.904656
3419.000000	0.904753
3418.000000	0.904852
3417.000000	0.904954
3416.000000	0.905049
3415.000000	0.905129
3414.000000	0.905202
3413.000000	0.905279
3412.000000	0.905364
3411.000000	0.905448
3410.000000	0.905526
3409.000000	0.905603
3408.000000	0.905689
3407.000000	0.905785
3406.000000	0.905879
3405.000000	0.905957
3404.000000	0.906013
3403.000000	0.906050
3402.000000	0.906081
3401.000000	0.906116
3400.000000	0.906159
3399.000000	0.906211
3398.000000	0.906270
3397.000000	0.906332
3396.000000	0.906389
3395.000000	0.906435
3394.000000	0.906469
3393.000000	0.906498
3392.000000	0.906535
3391.000000	0.906589
3390.000000	0.906658
3389.000000	0.906735
3388.000000	0.906808
3387.000000	0.906869
3386.000000	0.906917
3385.000000	0.906960
3384.000000	0.907010
3383.000000	0.907069
3382.000000	0.907125
3381.000000	0.907165
3380.000000	0.907182
3379.000000	0.907187
3378.000000	0.907192
3377.000000	0.907202
3376.000000	0.907212
3375.000000	0.907220
3374.000000	0.907232
3373.000000	0.907254
3372.000000	0.907286
3371.000000	0.907316
3370.000000	0.907335
3369.000000	0.907340
3368.000000	0.907337
3367.000000	0.907338
3366.000000	0.907347
3365.000000	0.907365
3364.000000	0.907389
3363.000000	0.907418
3362.000000	0.907448
3361.000000	0.907475
3360.000000	0.907502
3359.000000	0.907529
3358.000000	0.907551
3357.000000	0.907560
3356.000000	0.907554
3355.000000	0.907548
3354.000000	0.907557
3353.000000	0.907583
3352.000000	0.907612
3351.000000	0.907628
3350.000000	0.907622
3349.000000	0.907600
3348.000000	0.907577
3347.000000	0.907569
3346.000000	0.907582
3345.000000	0.907606
3344.000000	0.907627
3343.000000	0.907638
3342.000000	0.907641
3341.000000	0.907640
3340.000000	0.907639
3339.000000	0.907645
3338.000000	0.907667
3337.000000	0.907706
3336.000000	0.907750
3335.000000	0.907778
3334.000000	0.907777
3333.000000	0.907755
3332.000000	0.907729
3331.000000	0.907715
3330.000000	0.907720
3329.000000	0.907742
3328.000000	0.907774
3327.000000	0.907804
3326.000000	0.907820
3325.000000	0.907819
3324.000000	0.907813
3323.000000	0.907818
3322.000000	0.907844
3321.000000	0.907878
3320.000000	0.907903
3319.000000	0.907917
3318.000000	0.907933
3317.000000	0.907964
3316.000000	0.908001
3315.000000	0.908031
3314.000000	0.908046
3313.000000	0.908052
3312.000000	0.908053
3311.000000	0.908054
3310.000000	0.908056
3309.000000	0.908062
3308.000000	0.908072
3307.000000	0.908083
3306.000000	0.908098
3305.000000	0.908124
3304.000000	0.908164
3303.000000	0.908214
3302.000000	0.908265
3301.000000	0.908309
3300.000000	0.908341
3299.000000	0.908362
3298.000000	0.908381
3297.000000	0.908406
3296.000000	0.908435
3295.000000	0.908460
3294.000000	0.908478
3293.000000	0.908493
3292.000000	0.908513
3291.000000	0.908538
3290.000000	0.908564
3289.000000	0.908588
3288.000000	0.908606
3287.000000	0.908619
3286.000000	0.908631
3285.000000	0.908646
3284.000000	0.908668
3283.000000	0.908695
3282.000000	0.908724
3281.000000	0.908755
3280.000000	0.908792
3279.000000	0.908827
3278.000000	0.908847
3277.000000	0.908846
3276.000000	0.908838
3275.000000	0.908844
3274.000000	0.908874
3273.000000	0.908922
3272.000000	0.908968
3271.000000	0.908999
3270.000000	0.909014
3269.000000	0.909019
3268.000000	0.909025
3267.000000	0.909039
3266.000000	0.909065
3265.000000	0.909096
3264.000000	0.909125
3263.000000	0.909147
3262.000000	0.909164
3261.000000	0.909183
3260.000000	0.909204
3259.000000	0.909227
3258.000000	0.909253
3257.000000	0.909285
3256.000000	0.909324
3255.000000	0.909364
3254.000000	0.909399
3253.000000	0.909428
3252.000000	0.909452
3251.000000	0.909474
3250.000000	0.909490
3249.000000	0.909501
3248.000000	0.909514
3247.000000	0.909532
3246.000000	0.909555
3245.000000	0.909583
3244.000000	0.909616
3243.000000	0.909655
3242.000000	0.909699
3241.000000	0.909739
3240.000000	0.909770
3239.000000	0.909790
3238.000000	0.909803
3237.000000	0.909812
3236.000000	0.909818
3235.000000	0.909820
3234.000000	0.909824
3233.000000	0.909837
3232.000000	0.909864
3231.000000	0.909901
3230.000000	0.909944
3229.000000	0.909992
3228.000000	0.910047
3227.000000	0.910102
3226.000000	0.910141
3225.000000	0.910152
3224.000000	0.910142
3223.000000	0.910128
3222.000000	0.910123
3221.000000	0.910123
3220.000000	0.910121
3219.000000	0.910123
3218.000000	0.910135
3217.000000	0.910161
3216.000000	0.910192
3215.000000	0.910225
3214.000000	0.910258
3213.000000	0.910288
3212.000000	0.910308
3211.000000	0.910313
3210.000000	0.910314
3209.000000	0.910320
3208.000000	0.910337
3207.000000	0.910356
3206.000000	0.910367
3205.000000	0.910366
3204.000000	0.910359
3203.000000	0.910354
3202.000000	0.910354
3201.000000	0.910359
3200.000000	0.910365
3199.000000	0.910372
3198.000000	0.910380
3197.000000	0.910388
3196.000000	0.910395
3195.000000	0.910405
3194.000000	0.910420
3193.000000	0.910436
3192.000000	0.910443
3191.000000	0.910434
3190.000000	0.910415
3189.000000	0.910401
3188.000000	0.910401
3187.000000	0.910414
3186.000000	0.910430
3185.000000	0.910438
3184.000000	0.910435
3183.000000	0.910429
3182.000000	0.910428
3181.000000	0.910431
3180.000000	0.910428
3179.000000	0.910414
3178.000000	0.910391
3177.000000	0.910371
3176.000000	0.910364
3175.000000	0.910377
3174.000000	0.910408
3173.000000	0.910448
3172.000000	0.910483
3171.000000	0.910500
3170.000000	0.910495
3169.000000	0.910472
3168.000000	0.910445
3167.000000	0.910429
3166.000000	0.910432
3165.000000	0.910455
3164.000000	0.910486
3163.000000	0.910513
3162.000000	0.910531
3161.000000	0.910544
3160.000000	0.910556
3159.000000	0.910568
3158.000000	0.910579
3157.000000	0.910587
3156.000000	0.910592
3155.000000	0.910590
3154.000000	0.910586
3153.000000	0.910588
3152.000000	0.910604
3151.000000	0.910629
3150.000000	0.910649
3149.000000	0.910649
3148.000000	0.910630
3147.000000	0.910605
3146.000000	0.910589
3145.000000	0.910587
3144.000000	0.910595
3143.000000	0.910610
3142.000000	0.910628
3141.000000	0.910644
3140.000000	0.910656
3139.000000	0.910671
3138.000000	0.910695
3137.000000	0.910728
3136.000000	0.910761
3135.000000	0.910791
3134.000000	0.910816
3133.000000	0.910836
3132.000000	0.910845
3131.000000	0.910842
3130.000000	0.910836
3129.000000	0.910839
3128.000000	0.910855
3127.000000	0.910875
3126.000000	0.910894
3125.000000	0.910912
3124.000000	0.910931
3123.000000	0.910949
3122.000000	0.910963
3121.000000	0.910972
3120.000000	0.910975
3119.000000	0.910974
3118.000000	0.910973
3117.000000	0.910980
3116.000000	0.910997
3115.000000	0.911026
3114.000000	0.911062
3113.000000	0.911095
3112.000000	0.911116
3111.000000	0.911117
3110.000000	0.911103
3109.000000	0.911085
3108.000000	0.911075
3107.000000	0.911075
3106.000000	0.911080
3105.000000	0.911088
3104.000000	0.911097
3103.000000	0.911107
3102.000000	0.911115
3101.000000	0.911117
3100.000000	0.911109
3099.000000	0.911094
3098.000000	0.911078
3097.000000	0.911069
3096.000000	0.911066
3095.000000	0.911056
3094.000000	0.911029
3093.000000	0.910991
3092.000000	0.910959
3091.000000	0.910944
3090.000000	0.910942
3089.000000	0.910940
3088.000000	0.910929
3087.000000	0.910907
3086.000000	0.910879
3085.000000	0.910851
3084.000000	0.910822
3083.000000	0.910797
3082.000000	0.910778
3081.000000	0.910766
3080.000000	0.910753
3079.000000	0.910729
3078.000000	0.910695
3077.000000	0.910660
3076.000000	0.910631
3075.000000	0.910607
3074.000000	0.910584
3073.000000	0.910559
3072.000000	0.910531
3071.000000	0.910497
3070.000000	0.910454
3069.000000	0.910407
3068.000000	0.910364
3067.000000	0.910329
3066.000000	0.910300
3065.000000	0.910274
3064.000000	0.910253
3063.000000	0.910236
3062.000000	0.910222
3061.000000	0.910204
3060.000000	0.910180
3059.000000	0.910150
3058.000000	0.910114
3057.000000	0.910070
3056.000000	0.910018
3055.000000	0.909960
3054.000000	0.909905
3053.000000	0.909860
3052.000000	0.909828
3051.000000	0.909805
3050.000000	0.909783
3049.000000	0.909755
3048.000000	0.909719
3047.000000	0.909676
3046.000000	0.909629
3045.000000	0.909583
3044.000000	0.909544
3043.000000	0.909516
3042.000000	0.909495
3041.000000	0.909476
3040.000000	0.909456
3039.000000	0.909434
3038.000000	0.909413
3037.000000	0.909391
3036.000000	0.909366
3035.000000	0.909336
3034.000000	0.909302
3033.000000	0.909266
3032.000000	0.909229
3031.000000	0.909197
3030.000000	0.909176
3029.000000	0.909166
3028.000000	0.909162
3027.000000	0.909155
3026.000000	0.909142
3025.000000	0.909118
3024.000000	0.909084
3023.000000	0.909040
3022.000000	0.908994
3021.000000	0.908950
3020.000000	0.908909
3019.000000	0.908869
3018.000000	0.908830
3017.000000	0.908789
3016.000000	0.908743
3015.000000	0.908685
3014.000000	0.908618
3013.000000	0.908555
3012.000000	0.908513
3011.000000	0.908491
3010.000000	0.908480
3009.000000	0.908468
3008.000000	0.908446
3007.000000	0.908411
3006.000000	0.908365
3005.000000	0.908317
3004.000000	0.908280
3003.000000	0.908256
3002.000000	0.908234
3001.000000	0.908204
3000.000000	0.908165
2999.000000	0.908125
2998.000000	0.908088
2997.000000	0.908050
2996.000000	0.908006
2995.000000	0.907958
2994.000000	0.907911
2993.000000	0.907874
2992.000000	0.907848
2991.000000	0.907828
2990.000000	0.907812
2989.000000	0.907794
2988.000000	0.907774
2987.000000	0.907751
2986.000000	0.907724
2985.000000	0.907692
2984.000000	0.907657
2983.000000	0.907625
2982.000000	0.907602
2981.000000	0.907586
2980.000000	0.907566
2979.000000	0.907532
2978.000000	0.907487
2977.000000	0.907451
2976.000000	0.907440
2975.000000	0.907450
2974.000000	0.907463
2973.000000	0.907463
2972.000000	0.907452
2971.000000	0.907436
2970.000000	0.907419
2969.000000	0.907394
2968.000000	0.907357
2967.000000	0.907306
2966.000000	0.907248
2965.000000	0.907192
2964.000000	0.907138
2963.000000	0.907085
2962.000000	0.907030
2961.000000	0.906972
2960.000000	0.906915
2959.000000	0.906864
2958.000000	0.906814
2957.000000	0.906761
2956.000000	0.906700
2955.000000	0.906634
2954.000000	0.906570
2953.000000	0.906516
2952.000000	0.906474
2951.000000	0.906439
2950.000000	0.906402
2949.000000	0.906362
2948.000000	0.906324
2947.000000	0.906295
2946.000000	0.906273
2945.000000	0.906250
2944.000000	0.906225
2943.000000	0.906199
2942.000000	0.906175
2941.000000	0.906147
2940.000000	0.906113
2939.000000	0.906072
2938.000000	0.906031
2937.000000	0.905997
2936.000000	0.905971
2935.000000	0.905946
2934.000000	0.905912
2933.000000	0.905862
2932.000000	0.905804
2931.000000	0.905755
2930.000000	0.905727
2929.000000	0.905715
2928.000000	0.905694
2927.000000	0.905641
2926.000000	0.905555
2925.000000	0.905458
2924.000000	0.905373
2923.000000	0.905310
2922.000000	0.905256
2921.000000	0.905192
2920.000000	0.905119
2919.000000	0.905050
2918.000000	0.904996
2917.000000	0.904953
2916.000000	0.904910
2915.000000	0.904863
2914.000000	0.904820
2913.000000	0.904789
2912.000000	0.904771
2911.000000	0.904760
2910.000000	0.904746
2909.000000	0.904722
2908.000000	0.904685
2907.000000	0.904638
2906.000000	0.904588
2905.000000	0.904542
2904.000000	0.904504
2903.000000	0.904472
2902.000000	0.904437
2901.000000	0.904391
2900.000000	0.904334
2899.000000	0.904276
2898.000000	0.904227
2897.000000	0.904193
2896.000000	0.904166
2895.000000	0.904138
2894.000000	0.904104
2893.000000	0.904071
2892.000000	0.904044
2891.000000	0.904020
2890.000000	0.903982
2889.000000	0.903918
2888.000000	0.903832
2887.000000	0.903749
2886.000000	0.903690
2885.000000	0.903657
2884.000000	0.903636
2883.000000	0.903614
2882.000000	0.903586
2881.000000	0.903549
2880.000000	0.903501
2879.000000	0.903442
2878.000000	0.903384
2877.000000	0.903340
2876.000000	0.903315
2875.000000	0.903303
2874.000000	0.903288
2873.000000	0.903261
2872.000000	0.903229
2871.000000	0.903208
2870.000000	0.903206
2869.000000	0.903212
2868.000000	0.903205
2867.000000	0.903168
2866.000000	0.903099
2865.000000	0.903009
2864.000000	0.902912
2863.000000	0.902820
2862.000000	0.902733
2861.000000	0.902645
2860.000000	0.902557
2859.000000	0.902479
2858.000000	0.902426
2857.000000	0.902401
2856.000000	0.902390
2855.000000	0.902374
2854.000000	0.902338
2853.000000	0.902281
2852.000000	0.902213
2851.000000	0.902150
2850.000000	0.902101
2849.000000	0.902066
2848.000000	0.902042
2847.000000	0.902031
2846.000000	0.902031
2845.000000	0.902035
2844.000000	0.902030
2843.000000	0.902014
2842.000000	0.901998
2841.000000	0.901989
2840.000000	0.901983
2839.000000	0.901969
2838.000000	0.901944
2837.000000	0.901909
2836.000000	0.901865
2835.000000	0.901820
2834.000000	0.901780
2833.000000	0.901751
2832.000000	0.901726
2831.000000	0.901699
2830.000000	0.901665
2829.000000	0.901627
2828.000000	0.901592
2827.000000	0.901564
2826.000000	0.901550
2825.000000	0.901545
2824.000000	0.901537
2823.000000	0.901513
2822.000000	0.901474
2821.000000	0.901432
2820.000000	0.901393
2819.000000	0.901358
2818.000000	0.901327
2817.000000	0.901304
2816.000000	0.901290
2815.000000	0.901281
2814.000000	0.901267
2813.000000	0.901243
2812.000000	0.901208
2811.000000	0.901165
2810.000000	0.901120
2809.000000	0.901082
2808.000000	0.901056
2807.000000	0.901042
2806.000000	0.901037
2805.000000	0.901033
2804.000000	0.901024
2803.000000	0.901006
2802.000000	0.900985
2801.000000	0.900968
2800.000000	0.900952
2799.000000	0.900922
2798.000000	0.900874
2797.000000	0.900824
2796.000000	0.900788
2795.000000	0.900767
2794.000000	0.900747
2793.000000	0.900725
2792.000000	0.900709
2791.000000	0.900708
2790.000000	0.900717
2789.000000	0.900723
2788.000000	0.900716
2787.000000	0.900692
2786.000000	0.900659
2785.000000	0.900628
2784.000000	0.900610
2783.000000	0.900609
2782.000000	0.900615
2781.000000	0.900616
2780.000000	0.900607
2779.000000	0.900589
2778.000000	0.900566
2777.000000	0.900540
2776.000000	0.900516
2775.000000	0.900492
2774.000000	0.900469
2773.000000	0.900450
2772.000000	0.900436
2771.000000	0.900424
2770.000000	0.900409
2769.000000	0.900391
2768.000000	0.900374
2767.000000	0.900365
2766.000000	0.900361
2765.000000	0.900356
2764.000000	0.900345
2763.000000	0.900327
2762.000000	0.900306
2761.000000	0.900289
2760.000000	0.900282
2759.000000	0.900289
2758.000000	0.900300
2757.000000	0.900302
2756.000000	0.900293
2755.000000	0.900283
2754.000000	0.900280
2753.000000	0.900280
2752.000000	0.900271
2751.000000	0.900254
2750.000000	0.900242
2749.000000	0.900249
2748.000000	0.900267
2747.000000	0.900281
2746.000000	0.900282
2745.000000	0.900278
2744.000000	0.900277
2743.000000	0.900283
2742.000000	0.900290
2741.000000	0.900295
2740.000000	0.900294
2739.000000	0.900282
2738.000000	0.900257
2737.000000	0.900227
2736.000000	0.900207
2735.000000	0.900204
2734.000000	0.900213
2733.000000	0.900227
2732.000000	0.900248
2731.000000	0.900272
2730.000000	0.900287
2729.000000	0.900280
2728.000000	0.900253
2727.000000	0.900221
2726.000000	0.900200
2725.000000	0.900192
2724.000000	0.900193
2723.000000	0.900198
2722.000000	0.900205
2721.000000	0.900209
2720.000000	0.900212
2719.000000	0.900216
2718.000000	0.900227
2717.000000	0.900243
2716.000000	0.900261
2715.000000	0.900273
2714.000000	0.900281
2713.000000	0.900284
2712.000000	0.900285
2711.000000	0.900281
2710.000000	0.900273
2709.000000	0.900260
2708.000000	0.900243
2707.000000	0.900226
2706.000000	0.900215
2705.000000	0.900217
2704.000000	0.900237
2703.000000	0.900276
2702.000000	0.900320
2701.000000	0.900354
2700.000000	0.900368
2699.000000	0.900364
2698.000000	0.900352
2697.000000	0.900337
2696.000000	0.900323
2695.000000	0.900314
2694.000000	0.900315
2693.000000	0.900332
2692.000000	0.900365
2691.000000	0.900403
2690.000000	0.900431
2689.000000	0.900441
2688.000000	0.900441
2687.000000	0.900448
2686.000000	0.900470
2685.000000	0.900500
2684.000000	0.900526
2683.000000	0.900543
2682.000000	0.900554
2681.000000	0.900564
2680.000000	0.900573
2679.000000	0.900579
2678.000000	0.900586
2677.000000	0.900597
2676.000000	0.900610
2675.000000	0.900621
2674.000000	0.900630
2673.000000	0.900642
2672.000000	0.900662
2671.000000	0.900686
2670.000000	0.900708
2669.000000	0.900723
2668.000000	0.900732
2667.000000	0.900738
2666.000000	0.900747
2665.000000	0.900758
2664.000000	0.900769
2663.000000	0.900779
2662.000000	0.900789
2661.000000	0.900806
2660.000000	0.900829
2659.000000	0.900854
2658.000000	0.900881
2657.000000	0.900916
2656.000000	0.900965
2655.000000	0.901015
2654.000000	0.901051
2653.000000	0.901069
2652.000000	0.901083
2651.000000	0.901103
2650.000000	0.901125
2649.000000	0.901139
2648.000000	0.901151
2647.000000	0.901177
2646.000000	0.901221
2645.000000	0.901271
2644.000000	0.901314
2643.000000	0.901347
2642.000000	0.901373
2641.000000	0.901395
2640.000000	0.901410
2639.000000	0.901416
2638.000000	0.901416
2637.000000	0.901415
2636.000000	0.901419
2635.000000	0.901431
2634.000000	0.901448
2633.000000	0.901470
2632.000000	0.901499
2631.000000	0.901537
2630.000000	0.901573
2629.000000	0.901598
2628.000000	0.901610
2627.000000	0.901619
2626.000000	0.901633
2625.000000	0.901647
2624.000000	0.901658
2623.000000	0.901665
2622.000000	0.901676
2621.000000	0.901696
2620.000000	0.901727
2619.000000	0.901768
2618.000000	0.901807
2617.000000	0.901832
2616.000000	0.901835
2615.000000	0.901827
2614.000000	0.901827
2613.000000	0.901843
2612.000000	0.901873
2611.000000	0.901910
2610.000000	0.901944
2609.000000	0.901966
2608.000000	0.901976
2607.000000	0.901979
2606.000000	0.901989
2605.000000	0.902011
2604.000000	0.902041
2603.000000	0.902073
2602.000000	0.902100
2601.000000	0.902117
2600.000000	0.902125
2599.000000	0.902130
2598.000000	0.902135
2597.000000	0.902136
2596.000000	0.902135
2595.000000	0.902140
2594.000000	0.902161
2593.000000	0.902191
2592.000000	0.902213
2591.000000	0.902221
2590.000000	0.902229
2589.000000	0.902257
2588.000000	0.902305
2587.000000	0.902358
2586.000000	0.902395
2585.000000	0.902411
2584.000000	0.902416
2583.000000	0.902423
2582.000000	0.902436
2581.000000	0.902449
2580.000000	0.902455
2579.000000	0.902456
2578.000000	0.902460
2577.000000	0.902476
2576.000000	0.902500
2575.000000	0.902523
2574.000000	0.902537
2573.000000	0.902540
2572.000000	0.902540
2571.000000	0.902547
2570.000000	0.902567
2569.000000	0.902590
2568.000000	0.902604
2567.000000	0.902614
2566.000000	0.902630
2565.000000	0.902662
2564.000000	0.902704
2563.000000	0.902741
2562.000000	0.902765
2561.000000	0.902777
2560.000000	0.902781
2559.000000	0.902783
2558.000000	0.902784
2557.000000	0.902784
2556.000000	0.902785
2555.000000	0.902797
2554.000000	0.902827
2553.000000	0.902863
2552.000000	0.902888
2551.000000	0.902894
2550.000000	0.902896
2549.000000	0.902905
2548.000000	0.902923
2547.000000	0.902942
2546.000000	0.902962
2545.000000	0.902988
2544.000000	0.903021
2543.000000	0.903053
2542.000000	0.903079
2541.000000	0.903097
2540.000000	0.903105
2539.000000	0.903105
2538.000000	0.903105
2537.000000	0.903112
2536.000000	0.903128
2535.000000	0.903145
2534.000000	0.903157
2533.000000	0.903165
2532.000000	0.903170
2531.000000	0.903171
2530.000000	0.903173
2529.000000	0.903184
2528.000000	0.903208
2527.000000	0.903235
2526.000000	0.903249
2525.000000	0.903245
2524.000000	0.903232
2523.000000	0.903222
2522.000000	0.903223
2521.000000	0.903232
2520.000000	0.903246
2519.000000	0.903263
2518.000000	0.903283
2517.000000	0.903303
2516.000000	0.903319
2515.000000	0.903330
2514.000000	0.903337
2513.000000	0.903344
2512.000000	0.903356
2511.000000	0.903376
2510.000000	0.903403
2509.000000	0.903430
2508.000000	0.903455
2507.000000	0.903480
2506.000000	0.903509
2505.000000	0.903540
2504.000000	0.903571
2503.000000	0.903598
2502.000000	0.903620
2501.000000	0.903632
2500.000000	0.903634
2499.000000	0.903633
2498.000000	0.903643
2497.000000	0.903662
2496.000000	0.903680
2495.000000	0.903691
2494.000000	0.903698
2493.000000	0.903708
2492.000000	0.903721
2491.000000	0.903738
2490.000000	0.903763
2489.000000	0.903797
2488.000000	0.903836
2487.000000	0.903869
2486.000000	0.903892
2485.000000	0.903906
2484.000000	0.903914
2483.000000	0.903919
2482.000000	0.903928
2481.000000	0.903946
2480.000000	0.903970
2479.000000	0.903997
2478.000000	0.904027
2477.000000	0.904058
2476.000000	0.904084
2475.000000	0.904096
2474.000000	0.904105
2473.000000	0.904126
2472.000000	0.904168
2471.000000	0.904222
2470.000000	0.904272
2469.000000	0.904310
2468.000000	0.904336
2467.000000	0.904355
2466.000000	0.904380
2465.000000	0.904418
2464.000000	0.904468
2463.000000	0.904515
2462.000000	0.904548
2461.000000	0.904567
2460.000000	0.904582
2459.000000	0.904600
2458.000000	0.904620
2457.000000	0.904641
2456.000000	0.904660
2455.000000	0.904677
2454.000000	0.904697
2453.000000	0.904728
2452.000000	0.904771
2451.000000	0.904816
2450.000000	0.904851
2449.000000	0.904870
2448.000000	0.904879
2447.000000	0.904885
2446.000000	0.904891
2445.000000	0.904905
2444.000000	0.904927
2443.000000	0.904954
2442.000000	0.904978
2441.000000	0.904996
2440.000000	0.905016
2439.000000	0.905046
2438.000000	0.905082
2437.000000	0.905114
2436.000000	0.905135
2435.000000	0.905149
2434.000000	0.905165
2433.000000	0.905188
2432.000000	0.905215
2431.000000	0.905244
2430.000000	0.905275
2429.000000	0.905304
2428.000000	0.905327
2427.000000	0.905339
2426.000000	0.905341
2425.000000	0.905341
2424.000000	0.905348
2423.000000	0.905365
2422.000000	0.905386
2421.000000	0.905398
2420.000000	0.905391
2419.000000	0.905368
2418.000000	0.905339
2417.000000	0.905315
2416.000000	0.905298
2415.000000	0.905278
2414.000000	0.905246
2413.000000	0.905198
2412.000000	0.905143
2411.000000	0.905097
2410.000000	0.905070
2409.000000	0.905057
2408.000000	0.905041
2407.000000	0.905007
2406.000000	0.904957
2405.000000	0.904902
2404.000000	0.904854
2403.000000	0.904817
2402.000000	0.904792
2401.000000	0.904776
2400.000000	0.904760
2399.000000	0.904739
2398.000000	0.904713
2397.000000	0.904691
2396.000000	0.904677
2395.000000	0.904666
2394.000000	0.904650
2393.000000	0.904628
2392.000000	0.904609
2391.000000	0.904597
2390.000000	0.904586
2389.000000	0.904566
2388.000000	0.904536
2387.000000	0.904506
2386.000000	0.904492
2385.000000	0.904491
2384.000000	0.904486
2383.000000	0.904453
2382.000000	0.904385
2381.000000	0.904292
2380.000000	0.904192
2379.000000	0.904100
2378.000000	0.904019
2377.000000	0.903940
2376.000000	0.903850
2375.000000	0.903741
2374.000000	0.903615
2373.000000	0.903478
2372.000000	0.903339
2371.000000	0.903201
2370.000000	0.903064
2369.000000	0.902923
2368.000000	0.902779
2367.000000	0.902643
2366.000000	0.902528
2365.000000	0.902442
2364.000000	0.902380
2363.000000	0.902333
2362.000000	0.902304
2361.000000	0.902302
2360.000000	0.902332
2359.000000	0.902392
2358.000000	0.902481
2357.000000	0.902604
2356.000000	0.902759
2355.000000	0.902933
2354.000000	0.903116
2353.000000	0.903307
2352.000000	0.903511
2351.000000	0.903720
2350.000000	0.903908
2349.000000	0.904042
2348.000000	0.904107
2347.000000	0.904128
2346.000000	0.904158
2345.000000	0.904247
2344.000000	0.904421
2343.000000	0.904666
2342.000000	0.904930
2341.000000	0.905137
2340.000000	0.905208
2339.000000	0.905103
2338.000000	0.904844
2337.000000	0.904503
2336.000000	0.904166
2335.000000	0.903894
2334.000000	0.903710
2333.000000	0.903605
2332.000000	0.903555
2331.000000	0.903544
2330.000000	0.903567
2329.000000	0.903615
2328.000000	0.903671
2327.000000	0.903719
2326.000000	0.903761
2325.000000	0.903808
2324.000000	0.903871
2323.000000	0.903951
2322.000000	0.904043
2321.000000	0.904138
2320.000000	0.904227
2319.000000	0.904302
2318.000000	0.904360
2317.000000	0.904410
2316.000000	0.904459
2315.000000	0.904510
2314.000000	0.904559
2313.000000	0.904600
2312.000000	0.904631
2311.000000	0.904656
2310.000000	0.904685
2309.000000	0.904726
2308.000000	0.904778
2307.000000	0.904827
2306.000000	0.904865
2305.000000	0.904896
2304.000000	0.904922
2303.000000	0.904945
2302.000000	0.904960
2301.000000	0.904970
2300.000000	0.904979
2299.000000	0.904993
2298.000000	0.905013
2297.000000	0.905033
2296.000000	0.905048
2295.000000	0.905059
2294.000000	0.905067
2293.000000	0.905074
2292.000000	0.905077
2291.000000	0.905078
2290.000000	0.905082
2289.000000	0.905098
2288.000000	0.905121
2287.000000	0.905144
2286.000000	0.905163
2285.000000	0.905185
2284.000000	0.905212
2283.000000	0.905234
2282.000000	0.905246
2281.000000	0.905252
2280.000000	0.905259
2279.000000	0.905273
2278.000000	0.905291
2277.000000	0.905313
2276.000000	0.905333
2275.000000	0.905346
2274.000000	0.905347
2273.000000	0.905343
2272.000000	0.905345
2271.000000	0.905352
2270.000000	0.905355
2269.000000	0.905351
2268.000000	0.905343
2267.000000	0.905340
2266.000000	0.905343
2265.000000	0.905345
2264.000000	0.905341
2263.000000	0.905332
2262.000000	0.905325
2261.000000	0.905322
2260.000000	0.905323
2259.000000	0.905325
2258.000000	0.905323
2257.000000	0.905318
2256.000000	0.905317
2255.000000	0.905328
2254.000000	0.905351
2253.000000	0.905374
2252.000000	0.905383
2251.000000	0.905373
2250.000000	0.905352
2249.000000	0.905333
2248.000000	0.905319
2247.000000	0.905310
2246.000000	0.905304
2245.000000	0.905304
2244.000000	0.905308
2243.000000	0.905315
2242.000000	0.905326
2241.000000	0.905342
2240.000000	0.905361
2239.000000	0.905370
2238.000000	0.905361
2237.000000	0.905339
2236.000000	0.905315
2235.000000	0.905300
2234.000000	0.905294
2233.000000	0.905295
2232.000000	0.905297
2231.000000	0.905298
2230.000000	0.905297
2229.000000	0.905297
2228.000000	0.905300
2227.000000	0.905302
2226.000000	0.905300
2225.000000	0.905292
2224.000000	0.905282
2223.000000	0.905272
2222.000000	0.905262
2221.000000	0.905251
2220.000000	0.905243
2219.000000	0.905239
2218.000000	0.905233
2217.000000	0.905219
2216.000000	0.905199
2215.000000	0.905183
2214.000000	0.905180
2213.000000	0.905185
2212.000000	0.905188
2211.000000	0.905177
2210.000000	0.905150
2209.000000	0.905111
2208.000000	0.905071
2207.000000	0.905040
2206.000000	0.905020
2205.000000	0.905008
2204.000000	0.905000
2203.000000	0.904995
2202.000000	0.904990
2201.000000	0.904976
2200.000000	0.904950
2199.000000	0.904919
2198.000000	0.904893
2197.000000	0.904876
2196.000000	0.904865
2195.000000	0.904861
2194.000000	0.904867
2193.000000	0.904878
2192.000000	0.904877
2191.000000	0.904853
2190.000000	0.904810
2189.000000	0.904768
2188.000000	0.904740
2187.000000	0.904728
2186.000000	0.904726
2185.000000	0.904726
2184.000000	0.904719
2183.000000	0.904699
2182.000000	0.904670
2181.000000	0.904637
2180.000000	0.904607
2179.000000	0.904585
2178.000000	0.904578
2177.000000	0.904584
2176.000000	0.904589
2175.000000	0.904579
2174.000000	0.904548
2173.000000	0.904505
2172.000000	0.904461
2171.000000	0.904421
2170.000000	0.904382
2169.000000	0.904345
2168.000000	0.904313
2167.000000	0.904287
2166.000000	0.904266
2165.000000	0.904248
2164.000000	0.904231
2163.000000	0.904213
2162.000000	0.904190
2161.000000	0.904161
2160.000000	0.904125
2159.000000	0.904085
2158.000000	0.904048
2157.000000	0.904016
2156.000000	0.903987
2155.000000	0.903951
2154.000000	0.903905
2153.000000	0.903857
2152.000000	0.903815
2151.000000	0.903782
2150.000000	0.903750
2149.000000	0.903713
2148.000000	0.903679
2147.000000	0.903664
2146.000000	0.903674
2145.000000	0.903696
2144.000000	0.903707
2143.000000	0.903694
2142.000000	0.903659
2141.000000	0.903613
2140.000000	0.903559
2139.000000	0.903500
2138.000000	0.903442
2137.000000	0.903388
2136.000000	0.903338
2135.000000	0.903293
2134.000000	0.903261
2133.000000	0.903250
2132.000000	0.903250
2131.000000	0.903236
2130.000000	0.903191
2129.000000	0.903121
2128.000000	0.903051
2127.000000	0.903002
2126.000000	0.902979
2125.000000	0.902971
2124.000000	0.902958
2123.000000	0.902933
2122.000000	0.902898
2121.000000	0.902860
2120.000000	0.902820
2119.000000	0.902776
2118.000000	0.902734
2117.000000	0.902702
2116.000000	0.902681
2115.000000	0.902664
2114.000000	0.902639
2113.000000	0.902600
2112.000000	0.902552
2111.000000	0.902502
2110.000000	0.902457
2109.000000	0.902420
2108.000000	0.902390
2107.000000	0.902359
2106.000000	0.902315
2105.000000	0.902254
2104.000000	0.902184
2103.000000	0.902122
2102.000000	0.902084
2101.000000	0.902072
2100.000000	0.902073
2099.000000	0.902069
2098.000000	0.902047
2097.000000	0.902007
2096.000000	0.901954
2095.000000	0.901896
2094.000000	0.901840
2093.000000	0.901796
2092.000000	0.901765
2091.000000	0.901742
2090.000000	0.901721
2089.000000	0.901697
2088.000000	0.901666
2087.000000	0.901625
2086.000000	0.901577
2085.000000	0.901527
2084.000000	0.901480
2083.000000	0.901442
2082.000000	0.901415
2081.000000	0.901396
2080.000000	0.901371
2079.000000	0.901326
2078.000000	0.901261
2077.000000	0.901190
2076.000000	0.901131
2075.000000	0.901086
2074.000000	0.901053
2073.000000	0.901030
2072.000000	0.901018
2071.000000	0.901011
2070.000000	0.900999
2069.000000	0.900970
2068.000000	0.900920
2067.000000	0.900860
2066.000000	0.900801
2065.000000	0.900751
2064.000000	0.900707
2063.000000	0.900663
2062.000000	0.900619
2061.000000	0.900579
2060.000000	0.900544
2059.000000	0.900507
2058.000000	0.900463
2057.000000	0.900414
2056.000000	0.900364
2055.000000	0.900318
2054.000000	0.900282
2053.000000	0.900257
2052.000000	0.900237
2051.000000	0.900208
2050.000000	0.900168
2049.000000	0.900121
2048.000000	0.900075
2047.000000	0.900034
2046.000000	0.899995
2045.000000	0.899958
2044.000000	0.899921
2043.000000	0.899880
2042.000000	0.899836
2041.000000	0.899792
2040.000000	0.899747
2039.000000	0.899701
2038.000000	0.899658
2037.000000	0.899623
2036.000000	0.899598
2035.000000	0.899575
2034.000000	0.899548
2033.000000	0.899518
2032.000000	0.899493
2031.000000	0.899471
2030.000000	0.899443
2029.000000	0.899405
2028.000000	0.899357
2027.000000	0.899307
2026.000000	0.899263
2025.000000	0.899231
2024.000000	0.899211
2023.000000	0.899192
2022.000000	0.899166
2021.000000	0.899127
2020.000000	0.899076
2019.000000	0.899014
2018.000000	0.898951
2017.000000	0.898900
2016.000000	0.898866
2015.000000	0.898845
2014.000000	0.898826
2013.000000	0.898811
2012.000000	0.898801
2011.000000	0.898789
2010.000000	0.898767
2009.000000	0.898732
2008.000000	0.898698
2007.000000	0.898678
2006.000000	0.898668
2005.000000	0.898656
2004.000000	0.898633
2003.000000	0.898598
2002.000000	0.898559
2001.000000	0.898527
2000.000000	0.898509
1999.000000	0.898507
1998.000000	0.898509
1997.000000	0.898502
1996.000000	0.898475
1995.000000	0.898426
1994.000000	0.898360
1993.000000	0.898288
1992.000000	0.898228
1991.000000	0.898199
1990.000000	0.898199
1989.000000	0.898212
1988.000000	0.898216
1987.000000	0.898202
1986.000000	0.898174
1985.000000	0.898142
1984.000000	0.898108
1983.000000	0.898075
1982.000000	0.898048
1981.000000	0.898032
1980.000000	0.898029
1979.000000	0.898030
1978.000000	0.898028
1977.000000	0.898016
1976.000000	0.897992
1975.000000	0.897966
1974.000000	0.897947
1973.000000	0.897937
1972.000000	0.897924
1971.000000	0.897899
1970.000000	0.897863
1969.000000	0.897833
1968.000000	0.897817
1967.000000	0.897816
1966.000000	0.897820
1965.000000	0.897818
1964.000000	0.897807
1963.000000	0.897792
1962.000000	0.897782
1961.000000	0.897780
1960.000000	0.897774
1959.000000	0.897756
1958.000000	0.897734
1957.000000	0.897721
1956.000000	0.897721
1955.000000	0.897720
1954.000000	0.897706
1953.000000	0.897678
1952.000000	0.897650
1951.000000	0.897633
1950.000000	0.897626
1949.000000	0.897627
1948.000000	0.897629
1947.000000	0.897628
1946.000000	0.897620
1945.000000	0.897605
1944.000000	0.897586
1943.000000	0.897571
1942.000000	0.897567
1941.000000	0.897578
1940.000000	0.897599
1939.000000	0.897621
1938.000000	0.897637
1937.000000	0.897648
1936.000000	0.897654
1935.000000	0.897656
1934.000000	0.897656
1933.000000	0.897654
1932.000000	0.897651
1931.000000	0.897647
1930.000000	0.897646
1929.000000	0.897648
1928.000000	0.897650
1927.000000	0.897644
1926.000000	0.897630
1925.000000	0.897616
1924.000000	0.897606
1923.000000	0.897603
1922.000000	0.897604
1921.000000	0.897603
1920.000000	0.897590
1919.000000	0.897568
1918.000000	0.897559
1917.000000	0.897583
1916.000000	0.897636
1915.000000	0.897695
1914.000000	0.897739
1913.000000	0.897760
1912.000000	0.897760
1911.000000	0.897747
1910.000000	0.897737
1909.000000	0.897746
1908.000000	0.897771
1907.000000	0.897800
1906.000000	0.897824
1905.000000	0.897843
1904.000000	0.897857
1903.000000	0.897859
1902.000000	0.897853
1901.000000	0.897849
1900.000000	0.897857
1899.000000	0.897873
1898.000000	0.897886
1897.000000	0.897892
1896.000000	0.897888
1895.000000	0.897874
1894.000000	0.897862
1893.000000	0.897863
1892.000000	0.897876
1891.000000	0.897887
1890.000000	0.897892
1889.000000	0.897904
1888.000000	0.897935
1887.000000	0.897974
1886.000000	0.898002
1885.000000	0.898010
1884.000000	0.898005
1883.000000	0.898000
1882.000000	0.898002
1881.000000	0.898017
1880.000000	0.898038
1879.000000	0.898054
1878.000000	0.898059
1877.000000	0.898056
1876.000000	0.898054
1875.000000	0.898057
1874.000000	0.898062
1873.000000	0.898066
1872.000000	0.898059
1871.000000	0.898030
1870.000000	0.897987
1869.000000	0.897960
1868.000000	0.897968
1867.000000	0.898004
1866.000000	0.898045
1865.000000	0.898077
1864.000000	0.898096
1863.000000	0.898105
1862.000000	0.898106
1861.000000	0.898114
1860.000000	0.898140
1859.000000	0.898177
1858.000000	0.898207
1857.000000	0.898219
1856.000000	0.898223
1855.000000	0.898230
1854.000000	0.898245
1853.000000	0.898262
1852.000000	0.898273
1851.000000	0.898273
1850.000000	0.898267
1849.000000	0.898265
1848.000000	0.898261
1847.000000	0.898230
1846.000000	0.898162
1845.000000	0.898087
1844.000000	0.898063
1843.000000	0.898114
1842.000000	0.898207
1841.000000	0.898289
1840.000000	0.898333
1839.000000	0.898349
1838.000000	0.898359
1837.000000	0.898377
1836.000000	0.898404
1835.000000	0.898431
1834.000000	0.898445
1833.000000	0.898433
1832.000000	0.898390
1831.000000	0.898330
1830.000000	0.898286
1829.000000	0.898285
1828.000000	0.898317
1827.000000	0.898349
1826.000000	0.898365
1825.000000	0.898385
1824.000000	0.898433
1823.000000	0.898501
1822.000000	0.898559
1821.000000	0.898593
1820.000000	0.898612
1819.000000	0.898626
1818.000000	0.898638
1817.000000	0.898653
1816.000000	0.898682
1815.000000	0.898722
1814.000000	0.898751
1813.000000	0.898757
1812.000000	0.898750
1811.000000	0.898753
1810.000000	0.898771
1809.000000	0.898794
1808.000000	0.898809
1807.000000	0.898814
1806.000000	0.898815
1805.000000	0.898815
1804.000000	0.898806
1803.000000	0.898780
1802.000000	0.898739
1801.000000	0.898697
1800.000000	0.898671
1799.000000	0.898668
1798.000000	0.898691
1797.000000	0.898731
1796.000000	0.898758
1795.000000	0.898734
1794.000000	0.898651
1793.000000	0.898555
1792.000000	0.898518
1791.000000	0.898575
1790.000000	0.898693
1789.000000	0.898809
1788.000000	0.898878
1787.000000	0.898894
1786.000000	0.898887
1785.000000	0.898888
1784.000000	0.898910
1783.000000	0.898938
1782.000000	0.898954
1781.000000	0.898957
1780.000000	0.898964
1779.000000	0.898988
1778.000000	0.899029
1777.000000	0.899076
1776.000000	0.899098
1775.000000	0.899051
1774.000000	0.898931
1773.000000	0.898803
1772.000000	0.898759
1771.000000	0.898826
1770.000000	0.898944
1769.000000	0.899044
1768.000000	0.899119
1767.000000	0.899200
1766.000000	0.899289
1765.000000	0.899338
1764.000000	0.899314
1763.000000	0.899246
1762.000000	0.899199
1761.000000	0.899217
1760.000000	0.899285
1759.000000	0.899357
1758.000000	0.899401
1757.000000	0.899436
1756.000000	0.899490
1755.000000	0.899551
1754.000000	0.899566
1753.000000	0.899502
1752.000000	0.899396
1751.000000	0.899329
1750.000000	0.899344
1749.000000	0.899422
1748.000000	0.899515
1747.000000	0.899595
1746.000000	0.899656
1745.000000	0.899702
1744.000000	0.899742
1743.000000	0.899777
1742.000000	0.899795
1741.000000	0.899785
1740.000000	0.899773
1739.000000	0.899805
1738.000000	0.899869
1737.000000	0.899871
1736.000000	0.899724
1735.000000	0.899482
1734.000000	0.899324
1733.000000	0.899385
1732.000000	0.899621
1731.000000	0.899882
1730.000000	0.900066
1729.000000	0.900173
1728.000000	0.900244
1727.000000	0.900297
1726.000000	0.900334
1725.000000	0.900361
1724.000000	0.900387
1723.000000	0.900406
1722.000000	0.900403
1721.000000	0.900349
1720.000000	0.900206
1719.000000	0.899980
1718.000000	0.899765
1717.000000	0.899695
1716.000000	0.899815
1715.000000	0.900044
1714.000000	0.900267
1713.000000	0.900433
1712.000000	0.900544
1711.000000	0.900603
1710.000000	0.900610
1709.000000	0.900588
1708.000000	0.900561
1707.000000	0.900526
1706.000000	0.900492
1705.000000	0.900485
1704.000000	0.900491
1703.000000	0.900416
1702.000000	0.900197
1701.000000	0.899934
1700.000000	0.899816
1699.000000	0.899889
1698.000000	0.899999
1697.000000	0.900003
1696.000000	0.899963
1695.000000	0.900051
1694.000000	0.900314
1693.000000	0.900618
1692.000000	0.900812
1691.000000	0.900876
1690.000000	0.900886
1689.000000	0.900888
1688.000000	0.900830
1687.000000	0.900632
1686.000000	0.900307
1685.000000	0.900012
1684.000000	0.899938
1683.000000	0.900129
1682.000000	0.900442
1681.000000	0.900700
1680.000000	0.900844
1679.000000	0.900906
1678.000000	0.900906
1677.000000	0.900834
1676.000000	0.900721
1675.000000	0.900660
1674.000000	0.900706
1673.000000	0.900802
1672.000000	0.900849
1671.000000	0.900814
1670.000000	0.900754
1669.000000	0.900744
1668.000000	0.900809
1667.000000	0.900915
1666.000000	0.900997
1665.000000	0.901013
1664.000000	0.900974
1663.000000	0.900945
1662.000000	0.900980
1661.000000	0.901066
1660.000000	0.901144
1659.000000	0.901184
1658.000000	0.901189
1657.000000	0.901137
1656.000000	0.900941
1655.000000	0.900551
1654.000000	0.900087
1653.000000	0.899821
1652.000000	0.899952
1651.000000	0.900387
1650.000000	0.900822
1649.000000	0.901015
1648.000000	0.900961
1647.000000	0.900836
1646.000000	0.900811
1645.000000	0.900929
1644.000000	0.901122
1643.000000	0.901290
1642.000000	0.901380
1641.000000	0.901403
1640.000000	0.901393
1639.000000	0.901345
1638.000000	0.901215
1637.000000	0.901012
1636.000000	0.900842
1635.000000	0.900836
1634.000000	0.901018
1633.000000	0.901279
1632.000000	0.901483
1631.000000	0.901571
1630.000000	0.901563
1629.000000	0.901511
1628.000000	0.901462
1627.000000	0.901438
1626.000000	0.901424
1625.000000	0.901391
1624.000000	0.901344
1623.000000	0.901324
1622.000000	0.901363
1621.000000	0.901424
1620.000000	0.901418
1619.000000	0.901290
1618.000000	0.901092
1617.000000	0.900962
1616.000000	0.901018
1615.000000	0.901250
1614.000000	0.901531
1613.000000	0.901725
1612.000000	0.901794
1611.000000	0.901785
1610.000000	0.901754
1609.000000	0.901719
1608.000000	0.901685
1607.000000	0.901669
1606.000000	0.901683
1605.000000	0.901717
1604.000000	0.901747
1603.000000	0.901763
1602.000000	0.901770
1601.000000	0.901775
1600.000000	0.901783
1599.000000	0.901797
1598.000000	0.901818
1597.000000	0.901840
1596.000000	0.901857
1595.000000	0.901868
1594.000000	0.901875
1593.000000	0.901880
1592.000000	0.901888
1591.000000	0.901907
1590.000000	0.901940
1589.000000	0.901977
1588.000000	0.902009
1587.000000	0.902032
1586.000000	0.902045
1585.000000	0.902048
1584.000000	0.902044
1583.000000	0.902040
1582.000000	0.902050
1581.000000	0.902071
1580.000000	0.902068
1579.000000	0.901980
1578.000000	0.901782
1577.000000	0.901550
1576.000000	0.901437
1575.000000	0.901540
1574.000000	0.901788
1573.000000	0.901999
1572.000000	0.902048
1571.000000	0.901970
1570.000000	0.901893
1569.000000	0.901907
1568.000000	0.902004
1567.000000	0.902117
1566.000000	0.902193
1565.000000	0.902221
1564.000000	0.902211
1563.000000	0.902132
1562.000000	0.901912
1561.000000	0.901525
1560.000000	0.901100
1559.000000	0.900876
1558.000000	0.900981
1557.000000	0.901301
1556.000000	0.901605
1555.000000	0.901779
1554.000000	0.901872
1553.000000	0.901968
1552.000000	0.902081
1551.000000	0.902179
1550.000000	0.902251
1549.000000	0.902303
1548.000000	0.902316
1547.000000	0.902265
1546.000000	0.902155
1545.000000	0.902023
1544.000000	0.901887
1543.000000	0.901723
1542.000000	0.901506
1541.000000	0.901271
1540.000000	0.901133
1539.000000	0.901207
1538.000000	0.901494
1537.000000	0.901843
1536.000000	0.902070
1535.000000	0.902114
1534.000000	0.902074
1533.000000	0.902081
1532.000000	0.902165
1531.000000	0.902267
1530.000000	0.902322
1529.000000	0.902319
1528.000000	0.902272
1527.000000	0.902212
1526.000000	0.902169
1525.000000	0.902145
1524.000000	0.902095
1523.000000	0.901980
1522.000000	0.901842
1521.000000	0.901790
1520.000000	0.901880
1519.000000	0.902045
1518.000000	0.902181
1517.000000	0.902256
1516.000000	0.902311
1515.000000	0.902368
1514.000000	0.902399
1513.000000	0.902380
1512.000000	0.902333
1511.000000	0.902279
1510.000000	0.902183
1509.000000	0.901986
1508.000000	0.901710
1507.000000	0.901492
1506.000000	0.901489
1505.000000	0.901736
1504.000000	0.902114
1503.000000	0.902458
1502.000000	0.902676
1501.000000	0.902773
1500.000000	0.902787
