PE IR       SUBTECH     SPECTRUM    ASCII       PEDS        4.00        
   -1
TE110A_014_90K.ASC
20/05/14
12:02:33.00
20/05/14
12:02:33.00
Administrator
TE110A.Thursday, May 14 2020, 002.
1000.000000
#HDR
-1
-1
#GR
cm-1
A
1.0
0.0
6000.000000
-2.000000
2501
8
1.271294
1.218359
#DATA
6000.000000	1.253077
5998.000000	1.252047
5996.000000	1.251625
5994.000000	1.251962
5992.000000	1.252523
5990.000000	1.252427
5988.000000	1.251884
5986.000000	1.251699
5984.000000	1.251905
5982.000000	1.252074
5980.000000	1.251866
5978.000000	1.251751
5976.000000	1.251862
5974.000000	1.252144
5972.000000	1.251966
5970.000000	1.251382
5968.000000	1.251074
5966.000000	1.251190
5964.000000	1.251471
5962.000000	1.251433
5960.000000	1.251469
5958.000000	1.251414
5956.000000	1.251088
5954.000000	1.250883
5952.000000	1.251008
5950.000000	1.251412
5948.000000	1.251474
5946.000000	1.251064
5944.000000	1.251228
5942.000000	1.251585
5940.000000	1.251756
5938.000000	1.251373
5936.000000	1.250947
5934.000000	1.250794
5932.000000	1.250824
5930.000000	1.251280
5928.000000	1.251871
5926.000000	1.252044
5924.000000	1.251328
5922.000000	1.250736
5920.000000	1.250723
5918.000000	1.251073
5916.000000	1.251201
5914.000000	1.251185
5912.000000	1.251036
5910.000000	1.250662
5908.000000	1.250418
5906.000000	1.250407
5904.000000	1.250491
5902.000000	1.250311
5900.000000	1.250350
5898.000000	1.250280
5896.000000	1.250164
5894.000000	1.249990
5892.000000	1.250050
5890.000000	1.250093
5888.000000	1.250276
5886.000000	1.250670
5884.000000	1.251178
5882.000000	1.251363
5880.000000	1.251071
5878.000000	1.250762
5876.000000	1.249961
5874.000000	1.249491
5872.000000	1.249716
5870.000000	1.249998
5868.000000	1.250053
5866.000000	1.249706
5864.000000	1.249885
5862.000000	1.250118
5860.000000	1.250122
5858.000000	1.250038
5856.000000	1.250131
5854.000000	1.250052
5852.000000	1.249541
5850.000000	1.249157
5848.000000	1.248902
5846.000000	1.248780
5844.000000	1.249250
5842.000000	1.249812
5840.000000	1.250106
5838.000000	1.249906
5836.000000	1.249670
5834.000000	1.249889
5832.000000	1.249751
5830.000000	1.249427
5828.000000	1.249310
5826.000000	1.249673
5824.000000	1.249840
5822.000000	1.249522
5820.000000	1.249131
5818.000000	1.249016
5816.000000	1.249146
5814.000000	1.249223
5812.000000	1.249492
5810.000000	1.249910
5808.000000	1.250079
5806.000000	1.249661
5804.000000	1.249219
5802.000000	1.249061
5800.000000	1.249085
5798.000000	1.248811
5796.000000	1.248444
5794.000000	1.248643
5792.000000	1.249103
5790.000000	1.249204
5788.000000	1.248988
5786.000000	1.248650
5784.000000	1.248714
5782.000000	1.248694
5780.000000	1.248539
5778.000000	1.248570
5776.000000	1.248293
5774.000000	1.248157
5772.000000	1.248223
5770.000000	1.248397
5768.000000	1.248522
5766.000000	1.248459
5764.000000	1.248339
5762.000000	1.248448
5760.000000	1.248656
5758.000000	1.248534
5756.000000	1.248309
5754.000000	1.248123
5752.000000	1.248141
5750.000000	1.248312
5748.000000	1.248341
5746.000000	1.248504
5744.000000	1.248374
5742.000000	1.248088
5740.000000	1.247984
5738.000000	1.248047
5736.000000	1.247784
5734.000000	1.247544
5732.000000	1.247687
5730.000000	1.247816
5728.000000	1.247753
5726.000000	1.247613
5724.000000	1.247771
5722.000000	1.247797
5720.000000	1.247441
5718.000000	1.247071
5716.000000	1.247057
5714.000000	1.247238
5712.000000	1.247233
5710.000000	1.247272
5708.000000	1.247302
5706.000000	1.247254
5704.000000	1.247013
5702.000000	1.246732
5700.000000	1.246770
5698.000000	1.246846
5696.000000	1.247102
5694.000000	1.247351
5692.000000	1.247295
5690.000000	1.247021
5688.000000	1.246712
5686.000000	1.246663
5684.000000	1.246761
5682.000000	1.246919
5680.000000	1.247171
5678.000000	1.247338
5676.000000	1.247281
5674.000000	1.246918
5672.000000	1.246495
5670.000000	1.246250
5668.000000	1.246271
5666.000000	1.246601
5664.000000	1.246860
5662.000000	1.246865
5660.000000	1.246481
5658.000000	1.246422
5656.000000	1.246367
5654.000000	1.246514
5652.000000	1.246528
5650.000000	1.246518
5648.000000	1.246340
5646.000000	1.245955
5644.000000	1.245788
5642.000000	1.245976
5640.000000	1.246202
5638.000000	1.246324
5636.000000	1.246312
5634.000000	1.246168
5632.000000	1.246276
5630.000000	1.246499
5628.000000	1.246777
5626.000000	1.246751
5624.000000	1.246463
5622.000000	1.246120
5620.000000	1.245927
5618.000000	1.246102
5616.000000	1.246411
5614.000000	1.246568
5612.000000	1.246209
5610.000000	1.245705
5608.000000	1.245604
5606.000000	1.245647
5604.000000	1.245866
5602.000000	1.246227
5600.000000	1.246604
5598.000000	1.246489
5596.000000	1.245938
5594.000000	1.245515
5592.000000	1.245595
5590.000000	1.245586
5588.000000	1.245380
5586.000000	1.245440
5584.000000	1.245642
5582.000000	1.245824
5580.000000	1.245606
5578.000000	1.245084
5576.000000	1.244750
5574.000000	1.244818
5572.000000	1.245268
5570.000000	1.245336
5568.000000	1.245022
5566.000000	1.244772
5564.000000	1.244783
5562.000000	1.244715
5560.000000	1.244526
5558.000000	1.244538
5556.000000	1.244695
5554.000000	1.244703
5552.000000	1.244470
5550.000000	1.244586
5548.000000	1.245153
5546.000000	1.245511
5544.000000	1.245130
5542.000000	1.244527
5540.000000	1.244502
5538.000000	1.244826
5536.000000	1.244827
5534.000000	1.244689
5532.000000	1.244652
5530.000000	1.244732
5528.000000	1.244781
5526.000000	1.244573
5524.000000	1.244665
5522.000000	1.245016
5520.000000	1.245117
5518.000000	1.244895
5516.000000	1.244632
5514.000000	1.244569
5512.000000	1.244454
5510.000000	1.244283
5508.000000	1.244387
5506.000000	1.244453
5504.000000	1.244269
5502.000000	1.244224
5500.000000	1.244382
5498.000000	1.244401
5496.000000	1.243982
5494.000000	1.243596
5492.000000	1.243581
5490.000000	1.243807
5488.000000	1.244015
5486.000000	1.244318
5484.000000	1.244573
5482.000000	1.244326
5480.000000	1.243690
5478.000000	1.243173
5476.000000	1.243139
5474.000000	1.243360
5472.000000	1.243410
5470.000000	1.243445
5468.000000	1.243430
5466.000000	1.243493
5464.000000	1.243476
5462.000000	1.243553
5460.000000	1.243682
5458.000000	1.243741
5456.000000	1.243672
5454.000000	1.243262
5452.000000	1.242901
5450.000000	1.242575
5448.000000	1.242676
5446.000000	1.243096
5444.000000	1.243372
5442.000000	1.243295
5440.000000	1.242885
5438.000000	1.242663
5436.000000	1.242913
5434.000000	1.243120
5432.000000	1.243060
5430.000000	1.242815
5428.000000	1.242777
5426.000000	1.243103
5424.000000	1.243459
5422.000000	1.243455
5420.000000	1.243116
5418.000000	1.242623
5416.000000	1.242401
5414.000000	1.242527
5412.000000	1.242773
5410.000000	1.243077
5408.000000	1.243346
5406.000000	1.243448
5404.000000	1.243256
5402.000000	1.242944
5400.000000	1.242578
5398.000000	1.242200
5396.000000	1.242008
5394.000000	1.242254
5392.000000	1.242611
5390.000000	1.242413
5388.000000	1.241928
5386.000000	1.241800
5384.000000	1.242280
5382.000000	1.242719
5380.000000	1.242579
5378.000000	1.242360
5376.000000	1.242400
5374.000000	1.242754
5372.000000	1.242830
5370.000000	1.242623
5368.000000	1.242344
5366.000000	1.242373
5364.000000	1.242676
5362.000000	1.242842
5360.000000	1.242729
5358.000000	1.242348
5356.000000	1.241793
5354.000000	1.241386
5352.000000	1.241549
5350.000000	1.241865
5348.000000	1.241684
5346.000000	1.241457
5344.000000	1.241776
5342.000000	1.241890
5340.000000	1.241418
5338.000000	1.241077
5336.000000	1.241541
5334.000000	1.242097
5332.000000	1.242060
5330.000000	1.241740
5328.000000	1.241756
5326.000000	1.242258
5324.000000	1.242635
5322.000000	1.242403
5320.000000	1.241996
5318.000000	1.241803
5316.000000	1.241765
5314.000000	1.241768
5312.000000	1.241849
5310.000000	1.241954
5308.000000	1.242059
5306.000000	1.242194
5304.000000	1.242107
5302.000000	1.241707
5300.000000	1.241497
5298.000000	1.241689
5296.000000	1.241775
5294.000000	1.241492
5292.000000	1.241193
5290.000000	1.241342
5288.000000	1.241552
5286.000000	1.241566
5284.000000	1.241428
5282.000000	1.241341
5280.000000	1.241314
5278.000000	1.241391
5276.000000	1.241415
5274.000000	1.241202
5272.000000	1.240989
5270.000000	1.241015
5268.000000	1.241037
5266.000000	1.240813
5264.000000	1.240794
5262.000000	1.241074
5260.000000	1.241422
5258.000000	1.241292
5256.000000	1.241098
5254.000000	1.241088
5252.000000	1.241088
5250.000000	1.240930
5248.000000	1.240781
5246.000000	1.241014
5244.000000	1.241314
5242.000000	1.241396
5240.000000	1.241349
5238.000000	1.241341
5236.000000	1.241393
5234.000000	1.241243
5232.000000	1.241095
5230.000000	1.240989
5228.000000	1.240911
5226.000000	1.240902
5224.000000	1.241059
5222.000000	1.241315
5220.000000	1.241401
5218.000000	1.241428
5216.000000	1.241417
5214.000000	1.241398
5212.000000	1.241145
5210.000000	1.240704
5208.000000	1.240466
5206.000000	1.240692
5204.000000	1.241032
5202.000000	1.241004
5200.000000	1.240846
5198.000000	1.240795
5196.000000	1.240743
5194.000000	1.240560
5192.000000	1.240493
5190.000000	1.240589
5188.000000	1.240666
5186.000000	1.240607
5184.000000	1.240564
5182.000000	1.240642
5180.000000	1.240828
5178.000000	1.240871
5176.000000	1.240770
5174.000000	1.240571
5172.000000	1.240543
5170.000000	1.240707
5168.000000	1.240905
5166.000000	1.240885
5164.000000	1.240843
5162.000000	1.240839
5160.000000	1.240678
5158.000000	1.240447
5156.000000	1.240670
5154.000000	1.240966
5152.000000	1.240923
5150.000000	1.240528
5148.000000	1.240467
5146.000000	1.240649
5144.000000	1.240771
5142.000000	1.240780
5140.000000	1.240668
5138.000000	1.240601
5136.000000	1.240474
5134.000000	1.240600
5132.000000	1.240659
5130.000000	1.240483
5128.000000	1.240300
5126.000000	1.240361
5124.000000	1.240580
5122.000000	1.240623
5120.000000	1.240560
5118.000000	1.240494
5116.000000	1.240422
5114.000000	1.240423
5112.000000	1.240479
5110.000000	1.240493
5108.000000	1.240562
5106.000000	1.240773
5104.000000	1.240901
5102.000000	1.240686
5100.000000	1.240385
5098.000000	1.240341
5096.000000	1.240432
5094.000000	1.240424
5092.000000	1.240294
5090.000000	1.240277
5088.000000	1.240331
5086.000000	1.240413
5084.000000	1.240443
5082.000000	1.240481
5080.000000	1.240532
5078.000000	1.240609
5076.000000	1.240609
5074.000000	1.240354
5072.000000	1.240278
5070.000000	1.240468
5068.000000	1.240588
5066.000000	1.240441
5064.000000	1.240570
5062.000000	1.240919
5060.000000	1.240892
5058.000000	1.240585
5056.000000	1.240558
5054.000000	1.240745
5052.000000	1.240699
5050.000000	1.240607
5048.000000	1.240683
5046.000000	1.240727
5044.000000	1.240681
5042.000000	1.240781
5040.000000	1.240923
5038.000000	1.240887
5036.000000	1.240745
5034.000000	1.240591
5032.000000	1.240461
5030.000000	1.240363
5028.000000	1.240295
5026.000000	1.240278
5024.000000	1.240338
5022.000000	1.240403
5020.000000	1.240486
5018.000000	1.240552
5016.000000	1.240586
5014.000000	1.240520
5012.000000	1.240391
5010.000000	1.240391
5008.000000	1.240449
5006.000000	1.240360
5004.000000	1.240206
5002.000000	1.240258
5000.000000	1.240434
4998.000000	1.240511
4996.000000	1.240621
4994.000000	1.240613
4992.000000	1.240489
4990.000000	1.240478
4988.000000	1.240464
4986.000000	1.240345
4984.000000	1.240399
4982.000000	1.240612
4980.000000	1.240647
4978.000000	1.240528
4976.000000	1.240421
4974.000000	1.240278
4972.000000	1.240260
4970.000000	1.240441
4968.000000	1.240596
4966.000000	1.240612
4964.000000	1.240598
4962.000000	1.240568
4960.000000	1.240654
4958.000000	1.240774
4956.000000	1.240770
4954.000000	1.240636
4952.000000	1.240632
4950.000000	1.240767
4948.000000	1.240881
4946.000000	1.240753
4944.000000	1.240523
4942.000000	1.240495
4940.000000	1.240598
4938.000000	1.240548
4936.000000	1.240333
4934.000000	1.240297
4932.000000	1.240420
4930.000000	1.240436
4928.000000	1.240394
4926.000000	1.240538
4924.000000	1.240659
4922.000000	1.240605
4920.000000	1.240642
4918.000000	1.240701
4916.000000	1.240474
4914.000000	1.240292
4912.000000	1.240342
4910.000000	1.240509
4908.000000	1.240521
4906.000000	1.240492
4904.000000	1.240523
4902.000000	1.240703
4900.000000	1.240704
4898.000000	1.240469
4896.000000	1.240200
4894.000000	1.240106
4892.000000	1.240171
4890.000000	1.240384
4888.000000	1.240478
4886.000000	1.240406
4884.000000	1.240371
4882.000000	1.240483
4880.000000	1.240434
4878.000000	1.240212
4876.000000	1.240129
4874.000000	1.240281
4872.000000	1.240545
4870.000000	1.240680
4868.000000	1.240664
4866.000000	1.240626
4864.000000	1.240520
4862.000000	1.240340
4860.000000	1.240206
4858.000000	1.240263
4856.000000	1.240359
4854.000000	1.240425
4852.000000	1.240330
4850.000000	1.240006
4848.000000	1.240007
4846.000000	1.240465
4844.000000	1.240852
4842.000000	1.240657
4840.000000	1.240269
4838.000000	1.240169
4836.000000	1.240309
4834.000000	1.240375
4832.000000	1.240325
4830.000000	1.240249
4828.000000	1.240281
4826.000000	1.240411
4824.000000	1.240508
4822.000000	1.240480
4820.000000	1.240451
4818.000000	1.240406
4816.000000	1.240387
4814.000000	1.240438
4812.000000	1.240378
4810.000000	1.240148
4808.000000	1.239986
4806.000000	1.240069
4804.000000	1.240257
4802.000000	1.240239
4800.000000	1.240078
4798.000000	1.240044
4796.000000	1.240163
4794.000000	1.240231
4792.000000	1.240345
4790.000000	1.240527
4788.000000	1.240540
4786.000000	1.240466
4784.000000	1.240413
4782.000000	1.240442
4780.000000	1.240437
4778.000000	1.240417
4776.000000	1.240410
4774.000000	1.240393
4772.000000	1.240359
4770.000000	1.240335
4768.000000	1.240252
4766.000000	1.240186
4764.000000	1.240277
4762.000000	1.240436
4760.000000	1.240437
4758.000000	1.240442
4756.000000	1.240443
4754.000000	1.240355
4752.000000	1.240298
4750.000000	1.240356
4748.000000	1.240361
4746.000000	1.240239
4744.000000	1.240168
4742.000000	1.240205
4740.000000	1.240236
4738.000000	1.240252
4736.000000	1.240308
4734.000000	1.240358
4732.000000	1.240262
4730.000000	1.240143
4728.000000	1.240047
4726.000000	1.240069
4724.000000	1.240188
4722.000000	1.240275
4720.000000	1.240170
4718.000000	1.240117
4716.000000	1.240130
4714.000000	1.240023
4712.000000	1.239980
4710.000000	1.240142
4708.000000	1.240204
4706.000000	1.240179
4704.000000	1.240238
4702.000000	1.240242
4700.000000	1.240073
4698.000000	1.239888
4696.000000	1.239836
4694.000000	1.239982
4692.000000	1.240155
4690.000000	1.240212
4688.000000	1.240176
4686.000000	1.240128
4684.000000	1.240060
4682.000000	1.239999
4680.000000	1.240011
4678.000000	1.240078
4676.000000	1.240109
4674.000000	1.240172
4672.000000	1.240175
4670.000000	1.240082
4668.000000	1.240029
4666.000000	1.240026
4664.000000	1.239968
4662.000000	1.239966
4660.000000	1.240005
4658.000000	1.240056
4656.000000	1.240303
4654.000000	1.240550
4652.000000	1.240420
4650.000000	1.240149
4648.000000	1.240133
4646.000000	1.240193
4644.000000	1.240086
4642.000000	1.240048
4640.000000	1.240085
4638.000000	1.240166
4636.000000	1.240243
4634.000000	1.240199
4632.000000	1.240005
4630.000000	1.239872
4628.000000	1.239838
4626.000000	1.239878
4624.000000	1.239890
4622.000000	1.239725
4620.000000	1.239518
4618.000000	1.239626
4616.000000	1.239982
4614.000000	1.240060
4612.000000	1.239849
4610.000000	1.239819
4608.000000	1.239940
4606.000000	1.239997
4604.000000	1.240005
4602.000000	1.239921
4600.000000	1.239826
4598.000000	1.239886
4596.000000	1.239978
4594.000000	1.240018
4592.000000	1.240084
4590.000000	1.240103
4588.000000	1.239956
4586.000000	1.239758
4584.000000	1.239780
4582.000000	1.239969
4580.000000	1.240026
4578.000000	1.239990
4576.000000	1.239997
4574.000000	1.240011
4572.000000	1.239988
4570.000000	1.240005
4568.000000	1.240012
4566.000000	1.239929
4564.000000	1.239739
4562.000000	1.239647
4560.000000	1.239858
4558.000000	1.240197
4556.000000	1.240340
4554.000000	1.240267
4552.000000	1.240077
4550.000000	1.239790
4548.000000	1.239646
4546.000000	1.239781
4544.000000	1.239920
4542.000000	1.239930
4540.000000	1.239911
4538.000000	1.239860
4536.000000	1.239860
4534.000000	1.239959
4532.000000	1.240003
4530.000000	1.240025
4528.000000	1.240157
4526.000000	1.240159
4524.000000	1.239957
4522.000000	1.239751
4520.000000	1.239680
4518.000000	1.239667
4516.000000	1.239689
4514.000000	1.239701
4512.000000	1.239681
4510.000000	1.239599
4508.000000	1.239459
4506.000000	1.239465
4504.000000	1.239675
4502.000000	1.239759
4500.000000	1.239634
4498.000000	1.239640
4496.000000	1.239821
4494.000000	1.239931
4492.000000	1.239751
4490.000000	1.239433
4488.000000	1.239433
4486.000000	1.239747
4484.000000	1.239956
4482.000000	1.239920
4480.000000	1.239778
4478.000000	1.239674
4476.000000	1.239721
4474.000000	1.239807
4472.000000	1.239795
4470.000000	1.239796
4468.000000	1.239915
4466.000000	1.240029
4464.000000	1.240093
4462.000000	1.240039
4460.000000	1.239856
4458.000000	1.239749
4456.000000	1.239847
4454.000000	1.239964
4452.000000	1.239974
4450.000000	1.239826
4448.000000	1.239571
4446.000000	1.239448
4444.000000	1.239579
4442.000000	1.239708
4440.000000	1.239696
4438.000000	1.239692
4436.000000	1.239730
4434.000000	1.239769
4432.000000	1.239810
4430.000000	1.239733
4428.000000	1.239457
4426.000000	1.239236
4424.000000	1.239286
4422.000000	1.239430
4420.000000	1.239548
4418.000000	1.239631
4416.000000	1.239638
4414.000000	1.239563
4412.000000	1.239484
4410.000000	1.239553
4408.000000	1.239731
4406.000000	1.239738
4404.000000	1.239517
4402.000000	1.239351
4400.000000	1.239312
4398.000000	1.239273
4396.000000	1.239204
4394.000000	1.239174
4392.000000	1.239214
4390.000000	1.239378
4388.000000	1.239461
4386.000000	1.239331
4384.000000	1.239232
4382.000000	1.239301
4380.000000	1.239399
4378.000000	1.239393
4376.000000	1.239340
4374.000000	1.239380
4372.000000	1.239408
4370.000000	1.239306
4368.000000	1.239333
4366.000000	1.239443
4364.000000	1.239366
4362.000000	1.239324
4360.000000	1.239430
4358.000000	1.239500
4356.000000	1.239580
4354.000000	1.239612
4352.000000	1.239463
4350.000000	1.239387
4348.000000	1.239403
4346.000000	1.239284
4344.000000	1.239072
4342.000000	1.238995
4340.000000	1.239073
4338.000000	1.239156
4336.000000	1.239133
4334.000000	1.239078
4332.000000	1.239155
4330.000000	1.239219
4328.000000	1.239088
4326.000000	1.238966
4324.000000	1.238938
4322.000000	1.238870
4320.000000	1.238980
4318.000000	1.239251
4316.000000	1.239266
4314.000000	1.239011
4312.000000	1.238813
4310.000000	1.238830
4308.000000	1.238959
4306.000000	1.239043
4304.000000	1.239037
4302.000000	1.239009
4300.000000	1.238978
4298.000000	1.238782
4296.000000	1.238514
4294.000000	1.238507
4292.000000	1.238624
4290.000000	1.238704
4288.000000	1.238876
4286.000000	1.239030
4284.000000	1.238954
4282.000000	1.238783
4280.000000	1.238747
4278.000000	1.238786
4276.000000	1.238766
4274.000000	1.238778
4272.000000	1.238763
4270.000000	1.238711
4268.000000	1.238733
4266.000000	1.238783
4264.000000	1.238714
4262.000000	1.238661
4260.000000	1.238706
4258.000000	1.238642
4256.000000	1.238477
4254.000000	1.238457
4252.000000	1.238434
4250.000000	1.238337
4248.000000	1.238332
4246.000000	1.238442
4244.000000	1.238504
4242.000000	1.238401
4240.000000	1.238311
4238.000000	1.238324
4236.000000	1.238241
4234.000000	1.238164
4232.000000	1.238234
4230.000000	1.238346
4228.000000	1.238314
4226.000000	1.238173
4224.000000	1.238084
4222.000000	1.238010
4220.000000	1.237919
4218.000000	1.238017
4216.000000	1.238174
4214.000000	1.238179
4212.000000	1.238167
4210.000000	1.238219
4208.000000	1.238185
4206.000000	1.238148
4204.000000	1.238069
4202.000000	1.237919
4200.000000	1.237890
4198.000000	1.237950
4196.000000	1.237906
4194.000000	1.237861
4192.000000	1.237889
4190.000000	1.237885
4188.000000	1.237827
4186.000000	1.237869
4184.000000	1.237947
4182.000000	1.237928
4180.000000	1.237843
4178.000000	1.237800
4176.000000	1.237839
4174.000000	1.237891
4172.000000	1.237832
4170.000000	1.237662
4168.000000	1.237585
4166.000000	1.237749
4164.000000	1.237828
4162.000000	1.237693
4160.000000	1.237638
4158.000000	1.237578
4156.000000	1.237385
4154.000000	1.237357
4152.000000	1.237465
4150.000000	1.237404
4148.000000	1.237289
4146.000000	1.237293
4144.000000	1.237213
4142.000000	1.237116
4140.000000	1.237201
4138.000000	1.237201
4136.000000	1.237018
4134.000000	1.237006
4132.000000	1.237140
4130.000000	1.237101
4128.000000	1.236945
4126.000000	1.236917
4124.000000	1.236835
4122.000000	1.236614
4120.000000	1.236531
4118.000000	1.236575
4116.000000	1.236645
4114.000000	1.236747
4112.000000	1.236715
4110.000000	1.236630
4108.000000	1.236680
4106.000000	1.236728
4104.000000	1.236683
4102.000000	1.236702
4100.000000	1.236724
4098.000000	1.236692
4096.000000	1.236668
4094.000000	1.236585
4092.000000	1.236486
4090.000000	1.236479
4088.000000	1.236464
4086.000000	1.236447
4084.000000	1.236495
4082.000000	1.236455
4080.000000	1.236346
4078.000000	1.236328
4076.000000	1.236299
4074.000000	1.236336
4072.000000	1.236390
4070.000000	1.236230
4068.000000	1.236059
4066.000000	1.236054
4064.000000	1.236017
4062.000000	1.235867
4060.000000	1.235752
4058.000000	1.235788
4056.000000	1.235904
4054.000000	1.235940
4052.000000	1.235782
4050.000000	1.235655
4048.000000	1.235660
4046.000000	1.235645
4044.000000	1.235618
4042.000000	1.235588
4040.000000	1.235501
4038.000000	1.235428
4036.000000	1.235322
4034.000000	1.235263
4032.000000	1.235356
4030.000000	1.235346
4028.000000	1.235130
4026.000000	1.235035
4024.000000	1.235121
4022.000000	1.235114
4020.000000	1.235005
4018.000000	1.235022
4016.000000	1.235068
4014.000000	1.235024
4012.000000	1.234965
4010.000000	1.234918
4008.000000	1.234859
4006.000000	1.234821
4004.000000	1.234845
4002.000000	1.234853
4000.000000	1.234749
3998.000000	1.234699
3996.000000	1.234768
3994.000000	1.234790
3992.000000	1.234740
3990.000000	1.234781
3988.000000	1.234911
3986.000000	1.234913
3984.000000	1.234752
3982.000000	1.234574
3980.000000	1.234390
3978.000000	1.234229
3976.000000	1.234197
3974.000000	1.234325
3972.000000	1.234389
3970.000000	1.234260
3968.000000	1.234203
3966.000000	1.234275
3964.000000	1.234195
3962.000000	1.234073
3960.000000	1.234030
3958.000000	1.234001
3956.000000	1.234020
3954.000000	1.233895
3952.000000	1.233440
3950.000000	1.233114
3948.000000	1.233310
3946.000000	1.233374
3944.000000	1.233067
3942.000000	1.233257
3940.000000	1.233650
3938.000000	1.233572
3936.000000	1.233089
3934.000000	1.232570
3932.000000	1.232720
3930.000000	1.233245
3928.000000	1.233105
3926.000000	1.232663
3924.000000	1.232678
3922.000000	1.232568
3920.000000	1.232032
3918.000000	1.232098
3916.000000	1.233009
3914.000000	1.233570
3912.000000	1.233267
3910.000000	1.232739
3908.000000	1.231621
3906.000000	1.229839
3904.000000	1.229274
3902.000000	1.230291
3900.000000	1.231707
3898.000000	1.233027
3896.000000	1.232833
3894.000000	1.230941
3892.000000	1.230449
3890.000000	1.231525
3888.000000	1.230526
3886.000000	1.229778
3884.000000	1.231423
3882.000000	1.231696
3880.000000	1.231650
3878.000000	1.232220
3876.000000	1.231195
3874.000000	1.229671
3872.000000	1.228214
3870.000000	1.228762
3868.000000	1.230817
3866.000000	1.230538
3864.000000	1.230347
3862.000000	1.231668
3860.000000	1.231720
3858.000000	1.227982
3856.000000	1.221169
3854.000000	1.221213
3852.000000	1.230389
3850.000000	1.235570
3848.000000	1.233485
3846.000000	1.230654
3844.000000	1.229387
3842.000000	1.228133
3840.000000	1.225840
3838.000000	1.226421
3836.000000	1.230226
3834.000000	1.231561
3832.000000	1.231042
3830.000000	1.231212
3828.000000	1.230873
3826.000000	1.229972
3824.000000	1.227936
3822.000000	1.226836
3820.000000	1.228238
3818.000000	1.227647
3816.000000	1.228168
3814.000000	1.232093
3812.000000	1.232357
3810.000000	1.228852
3808.000000	1.227124
3806.000000	1.228558
3804.000000	1.227631
3802.000000	1.226404
3800.000000	1.229951
3798.000000	1.231817
3796.000000	1.231090
3794.000000	1.231287
3792.000000	1.231091
3790.000000	1.230685
3788.000000	1.230460
3786.000000	1.230249
3784.000000	1.230265
3782.000000	1.229780
3780.000000	1.229501
3778.000000	1.230522
3776.000000	1.231038
3774.000000	1.230022
3772.000000	1.228530
3770.000000	1.228424
3768.000000	1.229396
3766.000000	1.229839
3764.000000	1.229873
3762.000000	1.228962
3760.000000	1.228185
3758.000000	1.228641
3756.000000	1.227226
3754.000000	1.222952
3752.000000	1.221214
3750.000000	1.224672
3748.000000	1.225781
3746.000000	1.222159
3744.000000	1.225038
3742.000000	1.231213
3740.000000	1.229085
3738.000000	1.224444
3736.000000	1.224148
3734.000000	1.226114
3732.000000	1.228118
3730.000000	1.229301
3728.000000	1.228175
3726.000000	1.227208
3724.000000	1.227535
3722.000000	1.227852
3720.000000	1.228296
3718.000000	1.228366
3716.000000	1.226824
3714.000000	1.224094
3712.000000	1.224136
3710.000000	1.227318
3708.000000	1.229551
3706.000000	1.229376
3704.000000	1.227742
3702.000000	1.227214
3700.000000	1.228345
3698.000000	1.228708
3696.000000	1.227994
3694.000000	1.226394
3692.000000	1.223447
3690.000000	1.221779
3688.000000	1.225155
3686.000000	1.229106
3684.000000	1.228446
3682.000000	1.226425
3680.000000	1.224324
3678.000000	1.220908
3676.000000	1.220735
3674.000000	1.223891
3672.000000	1.223263
3670.000000	1.223647
3668.000000	1.227307
3666.000000	1.227847
3664.000000	1.226490
3662.000000	1.225828
3660.000000	1.224748
3658.000000	1.223113
3656.000000	1.223676
3654.000000	1.224009
3652.000000	1.220520
3650.000000	1.219124
3648.000000	1.223005
3646.000000	1.226292
3644.000000	1.226103
3642.000000	1.225036
3640.000000	1.224634
3638.000000	1.224335
3636.000000	1.223763
3634.000000	1.222810
3632.000000	1.220127
3630.000000	1.218359
3628.000000	1.222238
3626.000000	1.225695
3624.000000	1.224196
3622.000000	1.221508
3620.000000	1.220698
3618.000000	1.222185
3616.000000	1.222652
3614.000000	1.221635
3612.000000	1.221204
3610.000000	1.221183
3608.000000	1.222184
3606.000000	1.223350
3604.000000	1.222957
3602.000000	1.222266
3600.000000	1.222352
3598.000000	1.222469
3596.000000	1.222264
3594.000000	1.222404
3592.000000	1.222050
3590.000000	1.220493
3588.000000	1.220266
3586.000000	1.222024
3584.000000	1.222906
3582.000000	1.222518
3580.000000	1.222155
3578.000000	1.221967
3576.000000	1.221884
3574.000000	1.221908
3572.000000	1.221466
3570.000000	1.220170
3568.000000	1.219659
3566.000000	1.221078
3564.000000	1.222126
3562.000000	1.221880
3560.000000	1.221783
3558.000000	1.221980
3556.000000	1.221845
3554.000000	1.221528
3552.000000	1.221640
3550.000000	1.221797
3548.000000	1.221374
3546.000000	1.221278
3544.000000	1.221798
3542.000000	1.222121
3540.000000	1.222045
3538.000000	1.221887
3536.000000	1.221951
3534.000000	1.222148
3532.000000	1.222183
3530.000000	1.222110
3528.000000	1.222084
3526.000000	1.222120
3524.000000	1.222258
3522.000000	1.222631
3520.000000	1.222964
3518.000000	1.223117
3516.000000	1.223230
3514.000000	1.223172
3512.000000	1.223077
3510.000000	1.223258
3508.000000	1.223666
3506.000000	1.223787
3504.000000	1.223741
3502.000000	1.224066
3500.000000	1.224492
3498.000000	1.224671
3496.000000	1.224741
3494.000000	1.224934
3492.000000	1.225134
3490.000000	1.225233
3488.000000	1.225461
3486.000000	1.225788
3484.000000	1.225940
3482.000000	1.226173
3480.000000	1.226589
3478.000000	1.226977
3476.000000	1.227257
3474.000000	1.227523
3472.000000	1.227854
3470.000000	1.228116
3468.000000	1.228318
3466.000000	1.228741
3464.000000	1.229214
3462.000000	1.229623
3460.000000	1.230099
3458.000000	1.230489
3456.000000	1.230772
3454.000000	1.231037
3452.000000	1.231340
3450.000000	1.231653
3448.000000	1.231955
3446.000000	1.232488
3444.000000	1.233079
3442.000000	1.233531
3440.000000	1.234003
3438.000000	1.234476
3436.000000	1.234899
3434.000000	1.235407
3432.000000	1.235916
3430.000000	1.236298
3428.000000	1.236668
3426.000000	1.237079
3424.000000	1.237438
3422.000000	1.237761
3420.000000	1.238217
3418.000000	1.238710
3416.000000	1.239104
3414.000000	1.239360
3412.000000	1.239505
3410.000000	1.239675
3408.000000	1.239905
3406.000000	1.240213
3404.000000	1.240508
3402.000000	1.240677
3400.000000	1.240836
3398.000000	1.241064
3396.000000	1.241253
3394.000000	1.241373
3392.000000	1.241599
3390.000000	1.241895
3388.000000	1.242094
3386.000000	1.242253
3384.000000	1.242463
3382.000000	1.242660
3380.000000	1.242765
3378.000000	1.242907
3376.000000	1.243106
3374.000000	1.243241
3372.000000	1.243268
3370.000000	1.243298
3368.000000	1.243456
3366.000000	1.243625
3364.000000	1.243767
3362.000000	1.243926
3360.000000	1.244050
3358.000000	1.244087
3356.000000	1.244100
3354.000000	1.244138
3352.000000	1.244241
3350.000000	1.244362
3348.000000	1.244389
3346.000000	1.244407
3344.000000	1.244532
3342.000000	1.244716
3340.000000	1.244802
3338.000000	1.244795
3336.000000	1.244934
3334.000000	1.245149
3332.000000	1.245264
3330.000000	1.245376
3328.000000	1.245365
3326.000000	1.245306
3324.000000	1.245471
3322.000000	1.245636
3320.000000	1.245739
3318.000000	1.245773
3316.000000	1.245718
3314.000000	1.245722
3312.000000	1.245751
3310.000000	1.245759
3308.000000	1.245826
3306.000000	1.245854
3304.000000	1.245932
3302.000000	1.246202
3300.000000	1.246383
3298.000000	1.246333
3296.000000	1.246259
3294.000000	1.246285
3292.000000	1.246364
3290.000000	1.246475
3288.000000	1.246601
3286.000000	1.246656
3284.000000	1.246740
3282.000000	1.246841
3280.000000	1.246875
3278.000000	1.246848
3276.000000	1.246860
3274.000000	1.246964
3272.000000	1.247075
3270.000000	1.247187
3268.000000	1.247206
3266.000000	1.247077
3264.000000	1.247036
3262.000000	1.247122
3260.000000	1.247186
3258.000000	1.247207
3256.000000	1.247281
3254.000000	1.247420
3252.000000	1.247528
3250.000000	1.247546
3248.000000	1.247489
3246.000000	1.247460
3244.000000	1.247550
3242.000000	1.247663
3240.000000	1.247760
3238.000000	1.247907
3236.000000	1.247958
3234.000000	1.247906
3232.000000	1.248007
3230.000000	1.248239
3228.000000	1.248337
3226.000000	1.248344
3224.000000	1.248321
3222.000000	1.248319
3220.000000	1.248348
3218.000000	1.248399
3216.000000	1.248451
3214.000000	1.248514
3212.000000	1.248533
3210.000000	1.248532
3208.000000	1.248573
3206.000000	1.248656
3204.000000	1.248657
3202.000000	1.248590
3200.000000	1.248521
3198.000000	1.248533
3196.000000	1.248589
3194.000000	1.248638
3192.000000	1.248714
3190.000000	1.248770
3188.000000	1.248824
3186.000000	1.248765
3184.000000	1.248672
3182.000000	1.248641
3180.000000	1.248542
3178.000000	1.248559
3176.000000	1.248685
3174.000000	1.248729
3172.000000	1.248735
3170.000000	1.248788
3168.000000	1.248862
3166.000000	1.248796
3164.000000	1.248723
3162.000000	1.248721
3160.000000	1.248777
3158.000000	1.248888
3156.000000	1.248869
3154.000000	1.248770
3152.000000	1.248836
3150.000000	1.249000
3148.000000	1.249086
3146.000000	1.249086
3144.000000	1.249100
3142.000000	1.249172
3140.000000	1.249252
3138.000000	1.249261
3136.000000	1.249228
3134.000000	1.249236
3132.000000	1.249319
3130.000000	1.249367
3128.000000	1.249442
3126.000000	1.249514
3124.000000	1.249490
3122.000000	1.249357
3120.000000	1.249305
3118.000000	1.249438
3116.000000	1.249591
3114.000000	1.249627
3112.000000	1.249543
3110.000000	1.249414
3108.000000	1.249401
3106.000000	1.249461
3104.000000	1.249479
3102.000000	1.249441
3100.000000	1.249496
3098.000000	1.249571
3096.000000	1.249507
3094.000000	1.249453
3092.000000	1.249363
3090.000000	1.249245
3088.000000	1.249266
3086.000000	1.249277
3084.000000	1.249136
3082.000000	1.248976
3080.000000	1.248898
3078.000000	1.248934
3076.000000	1.248943
3074.000000	1.248882
3072.000000	1.248787
3070.000000	1.248595
3068.000000	1.248488
3066.000000	1.248535
3064.000000	1.248545
3062.000000	1.248462
3060.000000	1.248385
3058.000000	1.248247
3056.000000	1.248110
3054.000000	1.248034
3052.000000	1.248031
3050.000000	1.248070
3048.000000	1.248068
3046.000000	1.247953
3044.000000	1.247818
3042.000000	1.247690
3040.000000	1.247679
3038.000000	1.247730
3036.000000	1.247588
3034.000000	1.247441
3032.000000	1.247404
3030.000000	1.247325
3028.000000	1.247196
3026.000000	1.247098
3024.000000	1.247035
3022.000000	1.246985
3020.000000	1.247030
3018.000000	1.247195
3016.000000	1.247479
3014.000000	1.247808
3012.000000	1.247935
3010.000000	1.247804
3008.000000	1.247547
3006.000000	1.247290
3004.000000	1.247093
3002.000000	1.246920
3000.000000	1.246785
2998.000000	1.246705
2996.000000	1.246592
2994.000000	1.246461
2992.000000	1.246472
2990.000000	1.246549
2988.000000	1.246498
2986.000000	1.246321
2984.000000	1.246185
2982.000000	1.246114
2980.000000	1.246095
2978.000000	1.246045
2976.000000	1.245961
2974.000000	1.245946
2972.000000	1.245894
2970.000000	1.245834
2968.000000	1.246045
2966.000000	1.246579
2964.000000	1.247290
2962.000000	1.248030
2960.000000	1.248432
2958.000000	1.248323
2956.000000	1.248002
2954.000000	1.247578
2952.000000	1.247079
2950.000000	1.246562
2948.000000	1.246043
2946.000000	1.245486
2944.000000	1.245034
2942.000000	1.244637
2940.000000	1.244361
2938.000000	1.244311
2936.000000	1.244371
2934.000000	1.244542
2932.000000	1.244645
2930.000000	1.244598
2928.000000	1.244801
2926.000000	1.245370
2924.000000	1.246225
2922.000000	1.247136
2920.000000	1.247771
2918.000000	1.248059
2916.000000	1.247967
2914.000000	1.247587
2912.000000	1.247197
2910.000000	1.246802
2908.000000	1.246491
2906.000000	1.246306
2904.000000	1.246116
2902.000000	1.245915
2900.000000	1.245845
2898.000000	1.245787
2896.000000	1.245690
2894.000000	1.245570
2892.000000	1.245451
2890.000000	1.245352
2888.000000	1.245215
2886.000000	1.245007
2884.000000	1.244824
2882.000000	1.244634
2880.000000	1.244442
2878.000000	1.244217
2876.000000	1.243964
2874.000000	1.243715
2872.000000	1.243501
2870.000000	1.243116
2868.000000	1.242599
2866.000000	1.242287
2864.000000	1.242479
2862.000000	1.243169
2860.000000	1.243921
2858.000000	1.244489
2856.000000	1.244819
2854.000000	1.244921
2852.000000	1.245014
2850.000000	1.245343
2848.000000	1.245626
2846.000000	1.245514
2844.000000	1.245179
2842.000000	1.244900
2840.000000	1.244684
2838.000000	1.244390
2836.000000	1.244168
2834.000000	1.244084
2832.000000	1.244005
2830.000000	1.243899
2828.000000	1.243846
2826.000000	1.243788
2824.000000	1.243743
2822.000000	1.243754
2820.000000	1.243724
2818.000000	1.243667
2816.000000	1.243621
2814.000000	1.243523
2812.000000	1.243453
2810.000000	1.243394
2808.000000	1.243389
2806.000000	1.243345
2804.000000	1.243302
2802.000000	1.243295
2800.000000	1.243256
2798.000000	1.243218
2796.000000	1.243150
2794.000000	1.243110
2792.000000	1.243079
2790.000000	1.243077
2788.000000	1.243092
2786.000000	1.243073
2784.000000	1.243112
2782.000000	1.243098
2780.000000	1.243051
2778.000000	1.243029
2776.000000	1.242975
2774.000000	1.242898
2772.000000	1.242869
2770.000000	1.242841
2768.000000	1.242835
2766.000000	1.242819
2764.000000	1.242801
2762.000000	1.242861
2760.000000	1.242882
2758.000000	1.242836
2756.000000	1.242804
2754.000000	1.242817
2752.000000	1.242897
2750.000000	1.242894
2748.000000	1.242807
2746.000000	1.242761
2744.000000	1.242805
2742.000000	1.242834
2740.000000	1.242861
2738.000000	1.242927
2736.000000	1.242913
2734.000000	1.242877
2732.000000	1.242906
2730.000000	1.242986
2728.000000	1.243134
2726.000000	1.243154
2724.000000	1.243117
2722.000000	1.243144
2720.000000	1.243255
2718.000000	1.243332
2716.000000	1.243401
2714.000000	1.243434
2712.000000	1.243365
2710.000000	1.243329
2708.000000	1.243433
2706.000000	1.243588
2704.000000	1.243678
2702.000000	1.243678
2700.000000	1.243743
2698.000000	1.243844
2696.000000	1.243969
2694.000000	1.244086
2692.000000	1.244206
2690.000000	1.244235
2688.000000	1.244245
2686.000000	1.244317
2684.000000	1.244425
2682.000000	1.244501
2680.000000	1.244565
2678.000000	1.244600
2676.000000	1.244734
2674.000000	1.244886
2672.000000	1.244933
2670.000000	1.244952
2668.000000	1.244975
2666.000000	1.245018
2664.000000	1.245114
2662.000000	1.245130
2660.000000	1.245182
2658.000000	1.245376
2656.000000	1.245508
2654.000000	1.245613
2652.000000	1.245745
2650.000000	1.245782
2648.000000	1.245813
2646.000000	1.245845
2644.000000	1.245883
2642.000000	1.245932
2640.000000	1.245965
2638.000000	1.246010
2636.000000	1.246030
2634.000000	1.246049
2632.000000	1.246130
2630.000000	1.246189
2628.000000	1.246231
2626.000000	1.246265
2624.000000	1.246399
2622.000000	1.246432
2620.000000	1.246407
2618.000000	1.246436
2616.000000	1.246495
2614.000000	1.246483
2612.000000	1.246502
2610.000000	1.246541
2608.000000	1.246495
2606.000000	1.246509
2604.000000	1.246655
2602.000000	1.246732
2600.000000	1.246806
2598.000000	1.246816
2596.000000	1.246790
2594.000000	1.246800
2592.000000	1.246888
2590.000000	1.246948
2588.000000	1.246890
2586.000000	1.246833
2584.000000	1.246873
2582.000000	1.246939
2580.000000	1.247012
2578.000000	1.247033
2576.000000	1.247016
2574.000000	1.246967
2572.000000	1.246989
2570.000000	1.247052
2568.000000	1.247079
2566.000000	1.247092
2564.000000	1.246996
2562.000000	1.246966
2560.000000	1.247103
2558.000000	1.247085
2556.000000	1.247048
2554.000000	1.247132
2552.000000	1.247196
2550.000000	1.247169
2548.000000	1.247115
2546.000000	1.247066
2544.000000	1.247013
2542.000000	1.246958
2540.000000	1.246933
2538.000000	1.246947
2536.000000	1.247032
2534.000000	1.247055
2532.000000	1.246983
2530.000000	1.247019
2528.000000	1.247068
2526.000000	1.247041
2524.000000	1.247045
2522.000000	1.247019
2520.000000	1.246945
2518.000000	1.246894
2516.000000	1.246897
2514.000000	1.246867
2512.000000	1.246858
2510.000000	1.246864
2508.000000	1.246810
2506.000000	1.246754
2504.000000	1.246763
2502.000000	1.246832
2500.000000	1.246876
2498.000000	1.246755
2496.000000	1.246688
2494.000000	1.246739
2492.000000	1.246724
2490.000000	1.246584
2488.000000	1.246544
2486.000000	1.246546
2484.000000	1.246506
2482.000000	1.246507
2480.000000	1.246513
2478.000000	1.246511
2476.000000	1.246539
2474.000000	1.246587
2472.000000	1.246564
2470.000000	1.246530
2468.000000	1.246533
2466.000000	1.246564
2464.000000	1.246527
2462.000000	1.246493
2460.000000	1.246551
2458.000000	1.246558
2456.000000	1.246581
2454.000000	1.246570
2452.000000	1.246488
2450.000000	1.246481
2448.000000	1.246493
2446.000000	1.246421
2444.000000	1.246414
2442.000000	1.246419
2440.000000	1.246405
2438.000000	1.246382
2436.000000	1.246386
2434.000000	1.246372
2432.000000	1.246297
2430.000000	1.246193
2428.000000	1.246157
2426.000000	1.246127
2424.000000	1.246122
2422.000000	1.246110
2420.000000	1.246064
2418.000000	1.246029
2416.000000	1.245979
2414.000000	1.245886
2412.000000	1.245826
2410.000000	1.245779
2408.000000	1.245704
2406.000000	1.245613
2404.000000	1.245617
2402.000000	1.245608
2400.000000	1.245504
2398.000000	1.245386
2396.000000	1.245318
2394.000000	1.245227
2392.000000	1.245176
2390.000000	1.245109
2388.000000	1.245004
2386.000000	1.244946
2384.000000	1.244882
2382.000000	1.244946
2380.000000	1.245458
2378.000000	1.246230
2376.000000	1.246825
2374.000000	1.247033
2372.000000	1.247038
2370.000000	1.247010
2368.000000	1.246991
2366.000000	1.246986
2364.000000	1.247189
2362.000000	1.247608
2360.000000	1.248123
2358.000000	1.248601
2356.000000	1.249025
2354.000000	1.249391
2352.000000	1.249698
2350.000000	1.249581
2348.000000	1.248929
2346.000000	1.248673
2344.000000	1.249110
2342.000000	1.249732
2340.000000	1.250296
2338.000000	1.250498
2336.000000	1.250234
2334.000000	1.249804
2332.000000	1.249480
2330.000000	1.249372
2328.000000	1.249322
2326.000000	1.249128
2324.000000	1.248882
2322.000000	1.248713
2320.000000	1.248689
2318.000000	1.248582
2316.000000	1.248536
2314.000000	1.248492
2312.000000	1.248361
2310.000000	1.248191
2308.000000	1.248063
2306.000000	1.247953
2304.000000	1.247919
2302.000000	1.247915
2300.000000	1.247848
2298.000000	1.247762
2296.000000	1.247829
2294.000000	1.247866
2292.000000	1.247844
2290.000000	1.247732
2288.000000	1.247587
2286.000000	1.247557
2284.000000	1.247682
2282.000000	1.247780
2280.000000	1.247926
2278.000000	1.247835
2276.000000	1.247705
2274.000000	1.247645
2272.000000	1.247522
2270.000000	1.247433
2268.000000	1.247428
2266.000000	1.247351
2264.000000	1.247308
2262.000000	1.247332
2260.000000	1.247256
2258.000000	1.247057
2256.000000	1.247030
2254.000000	1.247100
2252.000000	1.247091
2250.000000	1.246969
2248.000000	1.246876
2246.000000	1.246768
2244.000000	1.246633
2242.000000	1.246552
2240.000000	1.246611
2238.000000	1.246570
2236.000000	1.246462
2234.000000	1.246372
2232.000000	1.246320
2230.000000	1.246232
2228.000000	1.246147
2226.000000	1.246118
2224.000000	1.246117
2222.000000	1.246045
2220.000000	1.245958
2218.000000	1.245842
2216.000000	1.245786
2214.000000	1.245675
2212.000000	1.245536
2210.000000	1.245452
2208.000000	1.245485
2206.000000	1.245461
2204.000000	1.245369
2202.000000	1.245318
2200.000000	1.245378
2198.000000	1.245227
2196.000000	1.245036
2194.000000	1.245108
2192.000000	1.245216
2190.000000	1.245121
2188.000000	1.244928
2186.000000	1.244789
2184.000000	1.244849
2182.000000	1.244820
2180.000000	1.244761
2178.000000	1.244684
2176.000000	1.244630
2174.000000	1.244580
2172.000000	1.244300
2170.000000	1.244110
2168.000000	1.244097
2166.000000	1.244064
2164.000000	1.244193
2162.000000	1.244136
2160.000000	1.243917
2158.000000	1.243754
2156.000000	1.243687
2154.000000	1.243771
2152.000000	1.243865
2150.000000	1.243742
2148.000000	1.243763
2146.000000	1.243698
2144.000000	1.243442
2142.000000	1.243246
2140.000000	1.243217
2138.000000	1.243276
2136.000000	1.243389
2134.000000	1.243291
2132.000000	1.243133
2130.000000	1.243118
2128.000000	1.243102
2126.000000	1.242820
2124.000000	1.242821
2122.000000	1.243166
2120.000000	1.243142
2118.000000	1.242872
2116.000000	1.242793
2114.000000	1.242766
2112.000000	1.242588
2110.000000	1.242561
2108.000000	1.242571
2106.000000	1.242507
2104.000000	1.242491
2102.000000	1.242397
2100.000000	1.242148
2098.000000	1.242103
2096.000000	1.242033
2094.000000	1.242025
2092.000000	1.242184
2090.000000	1.242141
2088.000000	1.242085
2086.000000	1.242183
2084.000000	1.242016
2082.000000	1.241675
2080.000000	1.241522
2078.000000	1.241493
2076.000000	1.241671
2074.000000	1.241715
2072.000000	1.241714
2070.000000	1.241776
2068.000000	1.241716
2066.000000	1.241464
2064.000000	1.241508
2062.000000	1.241695
2060.000000	1.241681
2058.000000	1.241578
2056.000000	1.241671
2054.000000	1.241749
2052.000000	1.241789
2050.000000	1.241585
2048.000000	1.241284
2046.000000	1.241198
2044.000000	1.241295
2042.000000	1.241433
2040.000000	1.241428
2038.000000	1.241258
2036.000000	1.241193
2034.000000	1.241119
2032.000000	1.241030
2030.000000	1.240898
2028.000000	1.240981
2026.000000	1.240984
2024.000000	1.240925
2022.000000	1.240889
2020.000000	1.240809
2018.000000	1.240674
2016.000000	1.240707
2014.000000	1.240685
2012.000000	1.240610
2010.000000	1.240498
2008.000000	1.240437
2006.000000	1.240496
2004.000000	1.240591
2002.000000	1.240529
2000.000000	1.240485
1998.000000	1.240491
1996.000000	1.240492
1994.000000	1.240196
1992.000000	1.240114
1990.000000	1.240264
1988.000000	1.240233
1986.000000	1.240164
1984.000000	1.240225
1982.000000	1.240245
1980.000000	1.240182
1978.000000	1.240210
1976.000000	1.240236
1974.000000	1.240211
1972.000000	1.240245
1970.000000	1.240077
1968.000000	1.239907
1966.000000	1.239997
1964.000000	1.240099
1962.000000	1.240064
1960.000000	1.240031
1958.000000	1.240139
1956.000000	1.240240
1954.000000	1.240194
1952.000000	1.240157
1950.000000	1.240101
1948.000000	1.240017
1946.000000	1.239767
1944.000000	1.239570
1942.000000	1.239867
1940.000000	1.240271
1938.000000	1.240217
1936.000000	1.240156
1934.000000	1.240087
1932.000000	1.240118
1930.000000	1.240097
1928.000000	1.240160
1926.000000	1.240065
1924.000000	1.239873
1922.000000	1.239881
1920.000000	1.239460
1918.000000	1.239409
1916.000000	1.240258
1914.000000	1.240318
1912.000000	1.240177
1910.000000	1.240135
1908.000000	1.240385
1906.000000	1.240423
1904.000000	1.240334
1902.000000	1.240304
1900.000000	1.240425
1898.000000	1.240392
1896.000000	1.240380
1894.000000	1.240471
1892.000000	1.240233
1890.000000	1.239942
1888.000000	1.240452
1886.000000	1.240493
1884.000000	1.240509
1882.000000	1.240591
1880.000000	1.240620
1878.000000	1.240532
1876.000000	1.240562
1874.000000	1.240468
1872.000000	1.239754
1870.000000	1.238769
1868.000000	1.239695
1866.000000	1.240643
1864.000000	1.240635
1862.000000	1.240432
1860.000000	1.240477
1858.000000	1.240522
1856.000000	1.240694
1854.000000	1.240631
1852.000000	1.240563
1850.000000	1.240263
1848.000000	1.239771
1846.000000	1.238229
1844.000000	1.238703
1842.000000	1.240712
1840.000000	1.240667
1838.000000	1.240338
1836.000000	1.240453
1834.000000	1.240323
1832.000000	1.239295
1830.000000	1.239139
1828.000000	1.240042
1826.000000	1.239783
1824.000000	1.240451
1822.000000	1.240932
1820.000000	1.240850
1818.000000	1.240683
1816.000000	1.240741
1814.000000	1.240506
1812.000000	1.240126
1810.000000	1.240349
1808.000000	1.240814
1806.000000	1.240660
1804.000000	1.240234
1802.000000	1.239682
1800.000000	1.240104
1798.000000	1.240604
1796.000000	1.239972
1794.000000	1.238166
1792.000000	1.238842
1790.000000	1.240766
1788.000000	1.240653
1786.000000	1.239960
1784.000000	1.240339
1782.000000	1.240344
1780.000000	1.240573
1778.000000	1.240745
1776.000000	1.239551
1774.000000	1.237099
1772.000000	1.238015
1770.000000	1.240005
1768.000000	1.240305
1766.000000	1.241156
1764.000000	1.239925
1762.000000	1.239501
1760.000000	1.240682
1758.000000	1.240295
1756.000000	1.240653
1754.000000	1.239970
1752.000000	1.238098
1750.000000	1.239334
1748.000000	1.240603
1746.000000	1.240821
1744.000000	1.240562
1742.000000	1.239898
1740.000000	1.239901
1738.000000	1.240391
1736.000000	1.236218
1734.000000	1.236170
1732.000000	1.241434
1730.000000	1.242231
1728.000000	1.242308
1726.000000	1.242169
1724.000000	1.242070
1722.000000	1.241500
1720.000000	1.238057
1718.000000	1.235990
1716.000000	1.239878
1714.000000	1.242161
1712.000000	1.242615
1710.000000	1.242055
1708.000000	1.241290
1706.000000	1.240607
1704.000000	1.240412
1702.000000	1.235648
1700.000000	1.236351
1698.000000	1.238278
1696.000000	1.238082
1694.000000	1.243299
1692.000000	1.243647
1690.000000	1.242617
1688.000000	1.240700
1686.000000	1.235507
1684.000000	1.238045
1682.000000	1.243654
1680.000000	1.243516
1678.000000	1.241903
1676.000000	1.240194
1674.000000	1.242157
1672.000000	1.241611
1670.000000	1.240807
1668.000000	1.243281
1666.000000	1.243711
1664.000000	1.242037
1662.000000	1.243047
1660.000000	1.244269
1658.000000	1.243350
1656.000000	1.237771
1654.000000	1.231876
1652.000000	1.239534
1650.000000	1.244191
1648.000000	1.240227
1646.000000	1.241432
1644.000000	1.244911
1642.000000	1.244967
1640.000000	1.243901
1638.000000	1.240788
1636.000000	1.239503
1634.000000	1.244006
1632.000000	1.245452
1630.000000	1.244183
1628.000000	1.243888
1626.000000	1.243549
1624.000000	1.242757
1622.000000	1.244080
1620.000000	1.243220
1618.000000	1.239864
1616.000000	1.242266
1614.000000	1.245485
1612.000000	1.244701
1610.000000	1.244706
1608.000000	1.245370
1606.000000	1.246044
1604.000000	1.246181
1602.000000	1.246372
1600.000000	1.246519
1598.000000	1.246530
1596.000000	1.246252
1594.000000	1.246324
1592.000000	1.246342
1590.000000	1.246251
1588.000000	1.246124
1586.000000	1.246127
1584.000000	1.246093
1582.000000	1.246189
1580.000000	1.245254
1578.000000	1.241434
1576.000000	1.241998
1574.000000	1.246353
1572.000000	1.244594
1570.000000	1.243425
1568.000000	1.245225
1566.000000	1.245458
1564.000000	1.244457
1562.000000	1.239426
1560.000000	1.234336
1558.000000	1.240134
1556.000000	1.244320
1554.000000	1.244744
1552.000000	1.245795
1550.000000	1.245803
1548.000000	1.245552
1546.000000	1.243911
1544.000000	1.241779
1542.000000	1.238263
1540.000000	1.238440
1538.000000	1.244757
1536.000000	1.245505
1534.000000	1.243608
1532.000000	1.245347
1530.000000	1.245357
1528.000000	1.243937
1526.000000	1.243304
1524.000000	1.241648
1522.000000	1.239725
1520.000000	1.242699
1518.000000	1.243730
1516.000000	1.244197
1514.000000	1.244775
1512.000000	1.244228
1510.000000	1.241779
1508.000000	1.237114
1506.000000	1.239516
1504.000000	1.244812
1502.000000	1.243442
1500.000000	1.239868
1498.000000	1.237571
1496.000000	1.240641
1494.000000	1.246093
1492.000000	1.247108
1490.000000	1.247062
1488.000000	1.247725
1486.000000	1.247965
1484.000000	1.247559
1482.000000	1.246660
1480.000000	1.246276
1478.000000	1.244938
1476.000000	1.243261
1474.000000	1.241594
1472.000000	1.243320
1470.000000	1.245824
1468.000000	1.245131
1466.000000	1.243576
1464.000000	1.244417
1462.000000	1.244866
1460.000000	1.241372
1458.000000	1.237414
1456.000000	1.240788
1454.000000	1.244552
1452.000000	1.244870
1450.000000	1.245838
1448.000000	1.246565
1446.000000	1.246871
1444.000000	1.246190
1442.000000	1.245785
1440.000000	1.244583
1438.000000	1.242152
1436.000000	1.243515
1434.000000	1.245776
1432.000000	1.244885
1430.000000	1.244646
1428.000000	1.245071
1426.000000	1.244836
1424.000000	1.244462
1422.000000	1.243156
1420.000000	1.241272
1418.000000	1.243491
1416.000000	1.245085
1414.000000	1.244952
1412.000000	1.244501
1410.000000	1.244290
1408.000000	1.243731
1406.000000	1.243465
1404.000000	1.244329
1402.000000	1.244978
1400.000000	1.244498
1398.000000	1.244697
1396.000000	1.244109
1394.000000	1.244591
1392.000000	1.245265
1390.000000	1.244221
1388.000000	1.243261
1386.000000	1.244009
1384.000000	1.244763
1382.000000	1.245023
1380.000000	1.244765
1378.000000	1.244361
1376.000000	1.243749
1374.000000	1.243764
1372.000000	1.244390
1370.000000	1.244420
1368.000000	1.244414
1366.000000	1.244141
1364.000000	1.243297
1362.000000	1.243399
1360.000000	1.243902
1358.000000	1.243914
1356.000000	1.243732
1354.000000	1.243742
1352.000000	1.243714
1350.000000	1.243690
1348.000000	1.243724
1346.000000	1.243754
1344.000000	1.243582
1342.000000	1.243186
1340.000000	1.242990
1338.000000	1.243397
1336.000000	1.243656
1334.000000	1.243608
1332.000000	1.243500
1330.000000	1.243464
1328.000000	1.243324
1326.000000	1.243225
1324.000000	1.243228
1322.000000	1.243096
1320.000000	1.242736
1318.000000	1.242640
1316.000000	1.242650
1314.000000	1.242713
1312.000000	1.242768
1310.000000	1.242807
1308.000000	1.242763
1306.000000	1.242658
1304.000000	1.242511
1302.000000	1.242494
1300.000000	1.242472
1298.000000	1.242495
1296.000000	1.242359
1294.000000	1.242257
1292.000000	1.242256
1290.000000	1.242352
1288.000000	1.242377
1286.000000	1.242375
1284.000000	1.242324
1282.000000	1.242321
1280.000000	1.242299
1278.000000	1.242453
1276.000000	1.242576
1274.000000	1.242693
1272.000000	1.242716
1270.000000	1.242891
1268.000000	1.243526
1266.000000	1.244798
1264.000000	1.246757
1262.000000	1.249339
1260.000000	1.251495
1258.000000	1.252269
1256.000000	1.251391
1254.000000	1.249553
1252.000000	1.247708
1250.000000	1.246688
1248.000000	1.246403
1246.000000	1.246435
1244.000000	1.246595
1242.000000	1.246783
1240.000000	1.246777
1238.000000	1.246968
1236.000000	1.247263
1234.000000	1.247598
1232.000000	1.247962
1230.000000	1.248264
1228.000000	1.248560
1226.000000	1.248858
1224.000000	1.248951
1222.000000	1.249158
1220.000000	1.249455
1218.000000	1.249731
1216.000000	1.249871
1214.000000	1.250031
1212.000000	1.250398
1210.000000	1.250846
1208.000000	1.251135
1206.000000	1.251485
1204.000000	1.251625
1202.000000	1.251859
1200.000000	1.252269
1198.000000	1.252719
1196.000000	1.252973
1194.000000	1.253250
1192.000000	1.253591
1190.000000	1.253853
1188.000000	1.254270
1186.000000	1.254684
1184.000000	1.254622
1182.000000	1.254628
1180.000000	1.255613
1178.000000	1.256744
1176.000000	1.257160
1174.000000	1.257255
1172.000000	1.257462
1170.000000	1.257739
1168.000000	1.257906
1166.000000	1.258364
1164.000000	1.258865
1162.000000	1.259299
1160.000000	1.259803
1158.000000	1.260251
1156.000000	1.260518
1154.000000	1.260747
1152.000000	1.261112
1150.000000	1.261537
1148.000000	1.261954
1146.000000	1.262605
1144.000000	1.262848
1142.000000	1.263063
1140.000000	1.263208
1138.000000	1.263328
1136.000000	1.263703
1134.000000	1.264169
1132.000000	1.264432
1130.000000	1.264388
1128.000000	1.264465
1126.000000	1.264924
1124.000000	1.265193
1122.000000	1.265483
1120.000000	1.265694
1118.000000	1.265919
1116.000000	1.266255
1114.000000	1.266559
1112.000000	1.267023
1110.000000	1.267817
1108.000000	1.268604
1106.000000	1.268981
1104.000000	1.269166
1102.000000	1.269363
1100.000000	1.269291
1098.000000	1.269924
1096.000000	1.271067
1094.000000	1.271294
1092.000000	1.270958
1090.000000	1.270796
1088.000000	1.271053
1086.000000	1.271116
1084.000000	1.270531
1082.000000	1.270435
1080.000000	1.270130
1078.000000	1.269716
1076.000000	1.269583
1074.000000	1.269322
1072.000000	1.269073
1070.000000	1.268957
1068.000000	1.268993
1066.000000	1.268532
1064.000000	1.267874
1062.000000	1.267614
1060.000000	1.267143
1058.000000	1.266658
1056.000000	1.265642
1054.000000	1.264242
1052.000000	1.264159
1050.000000	1.265318
1048.000000	1.266064
1046.000000	1.265679
1044.000000	1.264263
1042.000000	1.262692
1040.000000	1.262182
1038.000000	1.262832
1036.000000	1.262496
1034.000000	1.261451
1032.000000	1.260750
1030.000000	1.260623
1028.000000	1.259971
1026.000000	1.259500
1024.000000	1.259467
1022.000000	1.259310
1020.000000	1.258818
1018.000000	1.258211
1016.000000	1.257096
1014.000000	1.255489
1012.000000	1.254066
1010.000000	1.252826
1008.000000	1.250369
1006.000000	1.248392
1004.000000	1.246417
1002.000000	1.244532
1000.000000	1.244304
