PE IR       SUBTECH     SPECTRUM    ASCII       PEDS        4.00        
   -1
TE110A_007_80K.ASC
20/05/14
11:44:55.00
20/05/14
11:44:56.00
Administrator
TE108A.Thursday, May 14 2020, 002.
1000.000000
#HDR
-1
-1
#GR
cm-1
A
1.0
0.0
6000.000000
-2.000000
2501
8
0.863333
0.834125
#DATA
6000.000000	0.842927
5998.000000	0.842585
5996.000000	0.842164
5994.000000	0.842042
5992.000000	0.842157
5990.000000	0.842385
5988.000000	0.842610
5986.000000	0.842670
5984.000000	0.842451
5982.000000	0.842082
5980.000000	0.841621
5978.000000	0.841472
5976.000000	0.841703
5974.000000	0.841908
5972.000000	0.842077
5970.000000	0.842189
5968.000000	0.842202
5966.000000	0.842171
5964.000000	0.842042
5962.000000	0.841795
5960.000000	0.841625
5958.000000	0.841640
5956.000000	0.841950
5954.000000	0.842327
5952.000000	0.842588
5950.000000	0.842843
5948.000000	0.842933
5946.000000	0.842747
5944.000000	0.842451
5942.000000	0.842248
5940.000000	0.842213
5938.000000	0.842333
5936.000000	0.842446
5934.000000	0.842621
5932.000000	0.842627
5930.000000	0.842576
5928.000000	0.842510
5926.000000	0.842416
5924.000000	0.842327
5922.000000	0.842398
5920.000000	0.842519
5918.000000	0.842582
5916.000000	0.842663
5914.000000	0.842817
5912.000000	0.842914
5910.000000	0.842758
5908.000000	0.842549
5906.000000	0.842428
5904.000000	0.842460
5902.000000	0.842674
5900.000000	0.842861
5898.000000	0.843052
5896.000000	0.842996
5894.000000	0.842777
5892.000000	0.842764
5890.000000	0.842675
5888.000000	0.842573
5886.000000	0.842499
5884.000000	0.842561
5882.000000	0.842738
5880.000000	0.842693
5878.000000	0.842702
5876.000000	0.842974
5874.000000	0.843233
5872.000000	0.843209
5870.000000	0.842891
5868.000000	0.842710
5866.000000	0.842646
5864.000000	0.842633
5862.000000	0.842673
5860.000000	0.842674
5858.000000	0.842581
5856.000000	0.842358
5854.000000	0.842393
5852.000000	0.842670
5850.000000	0.842804
5848.000000	0.842666
5846.000000	0.842388
5844.000000	0.842437
5842.000000	0.842584
5840.000000	0.842832
5838.000000	0.842972
5836.000000	0.842973
5834.000000	0.842991
5832.000000	0.842986
5830.000000	0.843081
5828.000000	0.843230
5826.000000	0.843338
5824.000000	0.843203
5822.000000	0.842973
5820.000000	0.842971
5818.000000	0.843152
5816.000000	0.843520
5814.000000	0.843557
5812.000000	0.843561
5810.000000	0.843374
5808.000000	0.843014
5806.000000	0.842959
5804.000000	0.843006
5802.000000	0.843211
5800.000000	0.843279
5798.000000	0.843255
5796.000000	0.843363
5794.000000	0.843489
5792.000000	0.843627
5790.000000	0.843583
5788.000000	0.843380
5786.000000	0.843275
5784.000000	0.843225
5782.000000	0.843305
5780.000000	0.843390
5778.000000	0.843413
5776.000000	0.843537
5774.000000	0.843625
5772.000000	0.843515
5770.000000	0.843364
5768.000000	0.843213
5766.000000	0.843211
5764.000000	0.843301
5762.000000	0.843482
5760.000000	0.843611
5758.000000	0.843593
5756.000000	0.843311
5754.000000	0.843144
5752.000000	0.843163
5750.000000	0.843103
5748.000000	0.843161
5746.000000	0.843270
5744.000000	0.843385
5742.000000	0.843329
5740.000000	0.843286
5738.000000	0.843413
5736.000000	0.843527
5734.000000	0.843424
5732.000000	0.843179
5730.000000	0.842998
5728.000000	0.842886
5726.000000	0.842935
5724.000000	0.843089
5722.000000	0.843250
5720.000000	0.843391
5718.000000	0.843404
5716.000000	0.843477
5714.000000	0.843481
5712.000000	0.843618
5710.000000	0.843604
5708.000000	0.843377
5706.000000	0.843290
5704.000000	0.843384
5702.000000	0.843697
5700.000000	0.843889
5698.000000	0.843827
5696.000000	0.843681
5694.000000	0.843446
5692.000000	0.843544
5690.000000	0.843836
5688.000000	0.843880
5686.000000	0.843651
5684.000000	0.843447
5682.000000	0.843477
5680.000000	0.843650
5678.000000	0.843589
5676.000000	0.843359
5674.000000	0.843333
5672.000000	0.843505
5670.000000	0.843567
5668.000000	0.843467
5666.000000	0.843363
5664.000000	0.843512
5662.000000	0.843728
5660.000000	0.843860
5658.000000	0.844009
5656.000000	0.844118
5654.000000	0.844144
5652.000000	0.843988
5650.000000	0.843806
5648.000000	0.843641
5646.000000	0.843715
5644.000000	0.843864
5642.000000	0.843921
5640.000000	0.843894
5638.000000	0.843888
5636.000000	0.843828
5634.000000	0.843751
5632.000000	0.843655
5630.000000	0.843705
5628.000000	0.843863
5626.000000	0.843862
5624.000000	0.843813
5622.000000	0.843815
5620.000000	0.843800
5618.000000	0.843851
5616.000000	0.843877
5614.000000	0.843943
5612.000000	0.844056
5610.000000	0.844160
5608.000000	0.844102
5606.000000	0.843872
5604.000000	0.843673
5602.000000	0.843607
5600.000000	0.843677
5598.000000	0.843785
5596.000000	0.843824
5594.000000	0.843874
5592.000000	0.843936
5590.000000	0.844052
5588.000000	0.843997
5586.000000	0.843955
5584.000000	0.844141
5582.000000	0.844204
5580.000000	0.843984
5578.000000	0.843787
5576.000000	0.843858
5574.000000	0.843905
5572.000000	0.843806
5570.000000	0.843820
5568.000000	0.843933
5566.000000	0.843987
5564.000000	0.843968
5562.000000	0.843859
5560.000000	0.843674
5558.000000	0.843635
5556.000000	0.843697
5554.000000	0.843851
5552.000000	0.843945
5550.000000	0.844014
5548.000000	0.844105
5546.000000	0.844050
5544.000000	0.843952
5542.000000	0.843837
5540.000000	0.843872
5538.000000	0.843961
5536.000000	0.844028
5534.000000	0.844097
5532.000000	0.844313
5530.000000	0.844499
5528.000000	0.844446
5526.000000	0.844345
5524.000000	0.844207
5522.000000	0.844018
5520.000000	0.843881
5518.000000	0.843952
5516.000000	0.844063
5514.000000	0.843972
5512.000000	0.843932
5510.000000	0.844028
5508.000000	0.844126
5506.000000	0.844010
5504.000000	0.843783
5502.000000	0.843697
5500.000000	0.843881
5498.000000	0.844071
5496.000000	0.844134
5494.000000	0.844000
5492.000000	0.843872
5490.000000	0.843877
5488.000000	0.844018
5486.000000	0.844130
5484.000000	0.844041
5482.000000	0.843968
5480.000000	0.844014
5478.000000	0.844012
5476.000000	0.843882
5474.000000	0.843792
5472.000000	0.843873
5470.000000	0.843874
5468.000000	0.843751
5466.000000	0.843680
5464.000000	0.843627
5462.000000	0.843601
5460.000000	0.843524
5458.000000	0.843539
5456.000000	0.843630
5454.000000	0.843652
5452.000000	0.843737
5450.000000	0.843728
5448.000000	0.843742
5446.000000	0.843706
5444.000000	0.843601
5442.000000	0.843513
5440.000000	0.843495
5438.000000	0.843628
5436.000000	0.843712
5434.000000	0.843619
5432.000000	0.843386
5430.000000	0.843208
5428.000000	0.843432
5426.000000	0.843800
5424.000000	0.843927
5422.000000	0.843795
5420.000000	0.843636
5418.000000	0.843617
5416.000000	0.843587
5414.000000	0.843647
5412.000000	0.843656
5410.000000	0.843669
5408.000000	0.843777
5406.000000	0.843964
5404.000000	0.844120
5402.000000	0.844198
5400.000000	0.844143
5398.000000	0.843981
5396.000000	0.843828
5394.000000	0.843823
5392.000000	0.843927
5390.000000	0.843955
5388.000000	0.843902
5386.000000	0.843857
5384.000000	0.843923
5382.000000	0.843997
5380.000000	0.843836
5378.000000	0.843551
5376.000000	0.843417
5374.000000	0.843593
5372.000000	0.843810
5370.000000	0.843900
5368.000000	0.843935
5366.000000	0.843964
5364.000000	0.843978
5362.000000	0.843925
5360.000000	0.843958
5358.000000	0.843862
5356.000000	0.843628
5354.000000	0.843371
5352.000000	0.843360
5350.000000	0.843430
5348.000000	0.843231
5346.000000	0.843083
5344.000000	0.843157
5342.000000	0.843276
5340.000000	0.843193
5338.000000	0.843276
5336.000000	0.843666
5334.000000	0.843885
5332.000000	0.843692
5330.000000	0.843436
5328.000000	0.843453
5326.000000	0.843614
5324.000000	0.843719
5322.000000	0.843711
5320.000000	0.843651
5318.000000	0.843619
5316.000000	0.843644
5314.000000	0.843722
5312.000000	0.843695
5310.000000	0.843638
5308.000000	0.843653
5306.000000	0.843781
5304.000000	0.843818
5302.000000	0.843820
5300.000000	0.843850
5298.000000	0.843892
5296.000000	0.843872
5294.000000	0.843693
5292.000000	0.843423
5290.000000	0.843300
5288.000000	0.843366
5286.000000	0.843528
5284.000000	0.843662
5282.000000	0.843833
5280.000000	0.843977
5278.000000	0.843969
5276.000000	0.843767
5274.000000	0.843591
5272.000000	0.843604
5270.000000	0.843688
5268.000000	0.843456
5266.000000	0.843109
5264.000000	0.842946
5262.000000	0.843050
5260.000000	0.843157
5258.000000	0.843185
5256.000000	0.843270
5254.000000	0.843535
5252.000000	0.843694
5250.000000	0.843587
5248.000000	0.843484
5246.000000	0.843543
5244.000000	0.843608
5242.000000	0.843563
5240.000000	0.843531
5238.000000	0.843452
5236.000000	0.843451
5234.000000	0.843583
5232.000000	0.843733
5230.000000	0.843687
5228.000000	0.843574
5226.000000	0.843568
5224.000000	0.843615
5222.000000	0.843594
5220.000000	0.843493
5218.000000	0.843517
5216.000000	0.843686
5214.000000	0.843786
5212.000000	0.843671
5210.000000	0.843435
5208.000000	0.843320
5206.000000	0.843439
5204.000000	0.843684
5202.000000	0.843851
5200.000000	0.843849
5198.000000	0.843871
5196.000000	0.843960
5194.000000	0.843982
5192.000000	0.843808
5190.000000	0.843654
5188.000000	0.843588
5186.000000	0.843610
5184.000000	0.843587
5182.000000	0.843585
5180.000000	0.843627
5178.000000	0.843714
5176.000000	0.843770
5174.000000	0.843736
5172.000000	0.843642
5170.000000	0.843619
5168.000000	0.843675
5166.000000	0.843617
5164.000000	0.843511
5162.000000	0.843431
5160.000000	0.843413
5158.000000	0.843425
5156.000000	0.843431
5154.000000	0.843485
5152.000000	0.843609
5150.000000	0.843802
5148.000000	0.843859
5146.000000	0.843717
5144.000000	0.843556
5142.000000	0.843447
5140.000000	0.843443
5138.000000	0.843552
5136.000000	0.843628
5134.000000	0.843610
5132.000000	0.843670
5130.000000	0.843826
5128.000000	0.843889
5126.000000	0.843777
5124.000000	0.843769
5122.000000	0.843832
5120.000000	0.843897
5118.000000	0.843847
5116.000000	0.843735
5114.000000	0.843652
5112.000000	0.843568
5110.000000	0.843501
5108.000000	0.843576
5106.000000	0.843749
5104.000000	0.843852
5102.000000	0.843782
5100.000000	0.843717
5098.000000	0.843729
5096.000000	0.843819
5094.000000	0.843890
5092.000000	0.843887
5090.000000	0.843831
5088.000000	0.843777
5086.000000	0.843719
5084.000000	0.843759
5082.000000	0.843743
5080.000000	0.843658
5078.000000	0.843633
5076.000000	0.843694
5074.000000	0.843719
5072.000000	0.843749
5070.000000	0.843732
5068.000000	0.843589
5066.000000	0.843489
5064.000000	0.843506
5062.000000	0.843494
5060.000000	0.843446
5058.000000	0.843559
5056.000000	0.843721
5054.000000	0.843727
5052.000000	0.843658
5050.000000	0.843569
5048.000000	0.843571
5046.000000	0.843640
5044.000000	0.843727
5042.000000	0.843716
5040.000000	0.843687
5038.000000	0.843728
5036.000000	0.843750
5034.000000	0.843759
5032.000000	0.843866
5030.000000	0.844000
5028.000000	0.843993
5026.000000	0.843895
5024.000000	0.843843
5022.000000	0.843816
5020.000000	0.843754
5018.000000	0.843667
5016.000000	0.843631
5014.000000	0.843727
5012.000000	0.843816
5010.000000	0.843722
5008.000000	0.843604
5006.000000	0.843641
5004.000000	0.843833
5002.000000	0.843914
5000.000000	0.843848
4998.000000	0.843698
4996.000000	0.843722
4994.000000	0.843851
4992.000000	0.843831
4990.000000	0.843685
4988.000000	0.843614
4986.000000	0.843675
4984.000000	0.843633
4982.000000	0.843525
4980.000000	0.843531
4978.000000	0.843685
4976.000000	0.843794
4974.000000	0.843800
4972.000000	0.843706
4970.000000	0.843667
4968.000000	0.843721
4966.000000	0.843782
4964.000000	0.843715
4962.000000	0.843643
4960.000000	0.843781
4958.000000	0.843924
4956.000000	0.843841
4954.000000	0.843661
4952.000000	0.843625
4950.000000	0.843673
4948.000000	0.843680
4946.000000	0.843707
4944.000000	0.843878
4942.000000	0.844059
4940.000000	0.844038
4938.000000	0.843755
4936.000000	0.843595
4934.000000	0.843662
4932.000000	0.843809
4930.000000	0.843870
4928.000000	0.843856
4926.000000	0.843789
4924.000000	0.843825
4922.000000	0.843884
4920.000000	0.843845
4918.000000	0.843705
4916.000000	0.843604
4914.000000	0.843552
4912.000000	0.843567
4910.000000	0.843625
4908.000000	0.843624
4906.000000	0.843581
4904.000000	0.843578
4902.000000	0.843664
4900.000000	0.843747
4898.000000	0.843755
4896.000000	0.843687
4894.000000	0.843628
4892.000000	0.843610
4890.000000	0.843632
4888.000000	0.843637
4886.000000	0.843590
4884.000000	0.843619
4882.000000	0.843744
4880.000000	0.843761
4878.000000	0.843570
4876.000000	0.843440
4874.000000	0.843534
4872.000000	0.843603
4870.000000	0.843497
4868.000000	0.843391
4866.000000	0.843360
4864.000000	0.843333
4862.000000	0.843358
4860.000000	0.843473
4858.000000	0.843565
4856.000000	0.843605
4854.000000	0.843660
4852.000000	0.843739
4850.000000	0.843856
4848.000000	0.843865
4846.000000	0.843789
4844.000000	0.843741
4842.000000	0.843734
4840.000000	0.843674
4838.000000	0.843621
4836.000000	0.843642
4834.000000	0.843672
4832.000000	0.843659
4830.000000	0.843639
4828.000000	0.843711
4826.000000	0.843802
4824.000000	0.843695
4822.000000	0.843509
4820.000000	0.843479
4818.000000	0.843584
4816.000000	0.843662
4814.000000	0.843645
4812.000000	0.843618
4810.000000	0.843636
4808.000000	0.843625
4806.000000	0.843562
4804.000000	0.843557
4802.000000	0.843636
4800.000000	0.843722
4798.000000	0.843659
4796.000000	0.843389
4794.000000	0.843254
4792.000000	0.843484
4790.000000	0.843747
4788.000000	0.843784
4786.000000	0.843687
4784.000000	0.843548
4782.000000	0.843406
4780.000000	0.843419
4778.000000	0.843473
4776.000000	0.843442
4774.000000	0.843419
4772.000000	0.843443
4770.000000	0.843463
4768.000000	0.843523
4766.000000	0.843626
4764.000000	0.843647
4762.000000	0.843537
4760.000000	0.843427
4758.000000	0.843360
4756.000000	0.843375
4754.000000	0.843446
4752.000000	0.843497
4750.000000	0.843440
4748.000000	0.843411
4746.000000	0.843503
4744.000000	0.843564
4742.000000	0.843555
4740.000000	0.843545
4738.000000	0.843578
4736.000000	0.843593
4734.000000	0.843593
4732.000000	0.843546
4730.000000	0.843535
4728.000000	0.843558
4726.000000	0.843507
4724.000000	0.843386
4722.000000	0.843346
4720.000000	0.843433
4718.000000	0.843491
4716.000000	0.843484
4714.000000	0.843432
4712.000000	0.843416
4710.000000	0.843486
4708.000000	0.843630
4706.000000	0.843686
4704.000000	0.843552
4702.000000	0.843411
4700.000000	0.843399
4698.000000	0.843409
4696.000000	0.843370
4694.000000	0.843382
4692.000000	0.843424
4690.000000	0.843419
4688.000000	0.843430
4686.000000	0.843470
4684.000000	0.843484
4682.000000	0.843402
4680.000000	0.843270
4678.000000	0.843228
4676.000000	0.843351
4674.000000	0.843472
4672.000000	0.843467
4670.000000	0.843415
4668.000000	0.843369
4666.000000	0.843293
4664.000000	0.843246
4662.000000	0.843256
4660.000000	0.843267
4658.000000	0.843251
4656.000000	0.843314
4654.000000	0.843412
4652.000000	0.843435
4650.000000	0.843363
4648.000000	0.843275
4646.000000	0.843277
4644.000000	0.843342
4642.000000	0.843342
4640.000000	0.843285
4638.000000	0.843290
4636.000000	0.843327
4634.000000	0.843367
4632.000000	0.843472
4630.000000	0.843538
4628.000000	0.843481
4626.000000	0.843402
4624.000000	0.843414
4622.000000	0.843433
4620.000000	0.843449
4618.000000	0.843462
4616.000000	0.843436
4614.000000	0.843427
4612.000000	0.843451
4610.000000	0.843423
4608.000000	0.843351
4606.000000	0.843344
4604.000000	0.843371
4602.000000	0.843406
4600.000000	0.843482
4598.000000	0.843595
4596.000000	0.843604
4594.000000	0.843533
4592.000000	0.843442
4590.000000	0.843306
4588.000000	0.843174
4586.000000	0.843187
4584.000000	0.843257
4582.000000	0.843302
4580.000000	0.843305
4578.000000	0.843300
4576.000000	0.843301
4574.000000	0.843313
4572.000000	0.843354
4570.000000	0.843415
4568.000000	0.843409
4566.000000	0.843365
4564.000000	0.843379
4562.000000	0.843388
4560.000000	0.843409
4558.000000	0.843465
4556.000000	0.843524
4554.000000	0.843577
4552.000000	0.843571
4550.000000	0.843464
4548.000000	0.843409
4546.000000	0.843497
4544.000000	0.843587
4542.000000	0.843548
4540.000000	0.843493
4538.000000	0.843531
4536.000000	0.843596
4534.000000	0.843572
4532.000000	0.843480
4530.000000	0.843463
4528.000000	0.843540
4526.000000	0.843621
4524.000000	0.843616
4522.000000	0.843534
4520.000000	0.843449
4518.000000	0.843479
4516.000000	0.843545
4514.000000	0.843563
4512.000000	0.843520
4510.000000	0.843503
4508.000000	0.843557
4506.000000	0.843571
4504.000000	0.843460
4502.000000	0.843378
4500.000000	0.843373
4498.000000	0.843414
4496.000000	0.843500
4494.000000	0.843560
4492.000000	0.843533
4490.000000	0.843539
4488.000000	0.843533
4486.000000	0.843503
4484.000000	0.843508
4482.000000	0.843474
4480.000000	0.843402
4478.000000	0.843473
4476.000000	0.843589
4474.000000	0.843609
4472.000000	0.843516
4470.000000	0.843432
4468.000000	0.843503
4466.000000	0.843652
4464.000000	0.843702
4462.000000	0.843711
4460.000000	0.843719
4458.000000	0.843688
4456.000000	0.843646
4454.000000	0.843668
4452.000000	0.843707
4450.000000	0.843708
4448.000000	0.843673
4446.000000	0.843656
4444.000000	0.843643
4442.000000	0.843605
4440.000000	0.843589
4438.000000	0.843651
4436.000000	0.843664
4434.000000	0.843557
4432.000000	0.843565
4430.000000	0.843674
4428.000000	0.843678
4426.000000	0.843678
4424.000000	0.843764
4422.000000	0.843773
4420.000000	0.843758
4418.000000	0.843783
4416.000000	0.843725
4414.000000	0.843610
4412.000000	0.843611
4410.000000	0.843698
4408.000000	0.843738
4406.000000	0.843716
4404.000000	0.843661
4402.000000	0.843637
4400.000000	0.843734
4398.000000	0.843851
4396.000000	0.843824
4394.000000	0.843760
4392.000000	0.843784
4390.000000	0.843840
4388.000000	0.843822
4386.000000	0.843757
4384.000000	0.843744
4382.000000	0.843800
4380.000000	0.843766
4378.000000	0.843678
4376.000000	0.843698
4374.000000	0.843801
4372.000000	0.843856
4370.000000	0.843892
4368.000000	0.843934
4366.000000	0.843914
4364.000000	0.843836
4362.000000	0.843879
4360.000000	0.844013
4358.000000	0.844006
4356.000000	0.843881
4354.000000	0.843864
4352.000000	0.843965
4350.000000	0.844082
4348.000000	0.844096
4346.000000	0.843986
4344.000000	0.843889
4342.000000	0.843925
4340.000000	0.843950
4338.000000	0.843850
4336.000000	0.843781
4334.000000	0.843857
4332.000000	0.843907
4330.000000	0.843859
4328.000000	0.843844
4326.000000	0.843912
4324.000000	0.843978
4322.000000	0.843991
4320.000000	0.843963
4318.000000	0.843959
4316.000000	0.843978
4314.000000	0.843948
4312.000000	0.843931
4310.000000	0.843974
4308.000000	0.843959
4306.000000	0.843882
4304.000000	0.843842
4302.000000	0.843845
4300.000000	0.843839
4298.000000	0.843811
4296.000000	0.843847
4294.000000	0.843979
4292.000000	0.844066
4290.000000	0.843967
4288.000000	0.843802
4286.000000	0.843795
4284.000000	0.843958
4282.000000	0.844064
4280.000000	0.844026
4278.000000	0.844008
4276.000000	0.844087
4274.000000	0.844129
4272.000000	0.844145
4270.000000	0.844171
4268.000000	0.844118
4266.000000	0.844033
4264.000000	0.844019
4262.000000	0.844046
4260.000000	0.844099
4258.000000	0.844106
4256.000000	0.844009
4254.000000	0.843931
4252.000000	0.843965
4250.000000	0.844061
4248.000000	0.844160
4246.000000	0.844159
4244.000000	0.844068
4242.000000	0.844087
4240.000000	0.844137
4238.000000	0.844066
4236.000000	0.844043
4234.000000	0.844142
4232.000000	0.844183
4230.000000	0.844140
4228.000000	0.844142
4226.000000	0.844169
4224.000000	0.844096
4222.000000	0.844022
4220.000000	0.844018
4218.000000	0.844017
4216.000000	0.844048
4214.000000	0.844095
4212.000000	0.844135
4210.000000	0.844226
4208.000000	0.844251
4206.000000	0.844161
4204.000000	0.844112
4202.000000	0.844118
4200.000000	0.844178
4198.000000	0.844269
4196.000000	0.844239
4194.000000	0.844140
4192.000000	0.844108
4190.000000	0.844108
4188.000000	0.844090
4186.000000	0.844101
4184.000000	0.844132
4182.000000	0.844131
4180.000000	0.844145
4178.000000	0.844185
4176.000000	0.844175
4174.000000	0.844136
4172.000000	0.844095
4170.000000	0.844149
4168.000000	0.844289
4166.000000	0.844380
4164.000000	0.844383
4162.000000	0.844299
4160.000000	0.844183
4158.000000	0.844167
4156.000000	0.844211
4154.000000	0.844243
4152.000000	0.844272
4150.000000	0.844298
4148.000000	0.844333
4146.000000	0.844366
4144.000000	0.844334
4142.000000	0.844236
4140.000000	0.844157
4138.000000	0.844169
4136.000000	0.844211
4134.000000	0.844204
4132.000000	0.844173
4130.000000	0.844186
4128.000000	0.844260
4126.000000	0.844302
4124.000000	0.844281
4122.000000	0.844249
4120.000000	0.844186
4118.000000	0.844131
4116.000000	0.844142
4114.000000	0.844174
4112.000000	0.844217
4110.000000	0.844267
4108.000000	0.844261
4106.000000	0.844236
4104.000000	0.844233
4102.000000	0.844244
4100.000000	0.844246
4098.000000	0.844201
4096.000000	0.844147
4094.000000	0.844152
4092.000000	0.844186
4090.000000	0.844215
4088.000000	0.844237
4086.000000	0.844265
4084.000000	0.844249
4082.000000	0.844195
4080.000000	0.844177
4078.000000	0.844207
4076.000000	0.844252
4074.000000	0.844293
4072.000000	0.844331
4070.000000	0.844358
4068.000000	0.844324
4066.000000	0.844246
4064.000000	0.844195
4062.000000	0.844215
4060.000000	0.844216
4058.000000	0.844147
4056.000000	0.844105
4054.000000	0.844154
4052.000000	0.844257
4050.000000	0.844313
4048.000000	0.844283
4046.000000	0.844227
4044.000000	0.844182
4042.000000	0.844180
4040.000000	0.844178
4038.000000	0.844187
4036.000000	0.844245
4034.000000	0.844260
4032.000000	0.844216
4030.000000	0.844199
4028.000000	0.844173
4026.000000	0.844127
4024.000000	0.844149
4022.000000	0.844201
4020.000000	0.844221
4018.000000	0.844216
4016.000000	0.844179
4014.000000	0.844158
4012.000000	0.844115
4010.000000	0.844026
4008.000000	0.844012
4006.000000	0.844105
4004.000000	0.844202
4002.000000	0.844201
4000.000000	0.844130
3998.000000	0.844110
3996.000000	0.844114
3994.000000	0.844068
3992.000000	0.844057
3990.000000	0.844122
3988.000000	0.844150
3986.000000	0.844090
3984.000000	0.844027
3982.000000	0.844040
3980.000000	0.844048
3978.000000	0.843977
3976.000000	0.843931
3974.000000	0.843976
3972.000000	0.843998
3970.000000	0.843974
3968.000000	0.844014
3966.000000	0.844049
3964.000000	0.843995
3962.000000	0.843994
3960.000000	0.844042
3958.000000	0.844007
3956.000000	0.843941
3954.000000	0.843861
3952.000000	0.843727
3950.000000	0.843620
3948.000000	0.843545
3946.000000	0.843398
3944.000000	0.843325
3942.000000	0.843515
3940.000000	0.843785
3938.000000	0.843871
3936.000000	0.843609
3934.000000	0.843164
3932.000000	0.843063
3930.000000	0.843341
3928.000000	0.843406
3926.000000	0.843220
3924.000000	0.843220
3922.000000	0.843234
3920.000000	0.842955
3918.000000	0.842757
3916.000000	0.843041
3914.000000	0.843518
3912.000000	0.843773
3910.000000	0.843695
3908.000000	0.842983
3906.000000	0.841628
3904.000000	0.840543
3902.000000	0.840381
3900.000000	0.841059
3898.000000	0.842200
3896.000000	0.842939
3894.000000	0.842594
3892.000000	0.842003
3890.000000	0.841992
3888.000000	0.841588
3886.000000	0.841114
3884.000000	0.841515
3882.000000	0.841840
3880.000000	0.842191
3878.000000	0.842749
3876.000000	0.842577
3874.000000	0.841669
3872.000000	0.840404
3870.000000	0.839959
3868.000000	0.840617
3866.000000	0.840993
3864.000000	0.841257
3862.000000	0.841955
3860.000000	0.842393
3858.000000	0.840867
3856.000000	0.836711
3854.000000	0.834125
3852.000000	0.836658
3850.000000	0.840730
3848.000000	0.842636
3846.000000	0.842613
3844.000000	0.841913
3842.000000	0.840774
3840.000000	0.838990
3838.000000	0.838202
3836.000000	0.839407
3834.000000	0.840789
3832.000000	0.841546
3830.000000	0.842164
3828.000000	0.842431
3826.000000	0.842201
3824.000000	0.841025
3822.000000	0.839733
3820.000000	0.839547
3818.000000	0.839186
3816.000000	0.839312
3814.000000	0.841157
3812.000000	0.842601
3810.000000	0.842064
3808.000000	0.840769
3806.000000	0.840426
3804.000000	0.839738
3802.000000	0.838834
3800.000000	0.839791
3798.000000	0.841277
3796.000000	0.842133
3794.000000	0.842823
3792.000000	0.843235
3790.000000	0.843342
3788.000000	0.843208
3786.000000	0.843018
3784.000000	0.842920
3782.000000	0.842560
3780.000000	0.842233
3778.000000	0.842596
3776.000000	0.843051
3774.000000	0.842880
3772.000000	0.842071
3770.000000	0.841485
3768.000000	0.841640
3766.000000	0.842053
3764.000000	0.842299
3762.000000	0.841990
3760.000000	0.841527
3758.000000	0.841487
3756.000000	0.840726
3754.000000	0.838138
3752.000000	0.835631
3750.000000	0.835655
3748.000000	0.836213
3746.000000	0.835130
3744.000000	0.835903
3742.000000	0.839060
3740.000000	0.840185
3738.000000	0.838856
3736.000000	0.837751
3734.000000	0.838007
3732.000000	0.839315
3730.000000	0.840775
3728.000000	0.841116
3726.000000	0.840914
3724.000000	0.840987
3722.000000	0.841186
3720.000000	0.841517
3718.000000	0.841777
3716.000000	0.841224
3714.000000	0.839536
3712.000000	0.838487
3710.000000	0.839729
3708.000000	0.841904
3706.000000	0.842767
3704.000000	0.842091
3702.000000	0.841555
3700.000000	0.841925
3698.000000	0.842303
3696.000000	0.842194
3694.000000	0.841427
3692.000000	0.839599
3690.000000	0.837690
3688.000000	0.838113
3686.000000	0.840282
3684.000000	0.841486
3682.000000	0.841379
3680.000000	0.840275
3678.000000	0.837929
3676.000000	0.836271
3674.000000	0.836652
3672.000000	0.836812
3670.000000	0.837232
3668.000000	0.839222
3666.000000	0.840978
3664.000000	0.841522
3662.000000	0.841444
3660.000000	0.840889
3658.000000	0.839792
3656.000000	0.839314
3654.000000	0.839121
3652.000000	0.837417
3650.000000	0.835707
3648.000000	0.836557
3646.000000	0.838876
3644.000000	0.840336
3642.000000	0.840711
3640.000000	0.840729
3638.000000	0.840588
3636.000000	0.840251
3634.000000	0.839663
3632.000000	0.837990
3630.000000	0.835971
3628.000000	0.836521
3626.000000	0.838771
3624.000000	0.839703
3622.000000	0.838866
3620.000000	0.837838
3618.000000	0.838009
3616.000000	0.838471
3614.000000	0.838314
3612.000000	0.837918
3610.000000	0.837646
3608.000000	0.838098
3606.000000	0.839033
3604.000000	0.839479
3602.000000	0.839617
3600.000000	0.839900
3598.000000	0.839829
3596.000000	0.839395
3594.000000	0.839239
3592.000000	0.839077
3590.000000	0.838306
3588.000000	0.837765
3586.000000	0.838371
3584.000000	0.839240
3582.000000	0.839607
3580.000000	0.839677
3578.000000	0.839641
3576.000000	0.839634
3574.000000	0.839653
3572.000000	0.839365
3570.000000	0.838512
3568.000000	0.837772
3566.000000	0.838054
3564.000000	0.838804
3562.000000	0.839265
3560.000000	0.839513
3558.000000	0.839680
3556.000000	0.839689
3554.000000	0.839537
3552.000000	0.839449
3550.000000	0.839439
3548.000000	0.839303
3546.000000	0.839215
3544.000000	0.839447
3542.000000	0.839843
3540.000000	0.840062
3538.000000	0.840048
3536.000000	0.840005
3534.000000	0.840052
3532.000000	0.840033
3530.000000	0.839917
3528.000000	0.839848
3526.000000	0.839834
3524.000000	0.839909
3522.000000	0.840206
3520.000000	0.840526
3518.000000	0.840644
3516.000000	0.840695
3514.000000	0.840751
3512.000000	0.840757
3510.000000	0.840796
3508.000000	0.840900
3506.000000	0.840951
3504.000000	0.840955
3502.000000	0.841081
3500.000000	0.841311
3498.000000	0.841552
3496.000000	0.841783
3494.000000	0.841978
3492.000000	0.842126
3490.000000	0.842202
3488.000000	0.842299
3486.000000	0.842503
3484.000000	0.842675
3482.000000	0.842822
3480.000000	0.843069
3478.000000	0.843368
3476.000000	0.843568
3474.000000	0.843720
3472.000000	0.843909
3470.000000	0.844132
3468.000000	0.844397
3466.000000	0.844668
3464.000000	0.844886
3462.000000	0.845104
3460.000000	0.845364
3458.000000	0.845624
3456.000000	0.845927
3454.000000	0.846238
3452.000000	0.846546
3450.000000	0.846781
3448.000000	0.846911
3446.000000	0.847158
3444.000000	0.847530
3442.000000	0.847957
3440.000000	0.848347
3438.000000	0.848592
3436.000000	0.848804
3434.000000	0.849118
3432.000000	0.849452
3430.000000	0.849776
3428.000000	0.850162
3426.000000	0.850480
3424.000000	0.850621
3422.000000	0.850800
3420.000000	0.851108
3418.000000	0.851475
3416.000000	0.851843
3414.000000	0.852101
3412.000000	0.852289
3410.000000	0.852462
3408.000000	0.852656
3406.000000	0.852872
3404.000000	0.853036
3402.000000	0.853162
3400.000000	0.853354
3398.000000	0.853585
3396.000000	0.853726
3394.000000	0.853818
3392.000000	0.853941
3390.000000	0.854144
3388.000000	0.854416
3386.000000	0.854607
3384.000000	0.854729
3382.000000	0.854850
3380.000000	0.854889
3378.000000	0.854965
3376.000000	0.855177
3374.000000	0.855344
3372.000000	0.855353
3370.000000	0.855386
3368.000000	0.855495
3366.000000	0.855541
3364.000000	0.855609
3362.000000	0.855746
3360.000000	0.855870
3358.000000	0.855981
3356.000000	0.856073
3354.000000	0.856118
3352.000000	0.856189
3350.000000	0.856311
3348.000000	0.856454
3346.000000	0.856524
3344.000000	0.856542
3342.000000	0.856573
3340.000000	0.856618
3338.000000	0.856671
3336.000000	0.856702
3334.000000	0.856722
3332.000000	0.856775
3330.000000	0.856827
3328.000000	0.856840
3326.000000	0.856880
3324.000000	0.856973
3322.000000	0.857090
3320.000000	0.857202
3318.000000	0.857295
3316.000000	0.857372
3314.000000	0.857444
3312.000000	0.857469
3310.000000	0.857455
3308.000000	0.857441
3306.000000	0.857520
3304.000000	0.857697
3302.000000	0.857814
3300.000000	0.857875
3298.000000	0.857925
3296.000000	0.857973
3294.000000	0.857998
3292.000000	0.858055
3290.000000	0.858159
3288.000000	0.858245
3286.000000	0.858340
3284.000000	0.858438
3282.000000	0.858473
3280.000000	0.858522
3278.000000	0.858566
3276.000000	0.858538
3274.000000	0.858556
3272.000000	0.858644
3270.000000	0.858758
3268.000000	0.858881
3266.000000	0.858970
3264.000000	0.859003
3262.000000	0.858988
3260.000000	0.859016
3258.000000	0.859085
3256.000000	0.859139
3254.000000	0.859132
3252.000000	0.859162
3250.000000	0.859246
3248.000000	0.859264
3246.000000	0.859248
3244.000000	0.859317
3242.000000	0.859442
3240.000000	0.859527
3238.000000	0.859595
3236.000000	0.859646
3234.000000	0.859658
3232.000000	0.859718
3230.000000	0.859844
3228.000000	0.859970
3226.000000	0.860028
3224.000000	0.860066
3222.000000	0.860095
3220.000000	0.860113
3218.000000	0.860194
3216.000000	0.860229
3214.000000	0.860186
3212.000000	0.860158
3210.000000	0.860204
3208.000000	0.860271
3206.000000	0.860292
3204.000000	0.860303
3202.000000	0.860287
3200.000000	0.860233
3198.000000	0.860221
3196.000000	0.860228
3194.000000	0.860195
3192.000000	0.860197
3190.000000	0.860271
3188.000000	0.860333
3186.000000	0.860325
3184.000000	0.860282
3182.000000	0.860271
3180.000000	0.860268
3178.000000	0.860256
3176.000000	0.860245
3174.000000	0.860240
3172.000000	0.860250
3170.000000	0.860253
3168.000000	0.860268
3166.000000	0.860316
3164.000000	0.860339
3162.000000	0.860319
3160.000000	0.860311
3158.000000	0.860326
3156.000000	0.860308
3154.000000	0.860261
3152.000000	0.860297
3150.000000	0.860403
3148.000000	0.860381
3146.000000	0.860284
3144.000000	0.860326
3142.000000	0.860395
3140.000000	0.860392
3138.000000	0.860378
3136.000000	0.860359
3134.000000	0.860348
3132.000000	0.860365
3130.000000	0.860404
3128.000000	0.860458
3126.000000	0.860490
3124.000000	0.860493
3122.000000	0.860423
3120.000000	0.860400
3118.000000	0.860448
3116.000000	0.860444
3114.000000	0.860435
3112.000000	0.860453
3110.000000	0.860482
3108.000000	0.860485
3106.000000	0.860451
3104.000000	0.860435
3102.000000	0.860446
3100.000000	0.860463
3098.000000	0.860469
3096.000000	0.860433
3094.000000	0.860385
3092.000000	0.860382
3090.000000	0.860353
3088.000000	0.860243
3086.000000	0.860116
3084.000000	0.859992
3082.000000	0.859890
3080.000000	0.859848
3078.000000	0.859824
3076.000000	0.859815
3074.000000	0.859808
3072.000000	0.859702
3070.000000	0.859528
3068.000000	0.859418
3066.000000	0.859347
3064.000000	0.859289
3062.000000	0.859261
3060.000000	0.859195
3058.000000	0.859085
3056.000000	0.859028
3054.000000	0.859020
3052.000000	0.858970
3050.000000	0.858866
3048.000000	0.858720
3046.000000	0.858610
3044.000000	0.858552
3042.000000	0.858520
3040.000000	0.858492
3038.000000	0.858429
3036.000000	0.858307
3034.000000	0.858191
3032.000000	0.858183
3030.000000	0.858215
3028.000000	0.858172
3026.000000	0.858091
3024.000000	0.858090
3022.000000	0.858074
3020.000000	0.857975
3018.000000	0.857891
3016.000000	0.857818
3014.000000	0.857703
3012.000000	0.857658
3010.000000	0.857665
3008.000000	0.857664
3006.000000	0.857609
3004.000000	0.857502
3002.000000	0.857427
3000.000000	0.857403
2998.000000	0.857400
2996.000000	0.857388
2994.000000	0.857306
2992.000000	0.857200
2990.000000	0.857132
2988.000000	0.857119
2986.000000	0.857171
2984.000000	0.857196
2982.000000	0.857155
2980.000000	0.857134
2978.000000	0.857174
2976.000000	0.857203
2974.000000	0.857295
2972.000000	0.857443
2970.000000	0.857518
2968.000000	0.857633
2966.000000	0.857805
2964.000000	0.857972
2962.000000	0.858020
2960.000000	0.857892
2958.000000	0.857669
2956.000000	0.857373
2954.000000	0.857093
2952.000000	0.856875
2950.000000	0.856693
2948.000000	0.856569
2946.000000	0.856481
2944.000000	0.856398
2942.000000	0.856321
2940.000000	0.856279
2938.000000	0.856254
2936.000000	0.856253
2934.000000	0.856255
2932.000000	0.856208
2930.000000	0.856147
2928.000000	0.856143
2926.000000	0.856162
2924.000000	0.856180
2922.000000	0.856209
2920.000000	0.856206
2918.000000	0.856221
2916.000000	0.856208
2914.000000	0.856151
2912.000000	0.856131
2910.000000	0.856135
2908.000000	0.856120
2906.000000	0.856037
2904.000000	0.855920
2902.000000	0.855884
2900.000000	0.855883
2898.000000	0.855828
2896.000000	0.855766
2894.000000	0.855767
2892.000000	0.855702
2890.000000	0.855575
2888.000000	0.855551
2886.000000	0.855536
2884.000000	0.855502
2882.000000	0.855514
2880.000000	0.855484
2878.000000	0.855419
2876.000000	0.855337
2874.000000	0.855242
2872.000000	0.855190
2870.000000	0.855147
2868.000000	0.855088
2866.000000	0.855060
2864.000000	0.855063
2862.000000	0.855040
2860.000000	0.854991
2858.000000	0.855004
2856.000000	0.855021
2854.000000	0.855008
2852.000000	0.855021
2850.000000	0.855066
2848.000000	0.855128
2846.000000	0.855185
2844.000000	0.855131
2842.000000	0.854981
2840.000000	0.854902
2838.000000	0.854907
2836.000000	0.854935
2834.000000	0.854913
2832.000000	0.854891
2830.000000	0.854901
2828.000000	0.854883
2826.000000	0.854832
2824.000000	0.854805
2822.000000	0.854773
2820.000000	0.854745
2818.000000	0.854759
2816.000000	0.854804
2814.000000	0.854827
2812.000000	0.854774
2810.000000	0.854667
2808.000000	0.854584
2806.000000	0.854551
2804.000000	0.854596
2802.000000	0.854615
2800.000000	0.854615
2798.000000	0.854599
2796.000000	0.854581
2794.000000	0.854603
2792.000000	0.854567
2790.000000	0.854508
2788.000000	0.854510
2786.000000	0.854528
2784.000000	0.854548
2782.000000	0.854562
2780.000000	0.854565
2778.000000	0.854513
2776.000000	0.854507
2774.000000	0.854520
2772.000000	0.854514
2770.000000	0.854520
2768.000000	0.854525
2766.000000	0.854497
2764.000000	0.854467
2762.000000	0.854407
2760.000000	0.854332
2758.000000	0.854297
2756.000000	0.854335
2754.000000	0.854355
2752.000000	0.854339
2750.000000	0.854346
2748.000000	0.854365
2746.000000	0.854380
2744.000000	0.854367
2742.000000	0.854421
2740.000000	0.854527
2738.000000	0.854550
2736.000000	0.854529
2734.000000	0.854512
2732.000000	0.854522
2730.000000	0.854591
2728.000000	0.854636
2726.000000	0.854624
2724.000000	0.854615
2722.000000	0.854651
2720.000000	0.854710
2718.000000	0.854737
2716.000000	0.854771
2714.000000	0.854845
2712.000000	0.854897
2710.000000	0.854900
2708.000000	0.854903
2706.000000	0.854932
2704.000000	0.854959
2702.000000	0.855044
2700.000000	0.855151
2698.000000	0.855195
2696.000000	0.855197
2694.000000	0.855237
2692.000000	0.855304
2690.000000	0.855284
2688.000000	0.855313
2686.000000	0.855380
2684.000000	0.855438
2682.000000	0.855474
2680.000000	0.855487
2678.000000	0.855538
2676.000000	0.855632
2674.000000	0.855678
2672.000000	0.855733
2670.000000	0.855773
2668.000000	0.855767
2666.000000	0.855784
2664.000000	0.855834
2662.000000	0.855863
2660.000000	0.855880
2658.000000	0.855854
2656.000000	0.855904
2654.000000	0.856011
2652.000000	0.856088
2650.000000	0.856159
2648.000000	0.856221
2646.000000	0.856246
2644.000000	0.856259
2642.000000	0.856277
2640.000000	0.856300
2638.000000	0.856324
2636.000000	0.856369
2634.000000	0.856436
2632.000000	0.856459
2630.000000	0.856444
2628.000000	0.856458
2626.000000	0.856496
2624.000000	0.856580
2622.000000	0.856669
2620.000000	0.856715
2618.000000	0.856699
2616.000000	0.856704
2614.000000	0.856773
2612.000000	0.856838
2610.000000	0.856862
2608.000000	0.856891
2606.000000	0.856909
2604.000000	0.856935
2602.000000	0.856984
2600.000000	0.857029
2598.000000	0.857008
2596.000000	0.856998
2594.000000	0.857033
2592.000000	0.857091
2590.000000	0.857118
2588.000000	0.857109
2586.000000	0.857124
2584.000000	0.857167
2582.000000	0.857212
2580.000000	0.857242
2578.000000	0.857231
2576.000000	0.857213
2574.000000	0.857266
2572.000000	0.857338
2570.000000	0.857368
2568.000000	0.857365
2566.000000	0.857352
2564.000000	0.857308
2562.000000	0.857292
2560.000000	0.857345
2558.000000	0.857413
2556.000000	0.857416
2554.000000	0.857432
2552.000000	0.857507
2550.000000	0.857525
2548.000000	0.857523
2546.000000	0.857543
2544.000000	0.857580
2542.000000	0.857600
2540.000000	0.857589
2538.000000	0.857575
2536.000000	0.857584
2534.000000	0.857561
2532.000000	0.857532
2530.000000	0.857538
2528.000000	0.857578
2526.000000	0.857587
2524.000000	0.857611
2522.000000	0.857602
2520.000000	0.857618
2518.000000	0.857647
2516.000000	0.857662
2514.000000	0.857652
2512.000000	0.857637
2510.000000	0.857608
2508.000000	0.857600
2506.000000	0.857646
2504.000000	0.857665
2502.000000	0.857612
2500.000000	0.857583
2498.000000	0.857630
2496.000000	0.857672
2494.000000	0.857663
2492.000000	0.857665
2490.000000	0.857653
2488.000000	0.857647
2486.000000	0.857636
2484.000000	0.857637
2482.000000	0.857643
2480.000000	0.857622
2478.000000	0.857565
2476.000000	0.857536
2474.000000	0.857556
2472.000000	0.857614
2470.000000	0.857634
2468.000000	0.857652
2466.000000	0.857713
2464.000000	0.857746
2462.000000	0.857733
2460.000000	0.857751
2458.000000	0.857791
2456.000000	0.857849
2454.000000	0.857819
2452.000000	0.857783
2450.000000	0.857758
2448.000000	0.857733
2446.000000	0.857674
2444.000000	0.857646
2442.000000	0.857639
2440.000000	0.857640
2438.000000	0.857658
2436.000000	0.857617
2434.000000	0.857544
2432.000000	0.857534
2430.000000	0.857528
2428.000000	0.857502
2426.000000	0.857470
2424.000000	0.857434
2422.000000	0.857407
2420.000000	0.857389
2418.000000	0.857369
2416.000000	0.857324
2414.000000	0.857277
2412.000000	0.857255
2410.000000	0.857178
2408.000000	0.857138
2406.000000	0.857078
2404.000000	0.856991
2402.000000	0.856927
2400.000000	0.856800
2398.000000	0.856637
2396.000000	0.856555
2394.000000	0.856458
2392.000000	0.856360
2390.000000	0.856278
2388.000000	0.856171
2386.000000	0.856093
2384.000000	0.856192
2382.000000	0.856856
2380.000000	0.858208
2378.000000	0.859355
2376.000000	0.859835
2374.000000	0.859877
2372.000000	0.859708
2370.000000	0.859424
2368.000000	0.859075
2366.000000	0.858811
2364.000000	0.858771
2362.000000	0.858968
2360.000000	0.859408
2358.000000	0.859999
2356.000000	0.860671
2354.000000	0.861428
2352.000000	0.862253
2350.000000	0.862937
2348.000000	0.863184
2346.000000	0.863122
2344.000000	0.863133
2342.000000	0.863292
2340.000000	0.863333
2338.000000	0.862923
2336.000000	0.862233
2334.000000	0.861691
2332.000000	0.861423
2330.000000	0.861288
2328.000000	0.861142
2326.000000	0.861059
2324.000000	0.861058
2322.000000	0.861029
2320.000000	0.861049
2318.000000	0.861067
2316.000000	0.861064
2314.000000	0.861102
2312.000000	0.861191
2310.000000	0.861228
2308.000000	0.861191
2306.000000	0.861166
2304.000000	0.861150
2302.000000	0.861114
2300.000000	0.861109
2298.000000	0.861084
2296.000000	0.861081
2294.000000	0.861058
2292.000000	0.861011
2290.000000	0.861017
2288.000000	0.860978
2286.000000	0.860964
2284.000000	0.861214
2282.000000	0.861470
2280.000000	0.861377
2278.000000	0.861160
2276.000000	0.861102
2274.000000	0.861113
2272.000000	0.861079
2270.000000	0.861036
2268.000000	0.861028
2266.000000	0.860976
2264.000000	0.860922
2262.000000	0.860870
2260.000000	0.860828
2258.000000	0.860786
2256.000000	0.860731
2254.000000	0.860684
2252.000000	0.860667
2250.000000	0.860682
2248.000000	0.860715
2246.000000	0.860680
2244.000000	0.860576
2242.000000	0.860492
2240.000000	0.860516
2238.000000	0.860563
2236.000000	0.860566
2234.000000	0.860556
2232.000000	0.860517
2230.000000	0.860434
2228.000000	0.860370
2226.000000	0.860334
2224.000000	0.860307
2222.000000	0.860239
2220.000000	0.860203
2218.000000	0.860205
2216.000000	0.860212
2214.000000	0.860194
2212.000000	0.860134
2210.000000	0.860070
2208.000000	0.860077
2206.000000	0.860061
2204.000000	0.860024
2202.000000	0.860004
2200.000000	0.860002
2198.000000	0.859963
2196.000000	0.859883
2194.000000	0.859815
2192.000000	0.859790
2190.000000	0.859778
2188.000000	0.859766
2186.000000	0.859726
2184.000000	0.859678
2182.000000	0.859664
2180.000000	0.859665
2178.000000	0.859647
2176.000000	0.859615
2174.000000	0.859620
2172.000000	0.859604
2170.000000	0.859518
2168.000000	0.859490
2166.000000	0.859466
2164.000000	0.859411
2162.000000	0.859375
2160.000000	0.859354
2158.000000	0.859301
2156.000000	0.859290
2154.000000	0.859259
2152.000000	0.859240
2150.000000	0.859222
2148.000000	0.859172
2146.000000	0.859109
2144.000000	0.859033
2142.000000	0.858970
2140.000000	0.858968
2138.000000	0.858963
2136.000000	0.858961
2134.000000	0.858921
2132.000000	0.858889
2130.000000	0.858815
2128.000000	0.858756
2126.000000	0.858718
2124.000000	0.858642
2122.000000	0.858594
2120.000000	0.858629
2118.000000	0.858649
2116.000000	0.858624
2114.000000	0.858544
2112.000000	0.858504
2110.000000	0.858471
2108.000000	0.858381
2106.000000	0.858296
2104.000000	0.858296
2102.000000	0.858299
2100.000000	0.858344
2098.000000	0.858329
2096.000000	0.858270
2094.000000	0.858225
2092.000000	0.858192
2090.000000	0.858135
2088.000000	0.858113
2086.000000	0.858106
2084.000000	0.858101
2082.000000	0.858058
2080.000000	0.858036
2078.000000	0.858026
2076.000000	0.857958
2074.000000	0.857846
2072.000000	0.857800
2070.000000	0.857819
2068.000000	0.857826
2066.000000	0.857741
2064.000000	0.857701
2062.000000	0.857688
2060.000000	0.857652
2058.000000	0.857629
2056.000000	0.857635
2054.000000	0.857571
2052.000000	0.857498
2050.000000	0.857463
2048.000000	0.857436
2046.000000	0.857375
2044.000000	0.857303
2042.000000	0.857235
2040.000000	0.857225
2038.000000	0.857223
2036.000000	0.857179
2034.000000	0.857131
2032.000000	0.857129
2030.000000	0.857112
2028.000000	0.857047
2026.000000	0.856964
2024.000000	0.856911
2022.000000	0.856886
2020.000000	0.856845
2018.000000	0.856683
2016.000000	0.856641
2014.000000	0.856653
2012.000000	0.856623
2010.000000	0.856533
2008.000000	0.856475
2006.000000	0.856457
2004.000000	0.856451
2002.000000	0.856403
2000.000000	0.856367
1998.000000	0.856346
1996.000000	0.856308
1994.000000	0.856068
1992.000000	0.855865
1990.000000	0.855969
1988.000000	0.856118
1986.000000	0.856166
1984.000000	0.856104
1982.000000	0.856042
1980.000000	0.856054
1978.000000	0.856046
1976.000000	0.855978
1974.000000	0.855914
1972.000000	0.855886
1970.000000	0.855769
1968.000000	0.855632
1966.000000	0.855662
1964.000000	0.855761
1962.000000	0.855780
1960.000000	0.855850
1958.000000	0.855883
1956.000000	0.855771
1954.000000	0.855677
1952.000000	0.855666
1950.000000	0.855661
1948.000000	0.855617
1946.000000	0.855487
1944.000000	0.855251
1942.000000	0.855205
1940.000000	0.855511
1938.000000	0.855655
1936.000000	0.855736
1934.000000	0.855735
1932.000000	0.855704
1930.000000	0.855652
1928.000000	0.855630
1926.000000	0.855543
1924.000000	0.855298
1922.000000	0.855169
1920.000000	0.854940
1918.000000	0.854700
1916.000000	0.855224
1914.000000	0.855554
1912.000000	0.855459
1910.000000	0.855364
1908.000000	0.855478
1906.000000	0.855565
1904.000000	0.855613
1902.000000	0.855615
1900.000000	0.855608
1898.000000	0.855511
1896.000000	0.855409
1894.000000	0.855357
1892.000000	0.855208
1890.000000	0.854915
1888.000000	0.855159
1886.000000	0.855429
1884.000000	0.855441
1882.000000	0.855391
1880.000000	0.855405
1878.000000	0.855418
1876.000000	0.855426
1874.000000	0.855311
1872.000000	0.854795
1870.000000	0.853801
1868.000000	0.853779
1866.000000	0.854606
1864.000000	0.855081
1862.000000	0.855073
1860.000000	0.854987
1858.000000	0.854948
1856.000000	0.855006
1854.000000	0.855001
1852.000000	0.854977
1850.000000	0.854821
1848.000000	0.854404
1846.000000	0.853053
1844.000000	0.852384
1842.000000	0.853816
1840.000000	0.854764
1838.000000	0.854733
1836.000000	0.854691
1834.000000	0.854573
1832.000000	0.853863
1830.000000	0.853248
1828.000000	0.853679
1826.000000	0.853725
1824.000000	0.854017
1822.000000	0.854658
1820.000000	0.854807
1818.000000	0.854754
1816.000000	0.854868
1814.000000	0.854787
1812.000000	0.854436
1810.000000	0.854421
1808.000000	0.854770
1806.000000	0.854866
1804.000000	0.854521
1802.000000	0.853875
1800.000000	0.853741
1798.000000	0.854160
1796.000000	0.854073
1794.000000	0.852628
1792.000000	0.852116
1790.000000	0.853678
1788.000000	0.854622
1786.000000	0.854319
1784.000000	0.854305
1782.000000	0.854409
1780.000000	0.854490
1778.000000	0.854716
1776.000000	0.854022
1774.000000	0.851764
1772.000000	0.850957
1770.000000	0.852507
1768.000000	0.853485
1766.000000	0.854500
1764.000000	0.854293
1762.000000	0.853525
1760.000000	0.854148
1758.000000	0.854363
1756.000000	0.854453
1754.000000	0.854213
1752.000000	0.852414
1750.000000	0.852255
1748.000000	0.853541
1746.000000	0.854419
1744.000000	0.854558
1742.000000	0.854012
1740.000000	0.853464
1738.000000	0.853783
1736.000000	0.851169
1734.000000	0.848697
1732.000000	0.851900
1730.000000	0.854681
1728.000000	0.855664
1726.000000	0.855938
1724.000000	0.855875
1722.000000	0.855573
1720.000000	0.852973
1718.000000	0.849510
1716.000000	0.850699
1714.000000	0.853823
1712.000000	0.855649
1710.000000	0.855941
1708.000000	0.855255
1706.000000	0.854203
1704.000000	0.853702
1702.000000	0.850216
1700.000000	0.847943
1698.000000	0.849368
1696.000000	0.849461
1694.000000	0.853116
1692.000000	0.856062
1690.000000	0.856039
1688.000000	0.854704
1686.000000	0.850091
1684.000000	0.848627
1682.000000	0.853220
1680.000000	0.855877
1678.000000	0.855573
1676.000000	0.853725
1674.000000	0.854149
1672.000000	0.854609
1670.000000	0.853586
1668.000000	0.854841
1666.000000	0.856387
1664.000000	0.855604
1662.000000	0.855550
1660.000000	0.856867
1658.000000	0.856868
1656.000000	0.852894
1654.000000	0.845487
1652.000000	0.846975
1650.000000	0.853312
1648.000000	0.853044
1646.000000	0.852580
1644.000000	0.855492
1642.000000	0.857256
1640.000000	0.856928
1638.000000	0.854385
1636.000000	0.851550
1634.000000	0.853845
1632.000000	0.856912
1630.000000	0.857041
1628.000000	0.856487
1626.000000	0.856050
1624.000000	0.855216
1622.000000	0.855884
1620.000000	0.856129
1618.000000	0.853164
1616.000000	0.852856
1614.000000	0.856176
1612.000000	0.857425
1610.000000	0.857396
1608.000000	0.857449
1606.000000	0.857584
1604.000000	0.857547
1602.000000	0.857614
1600.000000	0.857724
1598.000000	0.857722
1596.000000	0.857605
1594.000000	0.857602
1592.000000	0.857679
1590.000000	0.857744
1588.000000	0.857810
1586.000000	0.857896
1584.000000	0.857961
1582.000000	0.857920
1580.000000	0.857336
1578.000000	0.854205
1576.000000	0.852256
1574.000000	0.855403
1572.000000	0.856324
1570.000000	0.855038
1568.000000	0.855928
1566.000000	0.856963
1564.000000	0.856694
1562.000000	0.852988
1560.000000	0.846142
1558.000000	0.846853
1556.000000	0.852063
1554.000000	0.854546
1552.000000	0.856184
1550.000000	0.856770
1548.000000	0.856841
1546.000000	0.855476
1544.000000	0.853007
1542.000000	0.849286
1540.000000	0.847243
1538.000000	0.851668
1536.000000	0.855429
1534.000000	0.854888
1532.000000	0.855848
1530.000000	0.856846
1528.000000	0.855973
1526.000000	0.854843
1524.000000	0.853416
1522.000000	0.850903
1520.000000	0.851968
1518.000000	0.854134
1516.000000	0.855118
1514.000000	0.856064
1512.000000	0.855921
1510.000000	0.854202
1508.000000	0.849563
1506.000000	0.848799
1504.000000	0.854117
1502.000000	0.856872
1500.000000	0.855977
1498.000000	0.854146
1496.000000	0.854188
1494.000000	0.856379
1492.000000	0.856206
1490.000000	0.854971
1488.000000	0.855492
1486.000000	0.856778
1484.000000	0.857666
1482.000000	0.857605
1480.000000	0.857489
1478.000000	0.856699
1476.000000	0.855081
1474.000000	0.853008
1472.000000	0.853230
1470.000000	0.856039
1468.000000	0.856950
1466.000000	0.855659
1464.000000	0.855707
1462.000000	0.856693
1460.000000	0.854684
1458.000000	0.850276
1456.000000	0.850824
1454.000000	0.855254
1452.000000	0.856823
1450.000000	0.856724
1448.000000	0.856341
1446.000000	0.856728
1444.000000	0.857096
1442.000000	0.857221
1440.000000	0.856412
1438.000000	0.853870
1436.000000	0.853402
1434.000000	0.855726
1432.000000	0.856174
1430.000000	0.855965
1428.000000	0.856321
1426.000000	0.856405
1424.000000	0.855993
1422.000000	0.855057
1420.000000	0.852830
1418.000000	0.853553
1416.000000	0.855781
1414.000000	0.856505
1412.000000	0.856414
1410.000000	0.856431
1408.000000	0.856263
1406.000000	0.855783
1404.000000	0.855753
1402.000000	0.855816
1400.000000	0.854938
1398.000000	0.854617
1396.000000	0.854207
1394.000000	0.854278
1392.000000	0.855323
1390.000000	0.855253
1388.000000	0.854373
1386.000000	0.854809
1384.000000	0.855601
1382.000000	0.855674
1380.000000	0.855584
1378.000000	0.855430
1376.000000	0.854854
1374.000000	0.854478
1372.000000	0.854954
1370.000000	0.855227
1368.000000	0.855172
1366.000000	0.854978
1364.000000	0.854288
1362.000000	0.854057
1360.000000	0.854526
1358.000000	0.854854
1356.000000	0.854848
1354.000000	0.854787
1352.000000	0.854795
1350.000000	0.854796
1348.000000	0.854807
1346.000000	0.854848
1344.000000	0.854809
1342.000000	0.854479
1340.000000	0.853986
1338.000000	0.854038
1336.000000	0.854378
1334.000000	0.854590
1332.000000	0.854617
1330.000000	0.854620
1328.000000	0.854621
1326.000000	0.854613
1324.000000	0.854562
1322.000000	0.854497
1320.000000	0.854345
1318.000000	0.854356
1316.000000	0.854445
1314.000000	0.854470
1312.000000	0.854457
1310.000000	0.854471
1308.000000	0.854447
1306.000000	0.854477
1304.000000	0.854504
1302.000000	0.854507
1300.000000	0.854459
1298.000000	0.854480
1296.000000	0.854403
1294.000000	0.854305
1292.000000	0.854316
1290.000000	0.854363
1288.000000	0.854375
1286.000000	0.854406
1284.000000	0.854458
1282.000000	0.854457
1280.000000	0.854350
1278.000000	0.854331
1276.000000	0.854501
1274.000000	0.854705
1272.000000	0.854917
1270.000000	0.855401
1268.000000	0.856071
1266.000000	0.856976
1264.000000	0.858177
1262.000000	0.859200
1260.000000	0.859494
1258.000000	0.859112
1256.000000	0.858356
1254.000000	0.857573
1252.000000	0.856808
1250.000000	0.856279
1248.000000	0.856056
1246.000000	0.855992
1244.000000	0.855881
1242.000000	0.855845
1240.000000	0.855894
1238.000000	0.855919
1236.000000	0.855897
1234.000000	0.855928
1232.000000	0.855963
1230.000000	0.856054
1228.000000	0.856168
1226.000000	0.856171
1224.000000	0.856113
1222.000000	0.856161
1220.000000	0.856162
1218.000000	0.856126
1216.000000	0.856132
1214.000000	0.856118
1212.000000	0.856152
1210.000000	0.856243
1208.000000	0.856274
1206.000000	0.856435
1204.000000	0.856551
1202.000000	0.856626
1200.000000	0.856631
1198.000000	0.856643
1196.000000	0.856726
1194.000000	0.856949
1192.000000	0.857156
1190.000000	0.857196
1188.000000	0.857278
1186.000000	0.857546
1184.000000	0.857750
1182.000000	0.857847
1180.000000	0.857985
1178.000000	0.858134
1176.000000	0.858283
1174.000000	0.858513
1172.000000	0.858674
1170.000000	0.858871
1168.000000	0.858995
1166.000000	0.859073
1164.000000	0.859182
1162.000000	0.859315
1160.000000	0.859439
1158.000000	0.859505
1156.000000	0.859555
1154.000000	0.859845
1152.000000	0.860019
1150.000000	0.860010
1148.000000	0.860110
1146.000000	0.860242
1144.000000	0.860084
1142.000000	0.860020
1140.000000	0.860072
1138.000000	0.860165
1136.000000	0.860274
1134.000000	0.860259
1132.000000	0.860078
1130.000000	0.860051
1128.000000	0.860173
1126.000000	0.860234
1124.000000	0.860297
1122.000000	0.860389
1120.000000	0.860524
1118.000000	0.860676
1116.000000	0.860868
1114.000000	0.861057
1112.000000	0.861175
1110.000000	0.861289
1108.000000	0.861408
1106.000000	0.861707
1104.000000	0.862153
1102.000000	0.862451
1100.000000	0.862596
1098.000000	0.862673
1096.000000	0.862681
1094.000000	0.862640
1092.000000	0.862488
1090.000000	0.862303
1088.000000	0.862054
1086.000000	0.861845
1084.000000	0.861616
1082.000000	0.861489
1080.000000	0.861189
1078.000000	0.860993
1076.000000	0.860635
1074.000000	0.860446
1072.000000	0.860362
1070.000000	0.860119
1068.000000	0.859617
1066.000000	0.859098
1064.000000	0.858748
1062.000000	0.858508
1060.000000	0.858164
1058.000000	0.857622
1056.000000	0.857185
1054.000000	0.856825
1052.000000	0.856186
1050.000000	0.855899
1048.000000	0.855934
1046.000000	0.855763
1044.000000	0.855203
1042.000000	0.854740
1040.000000	0.854314
1038.000000	0.854212
1036.000000	0.853988
1034.000000	0.853539
1032.000000	0.853328
1030.000000	0.853119
1028.000000	0.852450
1026.000000	0.851993
1024.000000	0.852069
1022.000000	0.852124
1020.000000	0.851676
1018.000000	0.851088
1016.000000	0.850479
1014.000000	0.849723
1012.000000	0.848772
1010.000000	0.848146
1008.000000	0.847487
1006.000000	0.846449
1004.000000	0.845208
1002.000000	0.844277
1000.000000	0.843887
