PE IR       SUBTECH     SPECTRUM    ASCII       PEDS        4.00        
   -1
TE110A_003_80K.ASC
20/05/14
11:03:10.00
20/05/14
11:03:10.00
Administrator
AK004, Thursday, May 14 2020, 002.
1000.000000
#HDR
-1
-1
#GR
cm-1
A
1.0
0.0
6000.000000
-2.000000
2501
8
0.845425
0.815339
#DATA
6000.000000	0.820788
5998.000000	0.820680
5996.000000	0.820853
5994.000000	0.820951
5992.000000	0.820966
5990.000000	0.821057
5988.000000	0.821257
5986.000000	0.821317
5984.000000	0.821191
5982.000000	0.820961
5980.000000	0.820846
5978.000000	0.820970
5976.000000	0.821076
5974.000000	0.821042
5972.000000	0.820829
5970.000000	0.820770
5968.000000	0.821058
5966.000000	0.821335
5964.000000	0.821459
5962.000000	0.821482
5960.000000	0.821504
5958.000000	0.821463
5956.000000	0.821254
5954.000000	0.821057
5952.000000	0.820972
5950.000000	0.820886
5948.000000	0.820694
5946.000000	0.820712
5944.000000	0.820883
5942.000000	0.821202
5940.000000	0.821315
5938.000000	0.821174
5936.000000	0.820969
5934.000000	0.820980
5932.000000	0.821145
5930.000000	0.821389
5928.000000	0.821432
5926.000000	0.821324
5924.000000	0.821213
5922.000000	0.821149
5920.000000	0.821129
5918.000000	0.821109
5916.000000	0.821197
5914.000000	0.821266
5912.000000	0.821312
5910.000000	0.821273
5908.000000	0.821263
5906.000000	0.821400
5904.000000	0.821502
5902.000000	0.821612
5900.000000	0.821595
5898.000000	0.821514
5896.000000	0.821366
5894.000000	0.821160
5892.000000	0.821000
5890.000000	0.821009
5888.000000	0.821234
5886.000000	0.821407
5884.000000	0.821517
5882.000000	0.821603
5880.000000	0.821656
5878.000000	0.821560
5876.000000	0.821384
5874.000000	0.821340
5872.000000	0.821419
5870.000000	0.821462
5868.000000	0.821338
5866.000000	0.821259
5864.000000	0.821304
5862.000000	0.821372
5860.000000	0.821350
5858.000000	0.821221
5856.000000	0.821138
5854.000000	0.821226
5852.000000	0.821390
5850.000000	0.821482
5848.000000	0.821490
5846.000000	0.821458
5844.000000	0.821454
5842.000000	0.821362
5840.000000	0.821343
5838.000000	0.821342
5836.000000	0.821476
5834.000000	0.821633
5832.000000	0.821591
5830.000000	0.821609
5828.000000	0.821645
5826.000000	0.821759
5824.000000	0.821729
5822.000000	0.821607
5820.000000	0.821570
5818.000000	0.821678
5816.000000	0.821858
5814.000000	0.821836
5812.000000	0.821775
5810.000000	0.821744
5808.000000	0.821838
5806.000000	0.821947
5804.000000	0.821893
5802.000000	0.821836
5800.000000	0.821819
5798.000000	0.821809
5796.000000	0.821665
5794.000000	0.821614
5792.000000	0.821667
5790.000000	0.821774
5788.000000	0.821846
5786.000000	0.821832
5784.000000	0.821810
5782.000000	0.821756
5780.000000	0.821675
5778.000000	0.821719
5776.000000	0.821783
5774.000000	0.821824
5772.000000	0.821851
5770.000000	0.821810
5768.000000	0.821757
5766.000000	0.821748
5764.000000	0.821766
5762.000000	0.821854
5760.000000	0.821948
5758.000000	0.821962
5756.000000	0.821922
5754.000000	0.821819
5752.000000	0.821722
5750.000000	0.821713
5748.000000	0.821684
5746.000000	0.821699
5744.000000	0.821808
5742.000000	0.821855
5740.000000	0.821740
5738.000000	0.821667
5736.000000	0.821730
5734.000000	0.821790
5732.000000	0.821713
5730.000000	0.821606
5728.000000	0.821660
5726.000000	0.821824
5724.000000	0.821909
5722.000000	0.821951
5720.000000	0.821918
5718.000000	0.821826
5716.000000	0.821811
5714.000000	0.821896
5712.000000	0.822019
5710.000000	0.822124
5708.000000	0.822198
5706.000000	0.822211
5704.000000	0.822172
5702.000000	0.822147
5700.000000	0.822191
5698.000000	0.822220
5696.000000	0.822087
5694.000000	0.821884
5692.000000	0.821932
5690.000000	0.822066
5688.000000	0.822189
5686.000000	0.822176
5684.000000	0.822141
5682.000000	0.822250
5680.000000	0.822307
5678.000000	0.822196
5676.000000	0.821989
5674.000000	0.821853
5672.000000	0.821885
5670.000000	0.822026
5668.000000	0.822086
5666.000000	0.822108
5664.000000	0.822124
5662.000000	0.822077
5660.000000	0.821889
5658.000000	0.821767
5656.000000	0.821710
5654.000000	0.821739
5652.000000	0.821768
5650.000000	0.821871
5648.000000	0.822001
5646.000000	0.821984
5644.000000	0.821885
5642.000000	0.821842
5640.000000	0.821936
5638.000000	0.822052
5636.000000	0.822167
5634.000000	0.822167
5632.000000	0.822118
5630.000000	0.821994
5628.000000	0.821930
5626.000000	0.821986
5624.000000	0.822070
5622.000000	0.822086
5620.000000	0.822040
5618.000000	0.822056
5616.000000	0.822126
5614.000000	0.822165
5612.000000	0.822170
5610.000000	0.822253
5608.000000	0.822248
5606.000000	0.822184
5604.000000	0.822137
5602.000000	0.822156
5600.000000	0.822274
5598.000000	0.822246
5596.000000	0.822084
5594.000000	0.822012
5592.000000	0.822048
5590.000000	0.822176
5588.000000	0.822193
5586.000000	0.822106
5584.000000	0.822017
5582.000000	0.822014
5580.000000	0.822059
5578.000000	0.822109
5576.000000	0.822164
5574.000000	0.822222
5572.000000	0.822278
5570.000000	0.822206
5568.000000	0.822085
5566.000000	0.821989
5564.000000	0.821983
5562.000000	0.821972
5560.000000	0.821930
5558.000000	0.821928
5556.000000	0.821963
5554.000000	0.822080
5552.000000	0.822108
5550.000000	0.822092
5548.000000	0.822098
5546.000000	0.822126
5544.000000	0.822116
5542.000000	0.822053
5540.000000	0.821988
5538.000000	0.821981
5536.000000	0.821940
5534.000000	0.821922
5532.000000	0.821944
5530.000000	0.821942
5528.000000	0.821960
5526.000000	0.822055
5524.000000	0.822203
5522.000000	0.822248
5520.000000	0.822140
5518.000000	0.822034
5516.000000	0.822006
5514.000000	0.821992
5512.000000	0.822050
5510.000000	0.822082
5508.000000	0.822049
5506.000000	0.821969
5504.000000	0.821978
5502.000000	0.822085
5500.000000	0.822061
5498.000000	0.821977
5496.000000	0.821858
5494.000000	0.821781
5492.000000	0.821848
5490.000000	0.822005
5488.000000	0.822112
5486.000000	0.822052
5484.000000	0.822074
5482.000000	0.822216
5480.000000	0.822186
5478.000000	0.822020
5476.000000	0.821957
5474.000000	0.822064
5472.000000	0.822146
5470.000000	0.822104
5468.000000	0.822103
5466.000000	0.822102
5464.000000	0.821965
5462.000000	0.821806
5460.000000	0.821739
5458.000000	0.821809
5456.000000	0.821906
5454.000000	0.821865
5452.000000	0.821759
5450.000000	0.821639
5448.000000	0.821615
5446.000000	0.821595
5444.000000	0.821555
5442.000000	0.821632
5440.000000	0.821699
5438.000000	0.821690
5436.000000	0.821653
5434.000000	0.821616
5432.000000	0.821614
5430.000000	0.821637
5428.000000	0.821706
5426.000000	0.821817
5424.000000	0.821871
5422.000000	0.821976
5420.000000	0.822071
5418.000000	0.822037
5416.000000	0.821848
5414.000000	0.821649
5412.000000	0.821572
5410.000000	0.821707
5408.000000	0.821907
5406.000000	0.821973
5404.000000	0.821958
5402.000000	0.821951
5400.000000	0.821964
5398.000000	0.821843
5396.000000	0.821641
5394.000000	0.821622
5392.000000	0.821728
5390.000000	0.821807
5388.000000	0.821792
5386.000000	0.821751
5384.000000	0.821767
5382.000000	0.821759
5380.000000	0.821720
5378.000000	0.821708
5376.000000	0.821733
5374.000000	0.821771
5372.000000	0.821800
5370.000000	0.821812
5368.000000	0.821837
5366.000000	0.821857
5364.000000	0.821905
5362.000000	0.821918
5360.000000	0.821861
5358.000000	0.821644
5356.000000	0.821367
5354.000000	0.821324
5352.000000	0.821492
5350.000000	0.821625
5348.000000	0.821574
5346.000000	0.821536
5344.000000	0.821535
5342.000000	0.821468
5340.000000	0.821398
5338.000000	0.821445
5336.000000	0.821611
5334.000000	0.821725
5332.000000	0.821727
5330.000000	0.821637
5328.000000	0.821608
5326.000000	0.821708
5324.000000	0.821867
5322.000000	0.821986
5320.000000	0.821979
5318.000000	0.821920
5316.000000	0.821916
5314.000000	0.821947
5312.000000	0.821900
5310.000000	0.821733
5308.000000	0.821664
5306.000000	0.821755
5304.000000	0.821897
5302.000000	0.821886
5300.000000	0.821807
5298.000000	0.821756
5296.000000	0.821799
5294.000000	0.821763
5292.000000	0.821666
5290.000000	0.821554
5288.000000	0.821578
5286.000000	0.821665
5284.000000	0.821729
5282.000000	0.821738
5280.000000	0.821767
5278.000000	0.821756
5276.000000	0.821707
5274.000000	0.821682
5272.000000	0.821736
5270.000000	0.821706
5268.000000	0.821496
5266.000000	0.821239
5264.000000	0.821191
5262.000000	0.821381
5260.000000	0.821567
5258.000000	0.821568
5256.000000	0.821561
5254.000000	0.821638
5252.000000	0.821612
5250.000000	0.821413
5248.000000	0.821283
5246.000000	0.821390
5244.000000	0.821608
5242.000000	0.821707
5240.000000	0.821737
5238.000000	0.821754
5236.000000	0.821797
5234.000000	0.821778
5232.000000	0.821737
5230.000000	0.821674
5228.000000	0.821576
5226.000000	0.821508
5224.000000	0.821512
5222.000000	0.821523
5220.000000	0.821497
5218.000000	0.821502
5216.000000	0.821623
5214.000000	0.821661
5212.000000	0.821548
5210.000000	0.821362
5208.000000	0.821279
5206.000000	0.821372
5204.000000	0.821547
5202.000000	0.821644
5200.000000	0.821568
5198.000000	0.821479
5196.000000	0.821522
5194.000000	0.821597
5192.000000	0.821597
5190.000000	0.821533
5188.000000	0.821521
5186.000000	0.821588
5184.000000	0.821623
5182.000000	0.821612
5180.000000	0.821531
5178.000000	0.821521
5176.000000	0.821591
5174.000000	0.821618
5172.000000	0.821569
5170.000000	0.821553
5168.000000	0.821637
5166.000000	0.821626
5164.000000	0.821516
5162.000000	0.821423
5160.000000	0.821435
5158.000000	0.821466
5156.000000	0.821473
5154.000000	0.821458
5152.000000	0.821519
5150.000000	0.821613
5148.000000	0.821647
5146.000000	0.821620
5144.000000	0.821596
5142.000000	0.821613
5140.000000	0.821644
5138.000000	0.821663
5136.000000	0.821633
5134.000000	0.821578
5132.000000	0.821567
5130.000000	0.821598
5128.000000	0.821615
5126.000000	0.821602
5124.000000	0.821649
5122.000000	0.821734
5120.000000	0.821802
5118.000000	0.821819
5116.000000	0.821802
5114.000000	0.821714
5112.000000	0.821603
5110.000000	0.821584
5108.000000	0.821632
5106.000000	0.821656
5104.000000	0.821601
5102.000000	0.821603
5100.000000	0.821675
5098.000000	0.821687
5096.000000	0.821657
5094.000000	0.821619
5092.000000	0.821618
5090.000000	0.821596
5088.000000	0.821564
5086.000000	0.821602
5084.000000	0.821678
5082.000000	0.821740
5080.000000	0.821712
5078.000000	0.821595
5076.000000	0.821432
5074.000000	0.821289
5072.000000	0.821280
5070.000000	0.821356
5068.000000	0.821441
5066.000000	0.821489
5064.000000	0.821522
5062.000000	0.821570
5060.000000	0.821578
5058.000000	0.821562
5056.000000	0.821567
5054.000000	0.821556
5052.000000	0.821498
5050.000000	0.821497
5048.000000	0.821586
5046.000000	0.821662
5044.000000	0.821709
5042.000000	0.821733
5040.000000	0.821679
5038.000000	0.821607
5036.000000	0.821616
5034.000000	0.821653
5032.000000	0.821696
5030.000000	0.821718
5028.000000	0.821696
5026.000000	0.821618
5024.000000	0.821581
5022.000000	0.821601
5020.000000	0.821635
5018.000000	0.821657
5016.000000	0.821653
5014.000000	0.821676
5012.000000	0.821712
5010.000000	0.821697
5008.000000	0.821664
5006.000000	0.821648
5004.000000	0.821576
5002.000000	0.821527
5000.000000	0.821559
4998.000000	0.821624
4996.000000	0.821611
4994.000000	0.821609
4992.000000	0.821641
4990.000000	0.821673
4988.000000	0.821683
4986.000000	0.821643
4984.000000	0.821572
4982.000000	0.821472
4980.000000	0.821395
4978.000000	0.821389
4976.000000	0.821446
4974.000000	0.821568
4972.000000	0.821597
4970.000000	0.821535
4968.000000	0.821499
4966.000000	0.821564
4964.000000	0.821535
4962.000000	0.821385
4960.000000	0.821360
4958.000000	0.821446
4956.000000	0.821548
4954.000000	0.821604
4952.000000	0.821609
4950.000000	0.821594
4948.000000	0.821664
4946.000000	0.821790
4944.000000	0.821750
4942.000000	0.821628
4940.000000	0.821583
4938.000000	0.821645
4936.000000	0.821682
4934.000000	0.821667
4932.000000	0.821603
4930.000000	0.821592
4928.000000	0.821665
4926.000000	0.821760
4924.000000	0.821771
4922.000000	0.821740
4920.000000	0.821702
4918.000000	0.821648
4916.000000	0.821582
4914.000000	0.821575
4912.000000	0.821615
4910.000000	0.821640
4908.000000	0.821593
4906.000000	0.821579
4904.000000	0.821655
4902.000000	0.821756
4900.000000	0.821725
4898.000000	0.821630
4896.000000	0.821566
4894.000000	0.821531
4892.000000	0.821515
4890.000000	0.821569
4888.000000	0.821659
4886.000000	0.821683
4884.000000	0.821622
4882.000000	0.821523
4880.000000	0.821461
4878.000000	0.821436
4876.000000	0.821418
4874.000000	0.821429
4872.000000	0.821484
4870.000000	0.821515
4868.000000	0.821494
4866.000000	0.821466
4864.000000	0.821487
4862.000000	0.821493
4860.000000	0.821471
4858.000000	0.821482
4856.000000	0.821562
4854.000000	0.821617
4852.000000	0.821632
4850.000000	0.821611
4848.000000	0.821505
4846.000000	0.821408
4844.000000	0.821476
4842.000000	0.821602
4840.000000	0.821615
4838.000000	0.821589
4836.000000	0.821609
4834.000000	0.821627
4832.000000	0.821643
4830.000000	0.821647
4828.000000	0.821623
4826.000000	0.821577
4824.000000	0.821591
4822.000000	0.821607
4820.000000	0.821585
4818.000000	0.821573
4816.000000	0.821621
4814.000000	0.821631
4812.000000	0.821561
4810.000000	0.821479
4808.000000	0.821433
4806.000000	0.821434
4804.000000	0.821495
4802.000000	0.821533
4800.000000	0.821500
4798.000000	0.821487
4796.000000	0.821484
4794.000000	0.821434
4792.000000	0.821375
4790.000000	0.821388
4788.000000	0.821417
4786.000000	0.821397
4784.000000	0.821363
4782.000000	0.821328
4780.000000	0.821309
4778.000000	0.821300
4776.000000	0.821359
4774.000000	0.821394
4772.000000	0.821371
4770.000000	0.821345
4768.000000	0.821413
4766.000000	0.821508
4764.000000	0.821547
4762.000000	0.821515
4760.000000	0.821488
4758.000000	0.821498
4756.000000	0.821540
4754.000000	0.821582
4752.000000	0.821604
4750.000000	0.821615
4748.000000	0.821621
4746.000000	0.821595
4744.000000	0.821541
4742.000000	0.821521
4740.000000	0.821571
4738.000000	0.821630
4736.000000	0.821629
4734.000000	0.821584
4732.000000	0.821553
4730.000000	0.821514
4728.000000	0.821456
4726.000000	0.821406
4724.000000	0.821433
4722.000000	0.821463
4720.000000	0.821456
4718.000000	0.821478
4716.000000	0.821509
4714.000000	0.821475
4712.000000	0.821462
4710.000000	0.821492
4708.000000	0.821467
4706.000000	0.821427
4704.000000	0.821467
4702.000000	0.821517
4700.000000	0.821509
4698.000000	0.821491
4696.000000	0.821499
4694.000000	0.821482
4692.000000	0.821484
4690.000000	0.821496
4688.000000	0.821457
4686.000000	0.821410
4684.000000	0.821415
4682.000000	0.821383
4680.000000	0.821327
4678.000000	0.821326
4676.000000	0.821362
4674.000000	0.821346
4672.000000	0.821314
4670.000000	0.821350
4668.000000	0.821411
4666.000000	0.821424
4664.000000	0.821449
4662.000000	0.821507
4660.000000	0.821532
4658.000000	0.821526
4656.000000	0.821493
4654.000000	0.821463
4652.000000	0.821492
4650.000000	0.821532
4648.000000	0.821501
4646.000000	0.821481
4644.000000	0.821526
4642.000000	0.821552
4640.000000	0.821531
4638.000000	0.821501
4636.000000	0.821469
4634.000000	0.821475
4632.000000	0.821566
4630.000000	0.821653
4628.000000	0.821645
4626.000000	0.821594
4624.000000	0.821565
4622.000000	0.821550
4620.000000	0.821531
4618.000000	0.821500
4616.000000	0.821485
4614.000000	0.821483
4612.000000	0.821484
4610.000000	0.821450
4608.000000	0.821394
4606.000000	0.821413
4604.000000	0.821540
4602.000000	0.821588
4600.000000	0.821537
4598.000000	0.821499
4596.000000	0.821476
4594.000000	0.821442
4592.000000	0.821458
4590.000000	0.821462
4588.000000	0.821445
4586.000000	0.821439
4584.000000	0.821453
4582.000000	0.821446
4580.000000	0.821464
4578.000000	0.821479
4576.000000	0.821458
4574.000000	0.821460
4572.000000	0.821511
4570.000000	0.821527
4568.000000	0.821538
4566.000000	0.821569
4564.000000	0.821557
4562.000000	0.821532
4560.000000	0.821590
4558.000000	0.821666
4556.000000	0.821659
4554.000000	0.821598
4552.000000	0.821593
4550.000000	0.821645
4548.000000	0.821673
4546.000000	0.821668
4544.000000	0.821661
4542.000000	0.821632
4540.000000	0.821610
4538.000000	0.821659
4536.000000	0.821693
4534.000000	0.821619
4532.000000	0.821546
4530.000000	0.821566
4528.000000	0.821630
4526.000000	0.821659
4524.000000	0.821670
4522.000000	0.821648
4520.000000	0.821576
4518.000000	0.821553
4516.000000	0.821661
4514.000000	0.821732
4512.000000	0.821710
4510.000000	0.821710
4508.000000	0.821751
4506.000000	0.821715
4504.000000	0.821634
4502.000000	0.821604
4500.000000	0.821648
4498.000000	0.821686
4496.000000	0.821681
4494.000000	0.821674
4492.000000	0.821689
4490.000000	0.821691
4488.000000	0.821665
4486.000000	0.821637
4484.000000	0.821627
4482.000000	0.821630
4480.000000	0.821658
4478.000000	0.821701
4476.000000	0.821761
4474.000000	0.821822
4472.000000	0.821831
4470.000000	0.821764
4468.000000	0.821730
4466.000000	0.821777
4464.000000	0.821838
4462.000000	0.821845
4460.000000	0.821824
4458.000000	0.821816
4456.000000	0.821812
4454.000000	0.821822
4452.000000	0.821855
4450.000000	0.821882
4448.000000	0.821892
4446.000000	0.821895
4444.000000	0.821870
4442.000000	0.821868
4440.000000	0.821907
4438.000000	0.821931
4436.000000	0.821896
4434.000000	0.821876
4432.000000	0.821926
4430.000000	0.821971
4428.000000	0.821941
4426.000000	0.821885
4424.000000	0.821871
4422.000000	0.821868
4420.000000	0.821863
4418.000000	0.821868
4416.000000	0.821886
4414.000000	0.821901
4412.000000	0.821933
4410.000000	0.821968
4408.000000	0.821953
4406.000000	0.821904
4404.000000	0.821870
4402.000000	0.821865
4400.000000	0.821864
4398.000000	0.821863
4396.000000	0.821853
4394.000000	0.821857
4392.000000	0.821888
4390.000000	0.821893
4388.000000	0.821842
4386.000000	0.821830
4384.000000	0.821894
4382.000000	0.821969
4380.000000	0.822012
4378.000000	0.822035
4376.000000	0.822027
4374.000000	0.821999
4372.000000	0.822020
4370.000000	0.822088
4368.000000	0.822118
4366.000000	0.822100
4364.000000	0.822095
4362.000000	0.822122
4360.000000	0.822124
4358.000000	0.822078
4356.000000	0.822029
4354.000000	0.822008
4352.000000	0.822051
4350.000000	0.822119
4348.000000	0.822133
4346.000000	0.822109
4344.000000	0.822113
4342.000000	0.822168
4340.000000	0.822195
4338.000000	0.822156
4336.000000	0.822135
4334.000000	0.822165
4332.000000	0.822175
4330.000000	0.822149
4328.000000	0.822123
4326.000000	0.822114
4324.000000	0.822105
4322.000000	0.822130
4320.000000	0.822173
4318.000000	0.822184
4316.000000	0.822171
4314.000000	0.822193
4312.000000	0.822229
4310.000000	0.822220
4308.000000	0.822153
4306.000000	0.822112
4304.000000	0.822127
4302.000000	0.822173
4300.000000	0.822168
4298.000000	0.822108
4296.000000	0.822123
4294.000000	0.822226
4292.000000	0.822230
4290.000000	0.822138
4288.000000	0.822112
4286.000000	0.822166
4284.000000	0.822192
4282.000000	0.822199
4280.000000	0.822232
4278.000000	0.822270
4276.000000	0.822259
4274.000000	0.822237
4272.000000	0.822242
4270.000000	0.822273
4268.000000	0.822321
4266.000000	0.822344
4264.000000	0.822310
4262.000000	0.822280
4260.000000	0.822267
4258.000000	0.822265
4256.000000	0.822295
4254.000000	0.822338
4252.000000	0.822337
4250.000000	0.822315
4248.000000	0.822327
4246.000000	0.822364
4244.000000	0.822352
4242.000000	0.822297
4240.000000	0.822277
4238.000000	0.822315
4236.000000	0.822328
4234.000000	0.822333
4232.000000	0.822361
4230.000000	0.822380
4228.000000	0.822386
4226.000000	0.822368
4224.000000	0.822326
4222.000000	0.822334
4220.000000	0.822347
4218.000000	0.822299
4216.000000	0.822255
4214.000000	0.822280
4212.000000	0.822297
4210.000000	0.822267
4208.000000	0.822260
4206.000000	0.822287
4204.000000	0.822274
4202.000000	0.822256
4200.000000	0.822285
4198.000000	0.822331
4196.000000	0.822319
4194.000000	0.822289
4192.000000	0.822308
4190.000000	0.822353
4188.000000	0.822343
4186.000000	0.822309
4184.000000	0.822321
4182.000000	0.822367
4180.000000	0.822406
4178.000000	0.822433
4176.000000	0.822427
4174.000000	0.822422
4172.000000	0.822459
4170.000000	0.822505
4168.000000	0.822526
4166.000000	0.822518
4164.000000	0.822486
4162.000000	0.822457
4160.000000	0.822442
4158.000000	0.822428
4156.000000	0.822414
4154.000000	0.822442
4152.000000	0.822513
4150.000000	0.822543
4148.000000	0.822487
4146.000000	0.822433
4144.000000	0.822429
4142.000000	0.822429
4140.000000	0.822417
4138.000000	0.822413
4136.000000	0.822394
4134.000000	0.822362
4132.000000	0.822365
4130.000000	0.822381
4128.000000	0.822372
4126.000000	0.822381
4124.000000	0.822404
4122.000000	0.822396
4120.000000	0.822380
4118.000000	0.822378
4116.000000	0.822361
4114.000000	0.822331
4112.000000	0.822312
4110.000000	0.822275
4108.000000	0.822228
4106.000000	0.822224
4104.000000	0.822231
4102.000000	0.822246
4100.000000	0.822289
4098.000000	0.822310
4096.000000	0.822281
4094.000000	0.822269
4092.000000	0.822292
4090.000000	0.822337
4088.000000	0.822382
4086.000000	0.822354
4084.000000	0.822275
4082.000000	0.822296
4080.000000	0.822385
4078.000000	0.822415
4076.000000	0.822366
4074.000000	0.822338
4072.000000	0.822396
4070.000000	0.822438
4068.000000	0.822411
4066.000000	0.822383
4064.000000	0.822354
4062.000000	0.822310
4060.000000	0.822294
4058.000000	0.822320
4056.000000	0.822332
4054.000000	0.822310
4052.000000	0.822303
4050.000000	0.822309
4048.000000	0.822304
4046.000000	0.822302
4044.000000	0.822320
4042.000000	0.822319
4040.000000	0.822279
4038.000000	0.822272
4036.000000	0.822306
4034.000000	0.822285
4032.000000	0.822246
4030.000000	0.822262
4028.000000	0.822262
4026.000000	0.822223
4024.000000	0.822217
4022.000000	0.822286
4020.000000	0.822356
4018.000000	0.822329
4016.000000	0.822257
4014.000000	0.822232
4012.000000	0.822247
4010.000000	0.822217
4008.000000	0.822141
4006.000000	0.822111
4004.000000	0.822122
4002.000000	0.822148
4000.000000	0.822176
3998.000000	0.822204
3996.000000	0.822234
3994.000000	0.822201
3992.000000	0.822132
3990.000000	0.822119
3988.000000	0.822145
3986.000000	0.822185
3984.000000	0.822194
3982.000000	0.822163
3980.000000	0.822127
3978.000000	0.822070
3976.000000	0.822041
3974.000000	0.822067
3972.000000	0.822087
3970.000000	0.822107
3968.000000	0.822116
3966.000000	0.822072
3964.000000	0.822018
3962.000000	0.822018
3960.000000	0.822051
3958.000000	0.822055
3956.000000	0.822008
3954.000000	0.821921
3952.000000	0.821806
3950.000000	0.821713
3948.000000	0.821717
3946.000000	0.821730
3944.000000	0.821637
3942.000000	0.821637
3940.000000	0.821804
3938.000000	0.821914
3936.000000	0.821801
3934.000000	0.821553
3932.000000	0.821484
3930.000000	0.821610
3928.000000	0.821621
3926.000000	0.821511
3924.000000	0.821470
3922.000000	0.821406
3920.000000	0.821199
3918.000000	0.821147
3916.000000	0.821428
3914.000000	0.821718
3912.000000	0.821786
3910.000000	0.821664
3908.000000	0.821159
3906.000000	0.820264
3904.000000	0.819622
3902.000000	0.819606
3900.000000	0.820082
3898.000000	0.820862
3896.000000	0.821299
3894.000000	0.820911
3892.000000	0.820504
3890.000000	0.820591
3888.000000	0.820297
3886.000000	0.819994
3884.000000	0.820341
3882.000000	0.820549
3880.000000	0.820753
3878.000000	0.821066
3876.000000	0.820857
3874.000000	0.820222
3872.000000	0.819409
3870.000000	0.819234
3868.000000	0.819790
3866.000000	0.819996
3864.000000	0.820148
3862.000000	0.820675
3860.000000	0.820948
3858.000000	0.819740
3856.000000	0.816768
3854.000000	0.815339
3852.000000	0.817578
3850.000000	0.820320
3848.000000	0.821231
3846.000000	0.820946
3844.000000	0.820380
3842.000000	0.819601
3840.000000	0.818459
3838.000000	0.818103
3836.000000	0.819086
3834.000000	0.820030
3832.000000	0.820471
3830.000000	0.820799
3828.000000	0.820885
3826.000000	0.820643
3824.000000	0.819771
3822.000000	0.818981
3820.000000	0.819003
3818.000000	0.818774
3816.000000	0.818967
3814.000000	0.820334
3812.000000	0.821077
3810.000000	0.820388
3808.000000	0.819504
3806.000000	0.819409
3804.000000	0.818927
3802.000000	0.818391
3800.000000	0.819277
3798.000000	0.820269
3796.000000	0.820735
3794.000000	0.821177
3792.000000	0.821347
3790.000000	0.821318
3788.000000	0.821215
3786.000000	0.821064
3784.000000	0.820972
3782.000000	0.820776
3780.000000	0.820629
3778.000000	0.820901
3776.000000	0.821186
3774.000000	0.820984
3772.000000	0.820404
3770.000000	0.820115
3768.000000	0.820235
3766.000000	0.820411
3764.000000	0.820577
3762.000000	0.820346
3760.000000	0.819983
3758.000000	0.820000
3756.000000	0.819453
3754.000000	0.817650
3752.000000	0.816122
3750.000000	0.816407
3748.000000	0.816764
3746.000000	0.815855
3744.000000	0.816526
3742.000000	0.818777
3740.000000	0.819249
3738.000000	0.818119
3736.000000	0.817454
3734.000000	0.817777
3732.000000	0.818661
3730.000000	0.819511
3728.000000	0.819609
3726.000000	0.819457
3724.000000	0.819543
3722.000000	0.819715
3720.000000	0.819966
3718.000000	0.820062
3716.000000	0.819513
3714.000000	0.818312
3712.000000	0.817826
3710.000000	0.819074
3708.000000	0.820772
3706.000000	0.821181
3704.000000	0.820453
3702.000000	0.819968
3700.000000	0.820143
3698.000000	0.820320
3696.000000	0.820222
3694.000000	0.819630
3692.000000	0.818277
3690.000000	0.817071
3688.000000	0.817637
3686.000000	0.819227
3684.000000	0.819878
3682.000000	0.819606
3680.000000	0.818719
3678.000000	0.817046
3676.000000	0.816136
3674.000000	0.816663
3672.000000	0.816712
3670.000000	0.817001
3668.000000	0.818405
3666.000000	0.819365
3664.000000	0.819521
3662.000000	0.819417
3660.000000	0.818949
3658.000000	0.818170
3656.000000	0.817973
3654.000000	0.817830
3652.000000	0.816535
3650.000000	0.815520
3648.000000	0.816374
3646.000000	0.817932
3644.000000	0.818685
3642.000000	0.818758
3640.000000	0.818733
3638.000000	0.818672
3636.000000	0.818461
3634.000000	0.817996
3632.000000	0.816731
3630.000000	0.815395
3628.000000	0.816006
3626.000000	0.817561
3624.000000	0.817991
3622.000000	0.817289
3620.000000	0.816623
3618.000000	0.816843
3616.000000	0.817166
3614.000000	0.817022
3612.000000	0.816766
3610.000000	0.816600
3608.000000	0.816902
3606.000000	0.817507
3604.000000	0.817755
3602.000000	0.817870
3600.000000	0.818158
3598.000000	0.818090
3596.000000	0.817698
3594.000000	0.817526
3592.000000	0.817320
3590.000000	0.816725
3588.000000	0.816426
3586.000000	0.816904
3584.000000	0.817425
3582.000000	0.817552
3580.000000	0.817535
3578.000000	0.817539
3576.000000	0.817545
3574.000000	0.817547
3572.000000	0.817366
3570.000000	0.816768
3568.000000	0.816293
3566.000000	0.816563
3564.000000	0.817083
3562.000000	0.817324
3560.000000	0.817415
3558.000000	0.817500
3556.000000	0.817493
3554.000000	0.817406
3552.000000	0.817411
3550.000000	0.817385
3548.000000	0.817200
3546.000000	0.817156
3544.000000	0.817373
3542.000000	0.817567
3540.000000	0.817602
3538.000000	0.817573
3536.000000	0.817590
3534.000000	0.817673
3532.000000	0.817667
3530.000000	0.817582
3528.000000	0.817554
3526.000000	0.817560
3524.000000	0.817587
3522.000000	0.817715
3520.000000	0.817881
3518.000000	0.817979
3516.000000	0.818061
3514.000000	0.818123
3512.000000	0.818134
3510.000000	0.818202
3508.000000	0.818302
3506.000000	0.818304
3504.000000	0.818300
3502.000000	0.818445
3500.000000	0.818641
3498.000000	0.818769
3496.000000	0.818879
3494.000000	0.819019
3492.000000	0.819149
3490.000000	0.819261
3488.000000	0.819387
3486.000000	0.819528
3484.000000	0.819613
3482.000000	0.819683
3480.000000	0.819864
3478.000000	0.820094
3476.000000	0.820259
3474.000000	0.820423
3472.000000	0.820611
3470.000000	0.820722
3468.000000	0.820842
3466.000000	0.821113
3464.000000	0.821381
3462.000000	0.821567
3460.000000	0.821761
3458.000000	0.821984
3456.000000	0.822246
3454.000000	0.822489
3452.000000	0.822749
3450.000000	0.822991
3448.000000	0.823195
3446.000000	0.823462
3444.000000	0.823785
3442.000000	0.824125
3440.000000	0.824464
3438.000000	0.824756
3436.000000	0.825024
3434.000000	0.825343
3432.000000	0.825659
3430.000000	0.825980
3428.000000	0.826324
3426.000000	0.826629
3424.000000	0.826910
3422.000000	0.827171
3420.000000	0.827435
3418.000000	0.827734
3416.000000	0.828018
3414.000000	0.828250
3412.000000	0.828474
3410.000000	0.828719
3408.000000	0.828965
3406.000000	0.829201
3404.000000	0.829387
3402.000000	0.829525
3400.000000	0.829687
3398.000000	0.829901
3396.000000	0.830085
3394.000000	0.830175
3392.000000	0.830308
3390.000000	0.830538
3388.000000	0.830745
3386.000000	0.830918
3384.000000	0.831090
3382.000000	0.831245
3380.000000	0.831359
3378.000000	0.831453
3376.000000	0.831562
3374.000000	0.831675
3372.000000	0.831748
3370.000000	0.831800
3368.000000	0.831876
3366.000000	0.832013
3364.000000	0.832215
3362.000000	0.832339
3360.000000	0.832366
3358.000000	0.832439
3356.000000	0.832568
3354.000000	0.832657
3352.000000	0.832700
3350.000000	0.832737
3348.000000	0.832824
3346.000000	0.832924
3344.000000	0.832970
3342.000000	0.832990
3340.000000	0.832991
3338.000000	0.832990
3336.000000	0.833057
3334.000000	0.833189
3332.000000	0.833299
3330.000000	0.833363
3328.000000	0.833404
3326.000000	0.833442
3324.000000	0.833518
3322.000000	0.833607
3320.000000	0.833678
3318.000000	0.833746
3316.000000	0.833766
3314.000000	0.833751
3312.000000	0.833798
3310.000000	0.833874
3308.000000	0.833928
3306.000000	0.834011
3304.000000	0.834149
3302.000000	0.834284
3300.000000	0.834359
3298.000000	0.834408
3296.000000	0.834468
3294.000000	0.834549
3292.000000	0.834599
3290.000000	0.834646
3288.000000	0.834746
3286.000000	0.834834
3284.000000	0.834908
3282.000000	0.834963
3280.000000	0.835017
3278.000000	0.835092
3276.000000	0.835121
3274.000000	0.835111
3272.000000	0.835163
3270.000000	0.835294
3268.000000	0.835392
3266.000000	0.835434
3264.000000	0.835492
3262.000000	0.835566
3260.000000	0.835597
3258.000000	0.835616
3256.000000	0.835688
3254.000000	0.835801
3252.000000	0.835860
3250.000000	0.835880
3248.000000	0.835895
3246.000000	0.835950
3244.000000	0.836066
3242.000000	0.836156
3240.000000	0.836212
3238.000000	0.836287
3236.000000	0.836389
3234.000000	0.836460
3232.000000	0.836543
3230.000000	0.836670
3228.000000	0.836785
3226.000000	0.836850
3224.000000	0.836894
3222.000000	0.836940
3220.000000	0.836982
3218.000000	0.837063
3216.000000	0.837103
3214.000000	0.837083
3212.000000	0.837112
3210.000000	0.837169
3208.000000	0.837167
3206.000000	0.837131
3204.000000	0.837098
3202.000000	0.837055
3200.000000	0.837024
3198.000000	0.837021
3196.000000	0.837032
3194.000000	0.837067
3192.000000	0.837078
3190.000000	0.837039
3188.000000	0.837004
3186.000000	0.836992
3184.000000	0.836969
3182.000000	0.836910
3180.000000	0.836892
3178.000000	0.836914
3176.000000	0.836908
3174.000000	0.836867
3172.000000	0.836884
3170.000000	0.836908
3168.000000	0.836843
3166.000000	0.836816
3164.000000	0.836847
3162.000000	0.836864
3160.000000	0.836899
3158.000000	0.836927
3156.000000	0.836896
3154.000000	0.836875
3152.000000	0.836904
3150.000000	0.836976
3148.000000	0.837036
3146.000000	0.837037
3144.000000	0.837009
3142.000000	0.837015
3140.000000	0.837044
3138.000000	0.837045
3136.000000	0.837040
3134.000000	0.837064
3132.000000	0.837109
3130.000000	0.837104
3128.000000	0.837110
3126.000000	0.837173
3124.000000	0.837224
3122.000000	0.837198
3120.000000	0.837123
3118.000000	0.837118
3116.000000	0.837168
3114.000000	0.837221
3112.000000	0.837248
3110.000000	0.837230
3108.000000	0.837227
3106.000000	0.837271
3104.000000	0.837293
3102.000000	0.837238
3100.000000	0.837187
3098.000000	0.837163
3096.000000	0.837144
3094.000000	0.837152
3092.000000	0.837146
3090.000000	0.837092
3088.000000	0.837020
3086.000000	0.836932
3084.000000	0.836830
3082.000000	0.836742
3080.000000	0.836670
3078.000000	0.836630
3076.000000	0.836624
3074.000000	0.836568
3072.000000	0.836473
3070.000000	0.836363
3068.000000	0.836271
3066.000000	0.836202
3064.000000	0.836116
3062.000000	0.836038
3060.000000	0.835982
3058.000000	0.835935
3056.000000	0.835894
3054.000000	0.835844
3052.000000	0.835780
3050.000000	0.835697
3048.000000	0.835601
3046.000000	0.835505
3044.000000	0.835414
3042.000000	0.835347
3040.000000	0.835295
3038.000000	0.835253
3036.000000	0.835182
3034.000000	0.835117
3032.000000	0.835103
3030.000000	0.835049
3028.000000	0.834967
3026.000000	0.834887
3024.000000	0.834846
3022.000000	0.834853
3020.000000	0.834848
3018.000000	0.834812
3016.000000	0.834729
3014.000000	0.834642
3012.000000	0.834614
3010.000000	0.834609
3008.000000	0.834603
3006.000000	0.834548
3004.000000	0.834457
3002.000000	0.834418
3000.000000	0.834379
2998.000000	0.834277
2996.000000	0.834177
2994.000000	0.834126
2992.000000	0.834131
2990.000000	0.834131
2988.000000	0.834073
2986.000000	0.834032
2984.000000	0.834008
2982.000000	0.833966
2980.000000	0.833974
2978.000000	0.834009
2976.000000	0.834007
2974.000000	0.834026
2972.000000	0.834120
2970.000000	0.834231
2968.000000	0.834368
2966.000000	0.834568
2964.000000	0.834748
2962.000000	0.834810
2960.000000	0.834739
2958.000000	0.834548
2956.000000	0.834286
2954.000000	0.834032
2952.000000	0.833808
2950.000000	0.833617
2948.000000	0.833440
2946.000000	0.833293
2944.000000	0.833188
2942.000000	0.833113
2940.000000	0.833071
2938.000000	0.833075
2936.000000	0.833085
2934.000000	0.833048
2932.000000	0.833023
2930.000000	0.833013
2928.000000	0.833054
2926.000000	0.833151
2924.000000	0.833277
2922.000000	0.833366
2920.000000	0.833411
2918.000000	0.833407
2916.000000	0.833376
2914.000000	0.833316
2912.000000	0.833245
2910.000000	0.833172
2908.000000	0.833104
2906.000000	0.833091
2904.000000	0.833068
2902.000000	0.832978
2900.000000	0.832906
2898.000000	0.832876
2896.000000	0.832860
2894.000000	0.832830
2892.000000	0.832797
2890.000000	0.832778
2888.000000	0.832709
2886.000000	0.832641
2884.000000	0.832619
2882.000000	0.832549
2880.000000	0.832470
2878.000000	0.832414
2876.000000	0.832339
2874.000000	0.832255
2872.000000	0.832194
2870.000000	0.832135
2868.000000	0.832089
2866.000000	0.832047
2864.000000	0.832016
2862.000000	0.832037
2860.000000	0.832101
2858.000000	0.832156
2856.000000	0.832176
2854.000000	0.832164
2852.000000	0.832158
2850.000000	0.832211
2848.000000	0.832274
2846.000000	0.832269
2844.000000	0.832230
2842.000000	0.832189
2840.000000	0.832138
2838.000000	0.832127
2836.000000	0.832126
2834.000000	0.832100
2832.000000	0.832062
2830.000000	0.832038
2828.000000	0.832024
2826.000000	0.832025
2824.000000	0.832018
2822.000000	0.831975
2820.000000	0.831922
2818.000000	0.831900
2816.000000	0.831905
2814.000000	0.831910
2812.000000	0.831911
2810.000000	0.831863
2808.000000	0.831836
2806.000000	0.831860
2804.000000	0.831848
2802.000000	0.831806
2800.000000	0.831773
2798.000000	0.831763
2796.000000	0.831744
2794.000000	0.831716
2792.000000	0.831698
2790.000000	0.831713
2788.000000	0.831740
2786.000000	0.831747
2784.000000	0.831732
2782.000000	0.831694
2780.000000	0.831677
2778.000000	0.831679
2776.000000	0.831695
2774.000000	0.831707
2772.000000	0.831714
2770.000000	0.831681
2768.000000	0.831638
2766.000000	0.831642
2764.000000	0.831637
2762.000000	0.831613
2760.000000	0.831634
2758.000000	0.831630
2756.000000	0.831600
2754.000000	0.831591
2752.000000	0.831609
2750.000000	0.831638
2748.000000	0.831664
2746.000000	0.831666
2744.000000	0.831645
2742.000000	0.831669
2740.000000	0.831698
2738.000000	0.831702
2736.000000	0.831733
2734.000000	0.831790
2732.000000	0.831841
2730.000000	0.831846
2728.000000	0.831830
2726.000000	0.831820
2724.000000	0.831824
2722.000000	0.831864
2720.000000	0.831943
2718.000000	0.832009
2716.000000	0.832033
2714.000000	0.832053
2712.000000	0.832098
2710.000000	0.832130
2708.000000	0.832146
2706.000000	0.832186
2704.000000	0.832254
2702.000000	0.832331
2700.000000	0.832368
2698.000000	0.832374
2696.000000	0.832425
2694.000000	0.832512
2692.000000	0.832569
2690.000000	0.832602
2688.000000	0.832623
2686.000000	0.832633
2684.000000	0.832691
2682.000000	0.832759
2680.000000	0.832813
2678.000000	0.832853
2676.000000	0.832891
2674.000000	0.832928
2672.000000	0.832989
2670.000000	0.833026
2668.000000	0.832992
2666.000000	0.832968
2664.000000	0.833004
2662.000000	0.833085
2660.000000	0.833180
2658.000000	0.833253
2656.000000	0.833296
2654.000000	0.833327
2652.000000	0.833351
2650.000000	0.833389
2648.000000	0.833458
2646.000000	0.833517
2644.000000	0.833571
2642.000000	0.833594
2640.000000	0.833613
2638.000000	0.833650
2636.000000	0.833683
2634.000000	0.833701
2632.000000	0.833741
2630.000000	0.833782
2628.000000	0.833811
2626.000000	0.833813
2624.000000	0.833841
2622.000000	0.833897
2620.000000	0.833919
2618.000000	0.833929
2616.000000	0.833953
2614.000000	0.833992
2612.000000	0.834046
2610.000000	0.834077
2608.000000	0.834093
2606.000000	0.834115
2604.000000	0.834144
2602.000000	0.834203
2600.000000	0.834242
2598.000000	0.834229
2596.000000	0.834233
2594.000000	0.834242
2592.000000	0.834288
2590.000000	0.834341
2588.000000	0.834343
2586.000000	0.834354
2584.000000	0.834389
2582.000000	0.834403
2580.000000	0.834453
2578.000000	0.834485
2576.000000	0.834460
2574.000000	0.834451
2572.000000	0.834470
2570.000000	0.834478
2568.000000	0.834492
2566.000000	0.834543
2564.000000	0.834584
2562.000000	0.834585
2560.000000	0.834624
2558.000000	0.834658
2556.000000	0.834658
2554.000000	0.834656
2552.000000	0.834668
2550.000000	0.834668
2548.000000	0.834653
2546.000000	0.834660
2544.000000	0.834660
2542.000000	0.834661
2540.000000	0.834695
2538.000000	0.834705
2536.000000	0.834715
2534.000000	0.834703
2532.000000	0.834687
2530.000000	0.834706
2528.000000	0.834729
2526.000000	0.834731
2524.000000	0.834755
2522.000000	0.834752
2520.000000	0.834744
2518.000000	0.834752
2516.000000	0.834735
2514.000000	0.834731
2512.000000	0.834753
2510.000000	0.834734
2508.000000	0.834718
2506.000000	0.834715
2504.000000	0.834722
2502.000000	0.834734
2500.000000	0.834716
2498.000000	0.834690
2496.000000	0.834679
2494.000000	0.834689
2492.000000	0.834709
2490.000000	0.834705
2488.000000	0.834727
2486.000000	0.834741
2484.000000	0.834703
2482.000000	0.834653
2480.000000	0.834637
2478.000000	0.834631
2476.000000	0.834618
2474.000000	0.834598
2472.000000	0.834624
2470.000000	0.834629
2468.000000	0.834621
2466.000000	0.834644
2464.000000	0.834674
2462.000000	0.834714
2460.000000	0.834767
2458.000000	0.834789
2456.000000	0.834784
2454.000000	0.834786
2452.000000	0.834775
2450.000000	0.834720
2448.000000	0.834673
2446.000000	0.834661
2444.000000	0.834668
2442.000000	0.834637
2440.000000	0.834561
2438.000000	0.834510
2436.000000	0.834488
2434.000000	0.834429
2432.000000	0.834408
2430.000000	0.834404
2428.000000	0.834374
2426.000000	0.834348
2424.000000	0.834344
2422.000000	0.834319
2420.000000	0.834246
2418.000000	0.834183
2416.000000	0.834155
2414.000000	0.834089
2412.000000	0.834017
2410.000000	0.833979
2408.000000	0.833941
2406.000000	0.833886
2404.000000	0.833800
2402.000000	0.833693
2400.000000	0.833581
2398.000000	0.833487
2396.000000	0.833418
2394.000000	0.833343
2392.000000	0.833251
2390.000000	0.833172
2388.000000	0.833115
2386.000000	0.833085
2384.000000	0.833328
2382.000000	0.834261
2380.000000	0.835836
2378.000000	0.837197
2376.000000	0.837847
2374.000000	0.838044
2372.000000	0.838038
2370.000000	0.837862
2368.000000	0.837590
2366.000000	0.837458
2364.000000	0.837582
2362.000000	0.837881
2360.000000	0.838292
2358.000000	0.838781
2356.000000	0.839298
2354.000000	0.839914
2352.000000	0.840602
2350.000000	0.841125
2348.000000	0.841327
2346.000000	0.841357
2344.000000	0.841399
2342.000000	0.841417
2340.000000	0.841299
2338.000000	0.840913
2336.000000	0.840374
2334.000000	0.839896
2332.000000	0.839545
2330.000000	0.839292
2328.000000	0.839157
2326.000000	0.839052
2324.000000	0.838929
2322.000000	0.838820
2320.000000	0.838737
2318.000000	0.838664
2316.000000	0.838630
2314.000000	0.838622
2312.000000	0.838620
2310.000000	0.838605
2308.000000	0.838561
2306.000000	0.838518
2304.000000	0.838460
2302.000000	0.838378
2300.000000	0.838345
2298.000000	0.838368
2296.000000	0.838335
2294.000000	0.838243
2292.000000	0.838198
2290.000000	0.838156
2288.000000	0.838099
2286.000000	0.838113
2284.000000	0.838430
2282.000000	0.838766
2280.000000	0.838675
2278.000000	0.838438
2276.000000	0.838310
2274.000000	0.838219
2272.000000	0.838174
2270.000000	0.838121
2268.000000	0.838071
2266.000000	0.838013
2264.000000	0.837934
2262.000000	0.837880
2260.000000	0.837841
2258.000000	0.837828
2256.000000	0.837837
2254.000000	0.837789
2252.000000	0.837729
2250.000000	0.837695
2248.000000	0.837669
2246.000000	0.837601
2244.000000	0.837571
2242.000000	0.837562
2240.000000	0.837547
2238.000000	0.837482
2236.000000	0.837427
2234.000000	0.837385
2232.000000	0.837342
2230.000000	0.837299
2228.000000	0.837275
2226.000000	0.837238
2224.000000	0.837215
2222.000000	0.837193
2220.000000	0.837133
2218.000000	0.837083
2216.000000	0.837074
2214.000000	0.837065
2212.000000	0.837008
2210.000000	0.836930
2208.000000	0.836902
2206.000000	0.836898
2204.000000	0.836883
2202.000000	0.836856
2200.000000	0.836826
2198.000000	0.836792
2196.000000	0.836754
2194.000000	0.836701
2192.000000	0.836661
2190.000000	0.836604
2188.000000	0.836571
2186.000000	0.836551
2184.000000	0.836547
2182.000000	0.836519
2180.000000	0.836482
2178.000000	0.836432
2176.000000	0.836413
2174.000000	0.836394
2172.000000	0.836338
2170.000000	0.836279
2168.000000	0.836272
2166.000000	0.836245
2164.000000	0.836217
2162.000000	0.836172
2160.000000	0.836118
2158.000000	0.836072
2156.000000	0.836034
2154.000000	0.836017
2152.000000	0.836035
2150.000000	0.836004
2148.000000	0.835933
2146.000000	0.835874
2144.000000	0.835837
2142.000000	0.835769
2140.000000	0.835749
2138.000000	0.835751
2136.000000	0.835723
2134.000000	0.835673
2132.000000	0.835653
2130.000000	0.835642
2128.000000	0.835617
2126.000000	0.835555
2124.000000	0.835479
2122.000000	0.835424
2120.000000	0.835431
2118.000000	0.835430
2116.000000	0.835385
2114.000000	0.835337
2112.000000	0.835311
2110.000000	0.835267
2108.000000	0.835228
2106.000000	0.835211
2104.000000	0.835173
2102.000000	0.835117
2100.000000	0.835104
2098.000000	0.835093
2096.000000	0.835074
2094.000000	0.835032
2092.000000	0.834963
2090.000000	0.834941
2088.000000	0.834971
2086.000000	0.834942
2084.000000	0.834883
2082.000000	0.834831
2080.000000	0.834825
2078.000000	0.834830
2076.000000	0.834800
2074.000000	0.834709
2072.000000	0.834662
2070.000000	0.834652
2068.000000	0.834622
2066.000000	0.834543
2064.000000	0.834505
2062.000000	0.834502
2060.000000	0.834496
2058.000000	0.834465
2056.000000	0.834426
2054.000000	0.834379
2052.000000	0.834356
2050.000000	0.834333
2048.000000	0.834317
2046.000000	0.834277
2044.000000	0.834212
2042.000000	0.834139
2040.000000	0.834106
2038.000000	0.834079
2036.000000	0.834060
2034.000000	0.834029
2032.000000	0.833967
2030.000000	0.833941
2028.000000	0.833927
2026.000000	0.833863
2024.000000	0.833833
2022.000000	0.833770
2020.000000	0.833672
2018.000000	0.833576
2016.000000	0.833573
2014.000000	0.833599
2012.000000	0.833573
2010.000000	0.833508
2008.000000	0.833465
2006.000000	0.833427
2004.000000	0.833437
2002.000000	0.833442
2000.000000	0.833405
1998.000000	0.833358
1996.000000	0.833304
1994.000000	0.833119
1992.000000	0.832981
1990.000000	0.833058
1988.000000	0.833121
1986.000000	0.833104
1984.000000	0.833081
1982.000000	0.833072
1980.000000	0.833054
1978.000000	0.833011
1976.000000	0.832961
1974.000000	0.832925
1972.000000	0.832921
1970.000000	0.832858
1968.000000	0.832762
1966.000000	0.832781
1964.000000	0.832845
1962.000000	0.832830
1960.000000	0.832830
1958.000000	0.832857
1956.000000	0.832820
1954.000000	0.832762
1952.000000	0.832741
1950.000000	0.832736
1948.000000	0.832718
1946.000000	0.832616
1944.000000	0.832401
1942.000000	0.832396
1940.000000	0.832626
1938.000000	0.832695
1936.000000	0.832703
1934.000000	0.832706
1932.000000	0.832732
1930.000000	0.832729
1928.000000	0.832708
1926.000000	0.832622
1924.000000	0.832479
1922.000000	0.832429
1920.000000	0.832241
1918.000000	0.832072
1916.000000	0.832447
1914.000000	0.832672
1912.000000	0.832607
1910.000000	0.832496
1908.000000	0.832547
1906.000000	0.832633
1904.000000	0.832679
1902.000000	0.832680
1900.000000	0.832723
1898.000000	0.832663
1896.000000	0.832561
1894.000000	0.832556
1892.000000	0.832438
1890.000000	0.832219
1888.000000	0.832402
1886.000000	0.832557
1884.000000	0.832558
1882.000000	0.832520
1880.000000	0.832519
1878.000000	0.832504
1876.000000	0.832472
1874.000000	0.832395
1872.000000	0.832092
1870.000000	0.831469
1868.000000	0.831518
1866.000000	0.832039
1864.000000	0.832262
1862.000000	0.832233
1860.000000	0.832234
1858.000000	0.832230
1856.000000	0.832233
1854.000000	0.832209
1852.000000	0.832199
1850.000000	0.832094
1848.000000	0.831782
1846.000000	0.830839
1844.000000	0.830484
1842.000000	0.831481
1840.000000	0.832022
1838.000000	0.831982
1836.000000	0.831989
1834.000000	0.831914
1832.000000	0.831418
1830.000000	0.831043
1828.000000	0.831338
1826.000000	0.831370
1824.000000	0.831647
1822.000000	0.832059
1820.000000	0.832115
1818.000000	0.832066
1816.000000	0.832128
1814.000000	0.832088
1812.000000	0.831869
1810.000000	0.831805
1808.000000	0.831995
1806.000000	0.832067
1804.000000	0.831853
1802.000000	0.831446
1800.000000	0.831455
1798.000000	0.831710
1796.000000	0.831562
1794.000000	0.830579
1792.000000	0.830313
1790.000000	0.831351
1788.000000	0.831897
1786.000000	0.831667
1784.000000	0.831662
1782.000000	0.831690
1780.000000	0.831751
1778.000000	0.831903
1776.000000	0.831444
1774.000000	0.829968
1772.000000	0.829560
1770.000000	0.830636
1768.000000	0.831273
1766.000000	0.831949
1764.000000	0.831716
1762.000000	0.831244
1760.000000	0.831664
1758.000000	0.831706
1756.000000	0.831804
1754.000000	0.831637
1752.000000	0.830507
1750.000000	0.830552
1748.000000	0.831367
1746.000000	0.831845
1744.000000	0.831910
1742.000000	0.831534
1740.000000	0.831212
1738.000000	0.831419
1736.000000	0.829596
1734.000000	0.828279
1732.000000	0.830587
1730.000000	0.832229
1728.000000	0.832804
1726.000000	0.832961
1724.000000	0.832886
1722.000000	0.832610
1720.000000	0.830855
1718.000000	0.828765
1716.000000	0.829771
1714.000000	0.831722
1712.000000	0.832795
1710.000000	0.832903
1708.000000	0.832405
1706.000000	0.831761
1704.000000	0.831520
1702.000000	0.829169
1700.000000	0.827931
1698.000000	0.828884
1696.000000	0.828993
1694.000000	0.831519
1692.000000	0.833167
1690.000000	0.833055
1688.000000	0.832135
1686.000000	0.829154
1684.000000	0.828590
1682.000000	0.831650
1680.000000	0.833153
1678.000000	0.832823
1676.000000	0.831650
1674.000000	0.832101
1672.000000	0.832302
1670.000000	0.831664
1668.000000	0.832604
1666.000000	0.833548
1664.000000	0.833047
1662.000000	0.833124
1660.000000	0.833909
1658.000000	0.833782
1656.000000	0.831031
1654.000000	0.826399
1652.000000	0.827978
1650.000000	0.831952
1648.000000	0.831471
1646.000000	0.831374
1644.000000	0.833314
1642.000000	0.834260
1640.000000	0.833964
1638.000000	0.832289
1636.000000	0.830608
1634.000000	0.832280
1632.000000	0.834148
1630.000000	0.834130
1628.000000	0.833783
1626.000000	0.833503
1624.000000	0.832952
1622.000000	0.833372
1620.000000	0.833399
1618.000000	0.831482
1616.000000	0.831538
1614.000000	0.833690
1612.000000	0.834402
1610.000000	0.834421
1608.000000	0.834480
1606.000000	0.834617
1604.000000	0.834596
1602.000000	0.834629
1600.000000	0.834705
1598.000000	0.834716
1596.000000	0.834650
1594.000000	0.834714
1592.000000	0.834768
1590.000000	0.834740
1588.000000	0.834763
1586.000000	0.834821
1584.000000	0.834853
1582.000000	0.834877
1580.000000	0.834439
1578.000000	0.832334
1576.000000	0.831335
1574.000000	0.833489
1572.000000	0.833867
1570.000000	0.833051
1568.000000	0.833679
1566.000000	0.834231
1564.000000	0.833943
1562.000000	0.831358
1560.000000	0.827089
1558.000000	0.828039
1556.000000	0.831358
1554.000000	0.832824
1552.000000	0.833841
1550.000000	0.834165
1548.000000	0.834215
1546.000000	0.833332
1544.000000	0.831741
1542.000000	0.829343
1540.000000	0.828238
1538.000000	0.831286
1536.000000	0.833466
1534.000000	0.833036
1532.000000	0.833697
1530.000000	0.834182
1528.000000	0.833548
1526.000000	0.832869
1524.000000	0.831965
1522.000000	0.830426
1520.000000	0.831282
1518.000000	0.832521
1516.000000	0.833155
1514.000000	0.833812
1512.000000	0.833679
1510.000000	0.832417
1508.000000	0.829360
1506.000000	0.829148
1504.000000	0.832641
1502.000000	0.834106
1500.000000	0.833281
1498.000000	0.832055
1496.000000	0.832357
1494.000000	0.834004
1492.000000	0.833968
1490.000000	0.833308
1488.000000	0.833705
1486.000000	0.834450
1484.000000	0.834849
1482.000000	0.834709
1480.000000	0.834640
1478.000000	0.834084
1476.000000	0.833024
1474.000000	0.831682
1472.000000	0.831950
1470.000000	0.833767
1468.000000	0.834231
1466.000000	0.833396
1464.000000	0.833468
1462.000000	0.834002
1460.000000	0.832538
1458.000000	0.829707
1456.000000	0.830296
1454.000000	0.833120
1452.000000	0.834119
1450.000000	0.834118
1448.000000	0.833891
1446.000000	0.834195
1444.000000	0.834370
1442.000000	0.834374
1440.000000	0.833801
1438.000000	0.832137
1436.000000	0.831970
1434.000000	0.833460
1432.000000	0.833669
1430.000000	0.833534
1428.000000	0.833750
1426.000000	0.833803
1424.000000	0.833533
1422.000000	0.832856
1420.000000	0.831398
1418.000000	0.831963
1416.000000	0.833350
1414.000000	0.833780
1412.000000	0.833710
1410.000000	0.833650
1408.000000	0.833502
1406.000000	0.833236
1404.000000	0.833292
1402.000000	0.833404
1400.000000	0.832880
1398.000000	0.832663
1396.000000	0.832348
1394.000000	0.832451
1392.000000	0.833117
1390.000000	0.832945
1388.000000	0.832250
1386.000000	0.832548
1384.000000	0.833150
1382.000000	0.833227
1380.000000	0.833057
1378.000000	0.832880
1376.000000	0.832556
1374.000000	0.832340
1372.000000	0.832595
1370.000000	0.832719
1368.000000	0.832720
1366.000000	0.832626
1364.000000	0.832198
1362.000000	0.832119
1360.000000	0.832434
1358.000000	0.832570
1356.000000	0.832584
1354.000000	0.832601
1352.000000	0.832590
1350.000000	0.832545
1348.000000	0.832517
1346.000000	0.832522
1344.000000	0.832470
1342.000000	0.832272
1340.000000	0.832029
1338.000000	0.832115
1336.000000	0.832352
1334.000000	0.832475
1332.000000	0.832460
1330.000000	0.832458
1328.000000	0.832471
1326.000000	0.832484
1324.000000	0.832464
1322.000000	0.832451
1320.000000	0.832402
1318.000000	0.832362
1316.000000	0.832343
1314.000000	0.832370
1312.000000	0.832432
1310.000000	0.832455
1308.000000	0.832439
1306.000000	0.832485
1304.000000	0.832538
1302.000000	0.832547
1300.000000	0.832524
1298.000000	0.832537
1296.000000	0.832538
1294.000000	0.832533
1292.000000	0.832522
1290.000000	0.832563
1288.000000	0.832605
1286.000000	0.832682
1284.000000	0.832752
1282.000000	0.832764
1280.000000	0.832796
1278.000000	0.832956
1276.000000	0.833063
1274.000000	0.833146
1272.000000	0.833341
1270.000000	0.833766
1268.000000	0.834425
1266.000000	0.835350
1264.000000	0.836495
1262.000000	0.837565
1260.000000	0.838133
1258.000000	0.838029
1256.000000	0.837318
1254.000000	0.836410
1252.000000	0.835746
1250.000000	0.835399
1248.000000	0.835161
1246.000000	0.835093
1244.000000	0.835208
1242.000000	0.835326
1240.000000	0.835386
1238.000000	0.835477
1236.000000	0.835568
1234.000000	0.835651
1232.000000	0.835677
1230.000000	0.835722
1228.000000	0.835890
1226.000000	0.835987
1224.000000	0.835962
1222.000000	0.836016
1220.000000	0.836095
1218.000000	0.836146
1216.000000	0.836228
1214.000000	0.836371
1212.000000	0.836490
1210.000000	0.836573
1208.000000	0.836625
1206.000000	0.836767
1204.000000	0.836956
1202.000000	0.837060
1200.000000	0.837153
1198.000000	0.837321
1196.000000	0.837493
1194.000000	0.837743
1192.000000	0.837965
1190.000000	0.838131
1188.000000	0.838335
1186.000000	0.838555
1184.000000	0.838665
1182.000000	0.838894
1180.000000	0.839268
1178.000000	0.839548
1176.000000	0.839741
1174.000000	0.839881
1172.000000	0.840081
1170.000000	0.840405
1168.000000	0.840603
1166.000000	0.840718
1164.000000	0.840961
1162.000000	0.841246
1160.000000	0.841344
1158.000000	0.841443
1156.000000	0.841611
1154.000000	0.841681
1152.000000	0.841730
1150.000000	0.841916
1148.000000	0.842066
1146.000000	0.842111
1144.000000	0.842150
1142.000000	0.842204
1140.000000	0.842304
1138.000000	0.842417
1136.000000	0.842515
1134.000000	0.842606
1132.000000	0.842577
1130.000000	0.842581
1128.000000	0.842774
1126.000000	0.842971
1124.000000	0.843058
1122.000000	0.843143
1120.000000	0.843289
1118.000000	0.843550
1116.000000	0.843713
1114.000000	0.843761
1112.000000	0.843888
1110.000000	0.844083
1108.000000	0.844388
1106.000000	0.844724
1104.000000	0.844760
1102.000000	0.844946
1100.000000	0.845177
1098.000000	0.845156
1096.000000	0.845219
1094.000000	0.845425
1092.000000	0.845411
1090.000000	0.845261
1088.000000	0.845158
1086.000000	0.845109
1084.000000	0.845056
1082.000000	0.844939
1080.000000	0.844577
1078.000000	0.844210
1076.000000	0.844123
1074.000000	0.843975
1072.000000	0.843683
1070.000000	0.843450
1068.000000	0.843111
1066.000000	0.842812
1064.000000	0.842522
1062.000000	0.842174
1060.000000	0.841782
1058.000000	0.841259
1056.000000	0.840533
1054.000000	0.840138
1052.000000	0.839989
1050.000000	0.839767
1048.000000	0.839620
1046.000000	0.839176
1044.000000	0.838536
1042.000000	0.838078
1040.000000	0.837625
1038.000000	0.837324
1036.000000	0.837036
1034.000000	0.836791
1032.000000	0.836643
1030.000000	0.836396
1028.000000	0.836136
1026.000000	0.835987
1024.000000	0.835568
1022.000000	0.835142
1020.000000	0.834762
1018.000000	0.834309
1016.000000	0.833823
1014.000000	0.833384
1012.000000	0.832705
1010.000000	0.831800
1008.000000	0.830879
1006.000000	0.830049
1004.000000	0.829201
1002.000000	0.828444
1000.000000	0.827808
