PE IR       SUBTECH     SPECTRUM    ASCII       PEDS        4.00        
   -1
TE110A_083_80K_AFTER_140K_SB.ASC
20/05/14
15:54:13.00
20/05/14
15:54:13.00
Administrator
TE110A.Thursday, May 14 2020, 014.
1000.000000
#HDR
-1
-1
#GR
cm-1
EGY
1.0
0.0
6000.000000
-2.000000
2501
8
5.803435
0.592176
#DATA
6000.000000	0.958509
5998.000000	0.960798
5996.000000	0.963486
5994.000000	0.966278
5992.000000	0.967757
5990.000000	0.969426
5988.000000	0.971654
5986.000000	0.973821
5984.000000	0.975675
5982.000000	0.977677
5980.000000	0.979365
5978.000000	0.980724
5976.000000	0.982848
5974.000000	0.984908
5972.000000	0.988047
5970.000000	0.990355
5968.000000	0.992256
5966.000000	0.993872
5964.000000	0.995186
5962.000000	0.997565
5960.000000	0.999605
5958.000000	1.000845
5956.000000	1.001462
5954.000000	1.002877
5952.000000	1.005071
5950.000000	1.008075
5948.000000	1.010800
5946.000000	1.013015
5944.000000	1.014732
5942.000000	1.016367
5940.000000	1.018424
5938.000000	1.020556
5936.000000	1.022981
5934.000000	1.025709
5932.000000	1.028295
5930.000000	1.030747
5928.000000	1.032618
5926.000000	1.034597
5924.000000	1.036552
5922.000000	1.038055
5920.000000	1.039501
5918.000000	1.040596
5916.000000	1.040999
5914.000000	1.042085
5912.000000	1.044373
5910.000000	1.047638
5908.000000	1.050501
5906.000000	1.052590
5904.000000	1.054795
5902.000000	1.057448
5900.000000	1.059833
5898.000000	1.061508
5896.000000	1.063406
5894.000000	1.065641
5892.000000	1.068191
5890.000000	1.070293
5888.000000	1.072099
5886.000000	1.073929
5884.000000	1.075957
5882.000000	1.078395
5880.000000	1.080735
5878.000000	1.082450
5876.000000	1.084764
5874.000000	1.087407
5872.000000	1.089640
5870.000000	1.090529
5868.000000	1.090447
5866.000000	1.092325
5864.000000	1.095702
5862.000000	1.098852
5860.000000	1.101474
5858.000000	1.104182
5856.000000	1.107476
5854.000000	1.109865
5852.000000	1.111189
5850.000000	1.112353
5848.000000	1.115002
5846.000000	1.118030
5844.000000	1.120193
5842.000000	1.122424
5840.000000	1.123604
5838.000000	1.125189
5836.000000	1.128126
5834.000000	1.131379
5832.000000	1.134462
5830.000000	1.136186
5828.000000	1.137681
5826.000000	1.140475
5824.000000	1.143446
5822.000000	1.146020
5820.000000	1.147545
5818.000000	1.148513
5816.000000	1.149359
5814.000000	1.151535
5812.000000	1.154055
5810.000000	1.157061
5808.000000	1.160339
5806.000000	1.162829
5804.000000	1.164860
5802.000000	1.166854
5800.000000	1.168618
5798.000000	1.171009
5796.000000	1.173025
5794.000000	1.175751
5792.000000	1.179129
5790.000000	1.181674
5788.000000	1.183649
5786.000000	1.185572
5784.000000	1.188676
5782.000000	1.192134
5780.000000	1.194131
5778.000000	1.195663
5776.000000	1.198056
5774.000000	1.200642
5772.000000	1.203437
5770.000000	1.205822
5768.000000	1.208963
5766.000000	1.211160
5764.000000	1.212448
5762.000000	1.214097
5760.000000	1.217244
5758.000000	1.221021
5756.000000	1.223868
5754.000000	1.226174
5752.000000	1.227902
5750.000000	1.230393
5748.000000	1.233017
5746.000000	1.235608
5744.000000	1.237801
5742.000000	1.239737
5740.000000	1.241373
5738.000000	1.243267
5736.000000	1.245549
5734.000000	1.248302
5732.000000	1.251565
5730.000000	1.254805
5728.000000	1.256728
5726.000000	1.257355
5724.000000	1.258652
5722.000000	1.261783
5720.000000	1.266080
5718.000000	1.269481
5716.000000	1.271997
5714.000000	1.274281
5712.000000	1.276367
5710.000000	1.278823
5708.000000	1.281231
5706.000000	1.283593
5704.000000	1.285955
5702.000000	1.288924
5700.000000	1.291484
5698.000000	1.293026
5696.000000	1.294736
5694.000000	1.296704
5692.000000	1.299764
5690.000000	1.303356
5688.000000	1.306752
5686.000000	1.308887
5684.000000	1.309789
5682.000000	1.311378
5680.000000	1.314472
5678.000000	1.318159
5676.000000	1.320809
5674.000000	1.323531
5672.000000	1.326605
5670.000000	1.329850
5668.000000	1.332714
5666.000000	1.335512
5664.000000	1.338642
5662.000000	1.340429
5660.000000	1.341686
5658.000000	1.343647
5656.000000	1.346772
5654.000000	1.350595
5652.000000	1.352947
5650.000000	1.355366
5648.000000	1.357246
5646.000000	1.360002
5644.000000	1.362707
5642.000000	1.364390
5640.000000	1.366325
5638.000000	1.368491
5636.000000	1.371694
5634.000000	1.375515
5632.000000	1.378358
5630.000000	1.380592
5628.000000	1.382576
5626.000000	1.385168
5624.000000	1.387798
5622.000000	1.390497
5620.000000	1.394684
5618.000000	1.399388
5616.000000	1.402512
5614.000000	1.403799
5612.000000	1.404893
5610.000000	1.406198
5608.000000	1.408538
5606.000000	1.411475
5604.000000	1.414534
5602.000000	1.417870
5600.000000	1.421072
5598.000000	1.423967
5596.000000	1.426037
5594.000000	1.428517
5592.000000	1.430599
5590.000000	1.432729
5588.000000	1.435332
5586.000000	1.438958
5584.000000	1.441895
5582.000000	1.443526
5580.000000	1.445291
5578.000000	1.447569
5576.000000	1.450137
5574.000000	1.453037
5572.000000	1.457326
5570.000000	1.461440
5568.000000	1.463713
5566.000000	1.465547
5564.000000	1.468431
5562.000000	1.472898
5560.000000	1.477013
5558.000000	1.478858
5556.000000	1.480192
5554.000000	1.480964
5552.000000	1.483616
5550.000000	1.486753
5548.000000	1.489023
5546.000000	1.491290
5544.000000	1.494619
5542.000000	1.498691
5540.000000	1.501839
5538.000000	1.504265
5536.000000	1.506806
5534.000000	1.509276
5532.000000	1.512216
5530.000000	1.515816
5528.000000	1.519432
5526.000000	1.521997
5524.000000	1.524050
5522.000000	1.526450
5520.000000	1.529038
5518.000000	1.532070
5516.000000	1.534590
5514.000000	1.536378
5512.000000	1.538307
5510.000000	1.541520
5508.000000	1.544443
5506.000000	1.545853
5504.000000	1.546592
5502.000000	1.549426
5500.000000	1.554051
5498.000000	1.557797
5496.000000	1.559891
5494.000000	1.562391
5492.000000	1.564858
5490.000000	1.567641
5488.000000	1.570590
5486.000000	1.575104
5484.000000	1.579801
5482.000000	1.582186
5480.000000	1.584457
5478.000000	1.587026
5476.000000	1.589560
5474.000000	1.591393
5472.000000	1.593943
5470.000000	1.598078
5468.000000	1.601889
5466.000000	1.604221
5464.000000	1.606125
5462.000000	1.608772
5460.000000	1.612122
5458.000000	1.615063
5456.000000	1.617376
5454.000000	1.619247
5452.000000	1.621717
5450.000000	1.624012
5448.000000	1.626128
5446.000000	1.628810
5444.000000	1.632820
5442.000000	1.636966
5440.000000	1.639931
5438.000000	1.642212
5436.000000	1.644731
5434.000000	1.647760
5432.000000	1.650863
5430.000000	1.653438
5428.000000	1.654465
5426.000000	1.655441
5424.000000	1.658514
5422.000000	1.662422
5420.000000	1.666769
5418.000000	1.670210
5416.000000	1.673301
5414.000000	1.674581
5412.000000	1.676247
5410.000000	1.680180
5408.000000	1.684489
5406.000000	1.687581
5404.000000	1.689812
5402.000000	1.692967
5400.000000	1.697024
5398.000000	1.700782
5396.000000	1.703466
5394.000000	1.704621
5392.000000	1.706247
5390.000000	1.709613
5388.000000	1.713923
5386.000000	1.717375
5384.000000	1.719722
5382.000000	1.722603
5380.000000	1.725850
5378.000000	1.728533
5376.000000	1.730813
5374.000000	1.732608
5372.000000	1.735066
5370.000000	1.737704
5368.000000	1.741570
5366.000000	1.745460
5364.000000	1.748510
5362.000000	1.751664
5360.000000	1.754844
5358.000000	1.758082
5356.000000	1.759684
5354.000000	1.760275
5352.000000	1.762084
5350.000000	1.765268
5348.000000	1.769131
5346.000000	1.771865
5344.000000	1.774101
5342.000000	1.776707
5340.000000	1.779393
5338.000000	1.781295
5336.000000	1.784137
5334.000000	1.789376
5332.000000	1.795078
5330.000000	1.798743
5328.000000	1.800219
5326.000000	1.802158
5324.000000	1.804773
5322.000000	1.808118
5320.000000	1.811732
5318.000000	1.815543
5316.000000	1.819075
5314.000000	1.821550
5312.000000	1.823266
5310.000000	1.825607
5308.000000	1.828452
5306.000000	1.831455
5304.000000	1.834656
5302.000000	1.838771
5300.000000	1.842299
5298.000000	1.844376
5296.000000	1.846163
5294.000000	1.848307
5292.000000	1.851539
5290.000000	1.854587
5288.000000	1.857738
5286.000000	1.861623
5284.000000	1.865427
5282.000000	1.867989
5280.000000	1.870246
5278.000000	1.873499
5276.000000	1.877515
5274.000000	1.880830
5272.000000	1.883907
5270.000000	1.886699
5268.000000	1.888545
5266.000000	1.890529
5264.000000	1.893326
5262.000000	1.897304
5260.000000	1.900966
5258.000000	1.904043
5256.000000	1.907041
5254.000000	1.909880
5252.000000	1.913050
5250.000000	1.915989
5248.000000	1.918334
5246.000000	1.920761
5244.000000	1.923659
5242.000000	1.926583
5240.000000	1.929471
5238.000000	1.932947
5236.000000	1.936266
5234.000000	1.938704
5232.000000	1.941624
5230.000000	1.945375
5228.000000	1.948603
5226.000000	1.951136
5224.000000	1.953886
5222.000000	1.956918
5220.000000	1.959959
5218.000000	1.963296
5216.000000	1.966221
5214.000000	1.968903
5212.000000	1.971668
5210.000000	1.975179
5208.000000	1.977865
5206.000000	1.979616
5204.000000	1.981547
5202.000000	1.985292
5200.000000	1.989844
5198.000000	1.994171
5196.000000	1.997530
5194.000000	2.000357
5192.000000	2.002753
5190.000000	2.005005
5188.000000	2.007489
5186.000000	2.010264
5184.000000	2.013031
5182.000000	2.016347
5180.000000	2.019745
5178.000000	2.023171
5176.000000	2.026656
5174.000000	2.030652
5172.000000	2.034639
5170.000000	2.037860
5168.000000	2.040539
5166.000000	2.043432
5164.000000	2.046452
5162.000000	2.048927
5160.000000	2.051012
5158.000000	2.053504
5156.000000	2.056853
5154.000000	2.060565
5152.000000	2.063734
5150.000000	2.066854
5148.000000	2.070128
5146.000000	2.073810
5144.000000	2.077335
5142.000000	2.080135
5140.000000	2.082563
5138.000000	2.084621
5136.000000	2.087494
5134.000000	2.091246
5132.000000	2.095046
5130.000000	2.098447
5128.000000	2.100698
5126.000000	2.103013
5124.000000	2.105660
5122.000000	2.109287
5120.000000	2.113334
5118.000000	2.116509
5116.000000	2.118108
5114.000000	2.120314
5112.000000	2.124732
5110.000000	2.129461
5108.000000	2.132791
5106.000000	2.135348
5104.000000	2.138131
5102.000000	2.141002
5100.000000	2.144651
5098.000000	2.148580
5096.000000	2.151691
5094.000000	2.154371
5092.000000	2.157553
5090.000000	2.161022
5088.000000	2.163781
5086.000000	2.166802
5084.000000	2.169936
5082.000000	2.172656
5080.000000	2.175211
5078.000000	2.178638
5076.000000	2.183147
5074.000000	2.186862
5072.000000	2.189747
5070.000000	2.192419
5068.000000	2.196167
5066.000000	2.200015
5064.000000	2.203146
5062.000000	2.205733
5060.000000	2.208829
5058.000000	2.211649
5056.000000	2.213912
5054.000000	2.216010
5052.000000	2.218992
5050.000000	2.222138
5048.000000	2.225245
5046.000000	2.228824
5044.000000	2.232579
5042.000000	2.236440
5040.000000	2.240429
5038.000000	2.243432
5036.000000	2.245607
5034.000000	2.247922
5032.000000	2.250724
5030.000000	2.253669
5028.000000	2.257279
5026.000000	2.261400
5024.000000	2.264102
5022.000000	2.265721
5020.000000	2.268387
5018.000000	2.273403
5016.000000	2.278288
5014.000000	2.281097
5012.000000	2.283294
5010.000000	2.287221
5008.000000	2.292014
5006.000000	2.295609
5004.000000	2.297653
5002.000000	2.299588
5000.000000	2.301897
4998.000000	2.304560
4996.000000	2.307554
4994.000000	2.311814
4992.000000	2.316224
4990.000000	2.319686
4988.000000	2.323006
4986.000000	2.326815
4984.000000	2.330425
4982.000000	2.333110
4980.000000	2.335643
4978.000000	2.338106
4976.000000	2.340537
4974.000000	2.343536
4972.000000	2.347825
4970.000000	2.352259
4968.000000	2.355571
4966.000000	2.357840
4964.000000	2.360126
4962.000000	2.363156
4960.000000	2.367334
4958.000000	2.371441
4956.000000	2.373882
4954.000000	2.375720
4952.000000	2.378667
4950.000000	2.382311
4948.000000	2.386501
4946.000000	2.389707
4944.000000	2.391765
4942.000000	2.394101
4940.000000	2.398392
4938.000000	2.402516
4936.000000	2.405457
4934.000000	2.408065
4932.000000	2.411839
4930.000000	2.416308
4928.000000	2.419566
4926.000000	2.421579
4924.000000	2.423865
4922.000000	2.427507
4920.000000	2.431990
4918.000000	2.436144
4916.000000	2.438519
4914.000000	2.440484
4912.000000	2.443223
4910.000000	2.446109
4908.000000	2.448911
4906.000000	2.453128
4904.000000	2.457586
4902.000000	2.461169
4900.000000	2.464171
4898.000000	2.467214
4896.000000	2.470776
4894.000000	2.474971
4892.000000	2.478294
4890.000000	2.480089
4888.000000	2.482217
4886.000000	2.486528
4884.000000	2.491759
4882.000000	2.496033
4880.000000	2.499584
4878.000000	2.502485
4876.000000	2.504711
4874.000000	2.507276
4872.000000	2.511206
4870.000000	2.514376
4868.000000	2.516449
4866.000000	2.519439
4864.000000	2.522747
4862.000000	2.525623
4860.000000	2.528689
4858.000000	2.532605
4856.000000	2.536199
4854.000000	2.539609
4852.000000	2.543156
4850.000000	2.546483
4848.000000	2.549916
4846.000000	2.553368
4844.000000	2.556482
4842.000000	2.558895
4840.000000	2.561966
4838.000000	2.565782
4836.000000	2.569104
4834.000000	2.572241
4832.000000	2.575812
4830.000000	2.579078
4828.000000	2.581054
4826.000000	2.583891
4824.000000	2.587870
4822.000000	2.591668
4820.000000	2.594855
4818.000000	2.598096
4816.000000	2.601727
4814.000000	2.605170
4812.000000	2.608494
4810.000000	2.611480
4808.000000	2.614590
4806.000000	2.617786
4804.000000	2.621468
4802.000000	2.625552
4800.000000	2.629162
4798.000000	2.632366
4796.000000	2.635804
4794.000000	2.639249
4792.000000	2.642258
4790.000000	2.645502
4788.000000	2.648711
4786.000000	2.651393
4784.000000	2.654823
4782.000000	2.659437
4780.000000	2.662608
4778.000000	2.664661
4776.000000	2.667756
4774.000000	2.672014
4772.000000	2.675456
4770.000000	2.678417
4768.000000	2.681414
4766.000000	2.684695
4764.000000	2.688205
4762.000000	2.692117
4760.000000	2.696215
4758.000000	2.699632
4756.000000	2.702672
4754.000000	2.706464
4752.000000	2.710575
4750.000000	2.714285
4748.000000	2.717292
4746.000000	2.720247
4744.000000	2.723118
4742.000000	2.725889
4740.000000	2.728059
4738.000000	2.730832
4736.000000	2.734313
4734.000000	2.737726
4732.000000	2.741519
4730.000000	2.746205
4728.000000	2.750476
4726.000000	2.753297
4724.000000	2.755457
4722.000000	2.757829
4720.000000	2.761133
4718.000000	2.765601
4716.000000	2.769524
4714.000000	2.772922
4712.000000	2.776812
4710.000000	2.780546
4708.000000	2.783207
4706.000000	2.785931
4704.000000	2.788599
4702.000000	2.792204
4700.000000	2.797221
4698.000000	2.802030
4696.000000	2.805597
4694.000000	2.809610
4692.000000	2.814276
4690.000000	2.818127
4688.000000	2.820714
4686.000000	2.823162
4684.000000	2.826074
4682.000000	2.828347
4680.000000	2.830255
4678.000000	2.833494
4676.000000	2.838427
4674.000000	2.843711
4672.000000	2.847600
4670.000000	2.849947
4668.000000	2.852469
4666.000000	2.856056
4664.000000	2.859794
4662.000000	2.863381
4660.000000	2.866745
4658.000000	2.869661
4656.000000	2.872660
4654.000000	2.876156
4652.000000	2.879242
4650.000000	2.882326
4648.000000	2.885957
4646.000000	2.889600
4644.000000	2.893210
4642.000000	2.896689
4640.000000	2.899780
4638.000000	2.903018
4636.000000	2.906520
4634.000000	2.909794
4632.000000	2.913259
4630.000000	2.917384
4628.000000	2.920943
4626.000000	2.923315
4624.000000	2.926478
4622.000000	2.931215
4620.000000	2.935649
4618.000000	2.939010
4616.000000	2.942153
4614.000000	2.944784
4612.000000	2.948182
4610.000000	2.952391
4608.000000	2.956043
4606.000000	2.960166
4604.000000	2.964044
4602.000000	2.966381
4600.000000	2.969491
4598.000000	2.974122
4596.000000	2.977087
4594.000000	2.979743
4592.000000	2.984642
4590.000000	2.989872
4588.000000	2.993475
4586.000000	2.996654
4584.000000	3.000307
4582.000000	3.003672
4580.000000	3.005933
4578.000000	3.007643
4576.000000	3.010622
4574.000000	3.015418
4572.000000	3.020256
4570.000000	3.023986
4568.000000	3.027161
4566.000000	3.029993
4564.000000	3.032718
4562.000000	3.035786
4560.000000	3.040009
4558.000000	3.045064
4556.000000	3.049796
4554.000000	3.053695
4552.000000	3.056932
4550.000000	3.060088
4548.000000	3.063215
4546.000000	3.066272
4544.000000	3.069692
4542.000000	3.073401
4540.000000	3.076196
4538.000000	3.079422
4536.000000	3.084729
4534.000000	3.090921
4532.000000	3.095393
4530.000000	3.097483
4528.000000	3.099491
4526.000000	3.102848
4524.000000	3.106302
4522.000000	3.110106
4520.000000	3.114568
4518.000000	3.118150
4516.000000	3.120785
4514.000000	3.124110
4512.000000	3.127993
4510.000000	3.131467
4508.000000	3.134667
4506.000000	3.138711
4504.000000	3.143251
4502.000000	3.147348
4500.000000	3.150588
4498.000000	3.153233
4496.000000	3.156049
4494.000000	3.159390
4492.000000	3.163239
4490.000000	3.167828
4488.000000	3.172916
4486.000000	3.177259
4484.000000	3.179943
4482.000000	3.182760
4480.000000	3.186774
4478.000000	3.190669
4476.000000	3.193958
4474.000000	3.196743
4472.000000	3.199018
4470.000000	3.202749
4468.000000	3.207495
4466.000000	3.210855
4464.000000	3.213385
4462.000000	3.217001
4460.000000	3.220945
4458.000000	3.224994
4456.000000	3.229039
4454.000000	3.232601
4452.000000	3.235564
4450.000000	3.238955
4448.000000	3.242663
4446.000000	3.246181
4444.000000	3.250022
4442.000000	3.254425
4440.000000	3.258324
4438.000000	3.261215
4436.000000	3.264964
4434.000000	3.269528
4432.000000	3.273079
4430.000000	3.275640
4428.000000	3.278941
4426.000000	3.282162
4424.000000	3.284734
4422.000000	3.287377
4420.000000	3.290618
4418.000000	3.294409
4416.000000	3.298681
4414.000000	3.303225
4412.000000	3.307490
4410.000000	3.311489
4408.000000	3.315733
4406.000000	3.320480
4404.000000	3.325270
4402.000000	3.329303
4400.000000	3.331371
4398.000000	3.332198
4396.000000	3.333427
4394.000000	3.336756
4392.000000	3.341878
4390.000000	3.346306
4388.000000	3.349683
4386.000000	3.352857
4384.000000	3.356224
4382.000000	3.360563
4380.000000	3.364652
4378.000000	3.367596
4376.000000	3.371255
4374.000000	3.375034
4372.000000	3.377210
4370.000000	3.379056
4368.000000	3.381817
4366.000000	3.386144
4364.000000	3.390225
4362.000000	3.392982
4360.000000	3.396681
4358.000000	3.401467
4356.000000	3.404719
4354.000000	3.407405
4352.000000	3.411223
4350.000000	3.415670
4348.000000	3.419575
4346.000000	3.422784
4344.000000	3.425840
4342.000000	3.429317
4340.000000	3.433327
4338.000000	3.435985
4336.000000	3.437988
4334.000000	3.442679
4332.000000	3.448701
4330.000000	3.452967
4328.000000	3.455625
4326.000000	3.457802
4324.000000	3.461074
4322.000000	3.465811
4320.000000	3.471010
4318.000000	3.476179
4316.000000	3.480273
4314.000000	3.482646
4312.000000	3.485130
4310.000000	3.489389
4308.000000	3.494505
4306.000000	3.498720
4304.000000	3.502042
4302.000000	3.505535
4300.000000	3.509573
4298.000000	3.512612
4296.000000	3.514897
4294.000000	3.518356
4292.000000	3.522626
4290.000000	3.525932
4288.000000	3.529214
4286.000000	3.533112
4284.000000	3.536591
4282.000000	3.539776
4280.000000	3.543066
4278.000000	3.547048
4276.000000	3.551592
4274.000000	3.555465
4272.000000	3.558208
4270.000000	3.560094
4268.000000	3.562070
4266.000000	3.565773
4264.000000	3.569988
4262.000000	3.573368
4260.000000	3.576598
4258.000000	3.580337
4256.000000	3.584169
4254.000000	3.588227
4252.000000	3.592996
4250.000000	3.597536
4248.000000	3.600728
4246.000000	3.604226
4244.000000	3.608847
4242.000000	3.612733
4240.000000	3.615256
4238.000000	3.618198
4236.000000	3.621893
4234.000000	3.626209
4232.000000	3.631043
4230.000000	3.634720
4228.000000	3.637492
4226.000000	3.642048
4224.000000	3.647138
4222.000000	3.650930
4220.000000	3.654717
4218.000000	3.658373
4216.000000	3.660691
4214.000000	3.663729
4212.000000	3.668429
4210.000000	3.672656
4208.000000	3.676351
4206.000000	3.679811
4204.000000	3.682778
4202.000000	3.686532
4200.000000	3.691402
4198.000000	3.695904
4196.000000	3.699417
4194.000000	3.702939
4192.000000	3.706377
4190.000000	3.709104
4188.000000	3.712155
4186.000000	3.716444
4184.000000	3.721135
4182.000000	3.725004
4180.000000	3.728490
4178.000000	3.732629
4176.000000	3.736113
4174.000000	3.739325
4172.000000	3.743274
4170.000000	3.747384
4168.000000	3.751745
4166.000000	3.756050
4164.000000	3.759074
4162.000000	3.762732
4160.000000	3.767639
4158.000000	3.771522
4156.000000	3.774688
4154.000000	3.778569
4152.000000	3.781816
4150.000000	3.784521
4148.000000	3.787832
4146.000000	3.791680
4144.000000	3.796220
4142.000000	3.800693
4140.000000	3.804819
4138.000000	3.809377
4136.000000	3.813532
4134.000000	3.817011
4132.000000	3.821081
4130.000000	3.825227
4128.000000	3.828958
4126.000000	3.832644
4124.000000	3.836053
4122.000000	3.839890
4120.000000	3.844945
4118.000000	3.849248
4116.000000	3.851665
4114.000000	3.854146
4112.000000	3.858184
4110.000000	3.862415
4108.000000	3.865286
4106.000000	3.868254
4104.000000	3.873422
4102.000000	3.879194
4100.000000	3.883105
4098.000000	3.886497
4096.000000	3.890314
4094.000000	3.893862
4092.000000	3.897481
4090.000000	3.901434
4088.000000	3.905171
4086.000000	3.908462
4084.000000	3.911708
4082.000000	3.915186
4080.000000	3.919433
4078.000000	3.924092
4076.000000	3.927846
4074.000000	3.931086
4072.000000	3.934340
4070.000000	3.938525
4068.000000	3.944003
4066.000000	3.948613
4064.000000	3.951931
4062.000000	3.955122
4060.000000	3.959007
4058.000000	3.963556
4056.000000	3.968338
4054.000000	3.972724
4052.000000	3.975920
4050.000000	3.979075
4048.000000	3.983247
4046.000000	3.987769
4044.000000	3.991562
4042.000000	3.994331
4040.000000	3.998191
4038.000000	4.003667
4036.000000	4.008916
4034.000000	4.013014
4032.000000	4.016323
4030.000000	4.020413
4028.000000	4.024397
4026.000000	4.026390
4024.000000	4.028978
4022.000000	4.034385
4020.000000	4.039661
4018.000000	4.042687
4016.000000	4.046497
4014.000000	4.052725
4012.000000	4.057278
4010.000000	4.059064
4008.000000	4.062041
4006.000000	4.066762
4004.000000	4.071911
4002.000000	4.076855
4000.000000	4.080646
3998.000000	4.084258
3996.000000	4.087451
3994.000000	4.090537
3992.000000	4.094666
3990.000000	4.098940
3988.000000	4.103553
3986.000000	4.107882
3984.000000	4.111673
3982.000000	4.115953
3980.000000	4.119660
3978.000000	4.122462
3976.000000	4.125310
3974.000000	4.127884
3972.000000	4.130430
3970.000000	4.134769
3968.000000	4.140035
3966.000000	4.144044
3964.000000	4.147293
3962.000000	4.150585
3960.000000	4.154189
3958.000000	4.157955
3956.000000	4.161691
3954.000000	4.165522
3952.000000	4.168794
3950.000000	4.170764
3948.000000	4.172788
3946.000000	4.176852
3944.000000	4.181144
3942.000000	4.184457
3940.000000	4.189603
3938.000000	4.196448
3936.000000	4.202435
3934.000000	4.205802
3932.000000	4.205638
3930.000000	4.206371
3928.000000	4.212024
3926.000000	4.217269
3924.000000	4.219380
3922.000000	4.222901
3920.000000	4.225863
3918.000000	4.225104
3916.000000	4.227064
3914.000000	4.236441
3912.000000	4.246867
3910.000000	4.253735
3908.000000	4.256618
3906.000000	4.249598
3904.000000	4.234246
3902.000000	4.224969
3900.000000	4.228902
3898.000000	4.243817
3896.000000	4.264565
3894.000000	4.276901
3892.000000	4.272282
3890.000000	4.266627
3888.000000	4.271528
3886.000000	4.270825
3884.000000	4.267265
3882.000000	4.276669
3880.000000	4.285883
3878.000000	4.293965
3876.000000	4.305943
3874.000000	4.307917
3872.000000	4.298912
3870.000000	4.284431
3868.000000	4.281328
3866.000000	4.295956
3864.000000	4.305135
3862.000000	4.311750
3860.000000	4.327495
3858.000000	4.337910
3856.000000	4.315478
3854.000000	4.253740
3852.000000	4.221503
3850.000000	4.271157
3848.000000	4.341495
3846.000000	4.370298
3844.000000	4.369448
3842.000000	4.362486
3840.000000	4.348273
3838.000000	4.323295
3836.000000	4.316158
3834.000000	4.342842
3832.000000	4.370820
3830.000000	4.385679
3828.000000	4.397325
3826.000000	4.403512
3824.000000	4.401871
3822.000000	4.386359
3820.000000	4.370385
3818.000000	4.373277
3816.000000	4.373897
3814.000000	4.381399
3812.000000	4.416333
3810.000000	4.439649
3808.000000	4.429056
3806.000000	4.412495
3804.000000	4.413471
3802.000000	4.407535
3800.000000	4.395759
3798.000000	4.416762
3796.000000	4.446233
3794.000000	4.461020
3792.000000	4.474799
3790.000000	4.483916
3788.000000	4.487339
3786.000000	4.489681
3784.000000	4.491008
3782.000000	4.491573
3780.000000	4.489433
3778.000000	4.489987
3776.000000	4.500476
3774.000000	4.511356
3772.000000	4.511058
3770.000000	4.502124
3768.000000	4.498934
3766.000000	4.506000
3764.000000	4.515159
3762.000000	4.523309
3760.000000	4.523978
3758.000000	4.520621
3756.000000	4.523484
3754.000000	4.514724
3752.000000	4.477032
3750.000000	4.443566
3748.000000	4.452108
3746.000000	4.466860
3744.000000	4.452517
3742.000000	4.470020
3740.000000	4.528310
3738.000000	4.547862
3736.000000	4.526785
3734.000000	4.516101
3732.000000	4.528624
3730.000000	4.554588
3728.000000	4.579641
3726.000000	4.587332
3724.000000	4.587044
3722.000000	4.591243
3720.000000	4.598495
3718.000000	4.609244
3716.000000	4.617712
3714.000000	4.610703
3712.000000	4.586870
3710.000000	4.576233
3708.000000	4.597276
3706.000000	4.626259
3704.000000	4.639846
3702.000000	4.637660
3700.000000	4.637022
3698.000000	4.647939
3696.000000	4.658269
3694.000000	4.659431
3692.000000	4.648387
3690.000000	4.620920
3688.000000	4.596586
3686.000000	4.614287
3684.000000	4.659723
3682.000000	4.683174
3680.000000	4.681614
3678.000000	4.664396
3676.000000	4.628692
3674.000000	4.609596
3672.000000	4.624987
3670.000000	4.631493
3668.000000	4.642553
3666.000000	4.681961
3664.000000	4.711289
3662.000000	4.718812
3660.000000	4.718685
3658.000000	4.710509
3656.000000	4.696243
3654.000000	4.695173
3652.000000	4.696664
3650.000000	4.670745
3648.000000	4.648562
3646.000000	4.670987
3644.000000	4.713379
3642.000000	4.737659
3640.000000	4.744421
3638.000000	4.746226
3636.000000	4.746058
3634.000000	4.742876
3632.000000	4.732613
3630.000000	4.705352
3628.000000	4.679630
3626.000000	4.699506
3624.000000	4.741155
3622.000000	4.752061
3620.000000	4.735612
3618.000000	4.724148
3616.000000	4.733574
3614.000000	4.742822
3612.000000	4.739139
3610.000000	4.733487
3608.000000	4.731984
3606.000000	4.742773
3604.000000	4.761000
3602.000000	4.768559
3600.000000	4.765689
3598.000000	4.764070
3596.000000	4.764106
3594.000000	4.762666
3592.000000	4.764317
3590.000000	4.761859
3588.000000	4.748646
3586.000000	4.742717
3584.000000	4.755834
3582.000000	4.771709
3580.000000	4.776563
3578.000000	4.775662
3576.000000	4.775614
3574.000000	4.777213
3572.000000	4.778685
3570.000000	4.773995
3568.000000	4.759775
3566.000000	4.748864
3564.000000	4.755341
3562.000000	4.768835
3560.000000	4.775356
3558.000000	4.776560
3556.000000	4.777239
3554.000000	4.776337
3552.000000	4.773004
3550.000000	4.770816
3548.000000	4.769080
3546.000000	4.764895
3544.000000	4.762495
3542.000000	4.765173
3540.000000	4.769649
3538.000000	4.770126
3536.000000	4.767100
3534.000000	4.764872
3532.000000	4.763172
3530.000000	4.759785
3528.000000	4.754759
3526.000000	4.749980
3524.000000	4.747021
3522.000000	4.745426
3520.000000	4.744197
3518.000000	4.742260
3516.000000	4.739182
3514.000000	4.735557
3512.000000	4.731588
3510.000000	4.726851
3508.000000	4.722405
3506.000000	4.719194
3504.000000	4.714366
3502.000000	4.707517
3500.000000	4.703165
3498.000000	4.700203
3496.000000	4.695972
3494.000000	4.691446
3492.000000	4.687470
3490.000000	4.681943
3488.000000	4.675171
3486.000000	4.670115
3484.000000	4.665765
3482.000000	4.661007
3480.000000	4.657443
3478.000000	4.655223
3476.000000	4.652204
3474.000000	4.648192
3472.000000	4.645886
3470.000000	4.643903
3468.000000	4.640626
3466.000000	4.638314
3464.000000	4.636505
3462.000000	4.634700
3460.000000	4.633501
3458.000000	4.632169
3456.000000	4.631018
3454.000000	4.629415
3452.000000	4.627009
3450.000000	4.623569
3448.000000	4.617962
3446.000000	4.612383
3444.000000	4.610522
3442.000000	4.609931
3440.000000	4.609055
3438.000000	4.609522
3436.000000	4.610118
3434.000000	4.611036
3432.000000	4.612838
3430.000000	4.614220
3428.000000	4.615607
3426.000000	4.617905
3424.000000	4.620932
3422.000000	4.623860
3420.000000	4.626556
3418.000000	4.629208
3416.000000	4.632108
3414.000000	4.634380
3412.000000	4.634826
3410.000000	4.634624
3408.000000	4.634854
3406.000000	4.635218
3404.000000	4.635662
3402.000000	4.635724
3400.000000	4.635790
3398.000000	4.636992
3396.000000	4.639240
3394.000000	4.641907
3392.000000	4.644120
3390.000000	4.644877
3388.000000	4.645963
3386.000000	4.647925
3384.000000	4.649952
3382.000000	4.651804
3380.000000	4.652634
3378.000000	4.653768
3376.000000	4.656744
3374.000000	4.658506
3372.000000	4.657779
3370.000000	4.657747
3368.000000	4.659592
3366.000000	4.661884
3364.000000	4.664226
3362.000000	4.666341
3360.000000	4.667322
3358.000000	4.668249
3356.000000	4.670525
3354.000000	4.672891
3352.000000	4.674321
3350.000000	4.674316
3348.000000	4.675040
3346.000000	4.676520
3344.000000	4.677319
3342.000000	4.679479
3340.000000	4.682404
3338.000000	4.682867
3336.000000	4.683618
3334.000000	4.686387
3332.000000	4.688751
3330.000000	4.689650
3328.000000	4.689431
3326.000000	4.690102
3324.000000	4.691720
3322.000000	4.693355
3320.000000	4.695677
3318.000000	4.699025
3316.000000	4.701735
3314.000000	4.700968
3312.000000	4.700589
3310.000000	4.702043
3308.000000	4.702536
3306.000000	4.703634
3304.000000	4.705130
3302.000000	4.706769
3300.000000	4.708781
3298.000000	4.709655
3296.000000	4.710011
3294.000000	4.711039
3292.000000	4.712552
3290.000000	4.714045
3288.000000	4.715824
3286.000000	4.717652
3284.000000	4.719007
3282.000000	4.720196
3280.000000	4.722220
3278.000000	4.724336
3276.000000	4.726091
3274.000000	4.727723
3272.000000	4.728866
3270.000000	4.730414
3268.000000	4.731938
3266.000000	4.733536
3264.000000	4.735307
3262.000000	4.736278
3260.000000	4.736957
3258.000000	4.738389
3256.000000	4.740203
3254.000000	4.741179
3252.000000	4.742384
3250.000000	4.745849
3248.000000	4.749399
3246.000000	4.751211
3244.000000	4.751816
3242.000000	4.752256
3240.000000	4.754077
3238.000000	4.756656
3236.000000	4.759009
3234.000000	4.761193
3232.000000	4.762417
3230.000000	4.762879
3228.000000	4.763847
3226.000000	4.766064
3224.000000	4.769169
3222.000000	4.771454
3220.000000	4.772987
3218.000000	4.774792
3216.000000	4.776137
3214.000000	4.777598
3212.000000	4.779739
3210.000000	4.782036
3208.000000	4.785064
3206.000000	4.787667
3204.000000	4.790277
3202.000000	4.793196
3200.000000	4.796048
3198.000000	4.799953
3196.000000	4.805112
3194.000000	4.809681
3192.000000	4.813309
3190.000000	4.817105
3188.000000	4.820805
3186.000000	4.824206
3184.000000	4.827259
3182.000000	4.830535
3180.000000	4.834214
3178.000000	4.836495
3176.000000	4.839461
3174.000000	4.844516
3172.000000	4.848842
3170.000000	4.851276
3168.000000	4.854788
3166.000000	4.860355
3164.000000	4.864781
3162.000000	4.867754
3160.000000	4.871292
3158.000000	4.874880
3156.000000	4.878128
3154.000000	4.881113
3152.000000	4.884575
3150.000000	4.888297
3148.000000	4.892308
3146.000000	4.896524
3144.000000	4.900714
3142.000000	4.904503
3140.000000	4.907588
3138.000000	4.910263
3136.000000	4.912680
3134.000000	4.914668
3132.000000	4.916788
3130.000000	4.920015
3128.000000	4.923395
3126.000000	4.925842
3124.000000	4.928595
3122.000000	4.931071
3120.000000	4.932693
3118.000000	4.934387
3116.000000	4.936621
3114.000000	4.940151
3112.000000	4.943193
3110.000000	4.945819
3108.000000	4.948738
3106.000000	4.951768
3104.000000	4.954711
3102.000000	4.957092
3100.000000	4.960039
3098.000000	4.964612
3096.000000	4.969183
3094.000000	4.972908
3092.000000	4.975666
3090.000000	4.978610
3088.000000	4.982284
3086.000000	4.985450
3084.000000	4.989096
3082.000000	4.993438
3080.000000	4.996527
3078.000000	4.998256
3076.000000	5.000479
3074.000000	5.003355
3072.000000	5.004629
3070.000000	5.004908
3068.000000	5.006985
3066.000000	5.008459
3064.000000	5.010027
3062.000000	5.013824
3060.000000	5.018476
3058.000000	5.021659
3056.000000	5.024722
3054.000000	5.028102
3052.000000	5.031277
3050.000000	5.035498
3048.000000	5.039106
3046.000000	5.041863
3044.000000	5.044778
3042.000000	5.047391
3040.000000	5.050183
3038.000000	5.052319
3036.000000	5.053043
3034.000000	5.053102
3032.000000	5.052196
3030.000000	5.050935
3028.000000	5.049036
3026.000000	5.045189
3024.000000	5.039831
3022.000000	5.033279
3020.000000	5.028036
3018.000000	5.026718
3016.000000	5.030987
3014.000000	5.040798
3012.000000	5.056117
3010.000000	5.072805
3008.000000	5.087333
3006.000000	5.098725
3004.000000	5.106610
3002.000000	5.112668
3000.000000	5.118037
2998.000000	5.122184
2996.000000	5.123947
2994.000000	5.124681
2992.000000	5.126167
2990.000000	5.127289
2988.000000	5.127193
2986.000000	5.126118
2984.000000	5.123999
2982.000000	5.119698
2980.000000	5.112250
2978.000000	5.103128
2976.000000	5.092668
2974.000000	5.077189
2972.000000	5.054927
2970.000000	5.026802
2968.000000	4.994985
2966.000000	4.963009
2964.000000	4.935361
2962.000000	4.918297
2960.000000	4.914478
2958.000000	4.921605
2956.000000	4.936216
2954.000000	4.952872
2952.000000	4.966402
2950.000000	4.975243
2948.000000	4.979735
2946.000000	4.977527
2944.000000	4.966512
2942.000000	4.947203
2940.000000	4.923739
2938.000000	4.896420
2936.000000	4.867637
2934.000000	4.842308
2932.000000	4.820098
2930.000000	4.798465
2928.000000	4.777823
2926.000000	4.761838
2924.000000	4.757509
2922.000000	4.770982
2920.000000	4.801422
2918.000000	4.843440
2916.000000	4.891887
2914.000000	4.939272
2912.000000	4.980795
2910.000000	5.015948
2908.000000	5.043883
2906.000000	5.064646
2904.000000	5.082231
2902.000000	5.099600
2900.000000	5.115451
2898.000000	5.128672
2896.000000	5.141519
2894.000000	5.155359
2892.000000	5.168814
2890.000000	5.180330
2888.000000	5.190212
2886.000000	5.198493
2884.000000	5.204879
2882.000000	5.210099
2880.000000	5.212995
2878.000000	5.212349
2876.000000	5.208846
2874.000000	5.201488
2872.000000	5.190084
2870.000000	5.173963
2868.000000	5.151402
2866.000000	5.121917
2864.000000	5.090950
2862.000000	5.065522
2860.000000	5.052983
2858.000000	5.055394
2856.000000	5.068772
2854.000000	5.087445
2852.000000	5.108271
2850.000000	5.132282
2848.000000	5.162497
2846.000000	5.196117
2844.000000	5.227885
2842.000000	5.255634
2840.000000	5.278186
2838.000000	5.296252
2836.000000	5.310159
2834.000000	5.320650
2832.000000	5.330616
2830.000000	5.340321
2828.000000	5.347686
2826.000000	5.352615
2824.000000	5.358574
2822.000000	5.365031
2820.000000	5.369870
2818.000000	5.374091
2816.000000	5.378442
2814.000000	5.382059
2812.000000	5.385683
2810.000000	5.389928
2808.000000	5.393445
2806.000000	5.395904
2804.000000	5.399416
2802.000000	5.403119
2800.000000	5.406298
2798.000000	5.408764
2796.000000	5.411074
2794.000000	5.412562
2792.000000	5.413775
2790.000000	5.415742
2788.000000	5.419312
2786.000000	5.424414
2784.000000	5.429755
2782.000000	5.435215
2780.000000	5.439584
2778.000000	5.443037
2776.000000	5.447258
2774.000000	5.451178
2772.000000	5.454706
2770.000000	5.457423
2768.000000	5.460278
2766.000000	5.464368
2764.000000	5.467687
2762.000000	5.469104
2760.000000	5.471363
2758.000000	5.473987
2756.000000	5.476669
2754.000000	5.479342
2752.000000	5.481204
2750.000000	5.482897
2748.000000	5.484745
2746.000000	5.486563
2744.000000	5.487954
2742.000000	5.488943
2740.000000	5.490225
2738.000000	5.491662
2736.000000	5.492713
2734.000000	5.494412
2732.000000	5.496895
2730.000000	5.498755
2728.000000	5.500135
2726.000000	5.501176
2724.000000	5.502347
2722.000000	5.504388
2720.000000	5.505445
2718.000000	5.506271
2716.000000	5.507402
2714.000000	5.508086
2712.000000	5.509171
2710.000000	5.509675
2708.000000	5.509805
2706.000000	5.511158
2704.000000	5.513224
2702.000000	5.513961
2700.000000	5.513912
2698.000000	5.514933
2696.000000	5.516379
2694.000000	5.518373
2692.000000	5.520181
2690.000000	5.521163
2688.000000	5.521957
2686.000000	5.523421
2684.000000	5.525559
2682.000000	5.525843
2680.000000	5.525759
2678.000000	5.527238
2676.000000	5.528053
2674.000000	5.528512
2672.000000	5.529560
2670.000000	5.529731
2668.000000	5.530658
2666.000000	5.531607
2664.000000	5.531861
2662.000000	5.532607
2660.000000	5.532674
2658.000000	5.532381
2656.000000	5.534094
2654.000000	5.536180
2652.000000	5.536523
2650.000000	5.537738
2648.000000	5.539046
2646.000000	5.540367
2644.000000	5.542018
2642.000000	5.543045
2640.000000	5.544001
2638.000000	5.545544
2636.000000	5.547377
2634.000000	5.547911
2632.000000	5.548154
2630.000000	5.549550
2628.000000	5.550112
2626.000000	5.550161
2624.000000	5.551487
2622.000000	5.554114
2620.000000	5.555982
2618.000000	5.556815
2616.000000	5.557319
2614.000000	5.558030
2612.000000	5.559357
2610.000000	5.560685
2608.000000	5.562259
2606.000000	5.562581
2604.000000	5.561695
2602.000000	5.561692
2600.000000	5.562933
2598.000000	5.564157
2596.000000	5.564561
2594.000000	5.564376
2592.000000	5.564533
2590.000000	5.564636
2588.000000	5.565709
2586.000000	5.567945
2584.000000	5.570080
2582.000000	5.572426
2580.000000	5.575917
2578.000000	5.579132
2576.000000	5.580715
2574.000000	5.582521
2572.000000	5.584774
2570.000000	5.586466
2568.000000	5.588249
2566.000000	5.590101
2564.000000	5.591847
2562.000000	5.593218
2560.000000	5.594599
2558.000000	5.595649
2556.000000	5.597099
2554.000000	5.598479
2552.000000	5.599690
2550.000000	5.600994
2548.000000	5.601685
2546.000000	5.602491
2544.000000	5.604603
2542.000000	5.605556
2540.000000	5.606261
2538.000000	5.607378
2536.000000	5.608859
2534.000000	5.610758
2532.000000	5.613192
2530.000000	5.614920
2528.000000	5.616064
2526.000000	5.617573
2524.000000	5.619181
2522.000000	5.620763
2520.000000	5.622050
2518.000000	5.623419
2516.000000	5.626040
2514.000000	5.627141
2512.000000	5.626560
2510.000000	5.626008
2508.000000	5.627087
2506.000000	5.629289
2504.000000	5.631164
2502.000000	5.631771
2500.000000	5.632217
2498.000000	5.633133
2496.000000	5.633976
2494.000000	5.634612
2492.000000	5.636999
2490.000000	5.638761
2488.000000	5.639579
2486.000000	5.641111
2484.000000	5.642581
2482.000000	5.644293
2480.000000	5.645547
2478.000000	5.646420
2476.000000	5.647923
2474.000000	5.648580
2472.000000	5.649059
2470.000000	5.650078
2468.000000	5.651415
2466.000000	5.652073
2464.000000	5.652540
2462.000000	5.652431
2460.000000	5.653219
2458.000000	5.655596
2456.000000	5.656054
2454.000000	5.655255
2452.000000	5.656806
2450.000000	5.658355
2448.000000	5.658084
2446.000000	5.658028
2444.000000	5.658907
2442.000000	5.659625
2440.000000	5.660417
2438.000000	5.661016
2436.000000	5.661070
2434.000000	5.661831
2432.000000	5.663207
2430.000000	5.665126
2428.000000	5.665229
2426.000000	5.663924
2424.000000	5.663731
2422.000000	5.664253
2420.000000	5.664539
2418.000000	5.665456
2416.000000	5.666296
2414.000000	5.665640
2412.000000	5.665784
2410.000000	5.666837
2408.000000	5.668131
2406.000000	5.670064
2404.000000	5.671649
2402.000000	5.672150
2400.000000	5.673593
2398.000000	5.674531
2396.000000	5.674435
2394.000000	5.675721
2392.000000	5.677834
2390.000000	5.678948
2388.000000	5.679092
2386.000000	5.679827
2384.000000	5.680486
2382.000000	5.678905
2380.000000	5.675238
2378.000000	5.670230
2376.000000	5.663261
2374.000000	5.653537
2372.000000	5.641121
2370.000000	5.625917
2368.000000	5.610174
2366.000000	5.596833
2364.000000	5.587805
2362.000000	5.582323
2360.000000	5.582271
2358.000000	5.588576
2356.000000	5.600528
2354.000000	5.617720
2352.000000	5.638503
2350.000000	5.657953
2348.000000	5.665121
2346.000000	5.655599
2344.000000	5.638883
2342.000000	5.623601
2340.000000	5.611069
2338.000000	5.603860
2336.000000	5.605742
2334.000000	5.612007
2332.000000	5.616049
2330.000000	5.620040
2328.000000	5.624856
2326.000000	5.630907
2324.000000	5.639112
2322.000000	5.646542
2320.000000	5.654291
2318.000000	5.661758
2316.000000	5.667002
2314.000000	5.672117
2312.000000	5.676794
2310.000000	5.680659
2308.000000	5.683855
2306.000000	5.684509
2304.000000	5.684896
2302.000000	5.687408
2300.000000	5.690190
2298.000000	5.690427
2296.000000	5.688884
2294.000000	5.690412
2292.000000	5.692698
2290.000000	5.693275
2288.000000	5.693720
2286.000000	5.693790
2284.000000	5.693665
2282.000000	5.693923
2280.000000	5.693791
2278.000000	5.694367
2276.000000	5.694858
2274.000000	5.694134
2272.000000	5.692898
2270.000000	5.690990
2268.000000	5.690870
2266.000000	5.693107
2264.000000	5.693694
2262.000000	5.692699
2260.000000	5.692522
2258.000000	5.692043
2256.000000	5.692061
2254.000000	5.692910
2252.000000	5.693528
2250.000000	5.693782
2248.000000	5.695332
2246.000000	5.696994
2244.000000	5.697075
2242.000000	5.697905
2240.000000	5.698812
2238.000000	5.699869
2236.000000	5.701383
2234.000000	5.703761
2232.000000	5.706767
2230.000000	5.706702
2228.000000	5.706689
2226.000000	5.707305
2224.000000	5.707870
2222.000000	5.707525
2220.000000	5.708771
2218.000000	5.712035
2216.000000	5.713192
2214.000000	5.713574
2212.000000	5.714983
2210.000000	5.716455
2208.000000	5.716599
2206.000000	5.716372
2204.000000	5.717091
2202.000000	5.718673
2200.000000	5.719958
2198.000000	5.720428
2196.000000	5.720455
2194.000000	5.720793
2192.000000	5.721471
2190.000000	5.722601
2188.000000	5.723537
2186.000000	5.723897
2184.000000	5.724251
2182.000000	5.723762
2180.000000	5.722771
2178.000000	5.722917
2176.000000	5.724164
2174.000000	5.725634
2172.000000	5.725500
2170.000000	5.723508
2168.000000	5.723991
2166.000000	5.727321
2164.000000	5.728550
2162.000000	5.727015
2160.000000	5.727046
2158.000000	5.729261
2156.000000	5.730156
2154.000000	5.731080
2152.000000	5.731855
2150.000000	5.731892
2148.000000	5.732333
2146.000000	5.731905
2144.000000	5.731653
2142.000000	5.732160
2140.000000	5.733128
2138.000000	5.733159
2136.000000	5.732461
2134.000000	5.732924
2132.000000	5.734323
2130.000000	5.735452
2128.000000	5.734553
2126.000000	5.734614
2124.000000	5.735778
2122.000000	5.736871
2120.000000	5.737374
2118.000000	5.736764
2116.000000	5.737246
2114.000000	5.738933
2112.000000	5.741190
2110.000000	5.742511
2108.000000	5.743049
2106.000000	5.744003
2104.000000	5.744422
2102.000000	5.744250
2100.000000	5.744842
2098.000000	5.745470
2096.000000	5.746063
2094.000000	5.747674
2092.000000	5.749389
2090.000000	5.749895
2088.000000	5.750090
2086.000000	5.751319
2084.000000	5.752872
2082.000000	5.754916
2080.000000	5.757499
2078.000000	5.758206
2076.000000	5.758265
2074.000000	5.758793
2072.000000	5.759995
2070.000000	5.761811
2068.000000	5.763198
2066.000000	5.763707
2064.000000	5.765209
2062.000000	5.767219
2060.000000	5.769364
2058.000000	5.771487
2056.000000	5.772971
2054.000000	5.774494
2052.000000	5.776231
2050.000000	5.776743
2048.000000	5.777741
2046.000000	5.779903
2044.000000	5.781171
2042.000000	5.781082
2040.000000	5.783054
2038.000000	5.784983
2036.000000	5.784866
2034.000000	5.784800
2032.000000	5.786357
2030.000000	5.786769
2028.000000	5.786389
2026.000000	5.788508
2024.000000	5.790926
2022.000000	5.791143
2020.000000	5.791151
2018.000000	5.790051
2016.000000	5.790993
2014.000000	5.794922
2012.000000	5.796792
2010.000000	5.798206
2008.000000	5.800560
2006.000000	5.801747
2004.000000	5.802233
2002.000000	5.801795
2000.000000	5.800791
1998.000000	5.801184
1996.000000	5.801925
1994.000000	5.800666
1992.000000	5.797465
1990.000000	5.798515
1988.000000	5.801523
1986.000000	5.802900
1984.000000	5.803435
1982.000000	5.803014
1980.000000	5.802597
1978.000000	5.802919
1976.000000	5.802634
1974.000000	5.801817
1972.000000	5.800394
1970.000000	5.798620
1968.000000	5.794396
1966.000000	5.790829
1964.000000	5.792145
1962.000000	5.792564
1960.000000	5.787417
1958.000000	5.781382
1956.000000	5.784631
1954.000000	5.788135
1952.000000	5.787566
1950.000000	5.786538
1948.000000	5.784408
1946.000000	5.781084
1944.000000	5.775452
1942.000000	5.769118
1940.000000	5.773247
1938.000000	5.778262
1936.000000	5.777389
1934.000000	5.775014
1932.000000	5.772273
1930.000000	5.770723
1928.000000	5.770090
1926.000000	5.768346
1924.000000	5.762298
1922.000000	5.756086
1920.000000	5.751901
1918.000000	5.740559
1916.000000	5.741699
1914.000000	5.750025
1912.000000	5.747556
1910.000000	5.742784
1908.000000	5.739500
1906.000000	5.736745
1904.000000	5.734280
1902.000000	5.732218
1900.000000	5.730240
1898.000000	5.727044
1896.000000	5.721055
1894.000000	5.717020
1892.000000	5.715669
1890.000000	5.709479
1888.000000	5.707741
1886.000000	5.713339
1884.000000	5.713785
1882.000000	5.712962
1880.000000	5.712561
1878.000000	5.710762
1876.000000	5.708880
1874.000000	5.708327
1872.000000	5.703372
1870.000000	5.685686
1868.000000	5.673904
1866.000000	5.685537
1864.000000	5.696249
1862.000000	5.696935
1860.000000	5.694056
1858.000000	5.692336
1856.000000	5.691473
1854.000000	5.690704
1852.000000	5.688319
1850.000000	5.684219
1848.000000	5.676533
1846.000000	5.657705
1844.000000	5.630230
1842.000000	5.641444
1840.000000	5.666501
1838.000000	5.667049
1836.000000	5.662518
1834.000000	5.660768
1832.000000	5.649899
1830.000000	5.627531
1828.000000	5.624896
1826.000000	5.627853
1824.000000	5.623989
1822.000000	5.631822
1820.000000	5.633448
1818.000000	5.628300
1816.000000	5.624447
1814.000000	5.621448
1812.000000	5.612424
1810.000000	5.603756
1808.000000	5.601768
1806.000000	5.600765
1804.000000	5.593592
1802.000000	5.577913
1800.000000	5.564165
1798.000000	5.564186
1796.000000	5.563239
1794.000000	5.539109
1792.000000	5.507895
1790.000000	5.518760
1788.000000	5.538995
1786.000000	5.532045
1784.000000	5.519742
1782.000000	5.516092
1780.000000	5.508748
1778.000000	5.505633
1776.000000	5.497763
1774.000000	5.459996
1772.000000	5.416525
1770.000000	5.428970
1768.000000	5.447188
1766.000000	5.458528
1764.000000	5.462532
1762.000000	5.438646
1760.000000	5.433635
1758.000000	5.436692
1756.000000	5.425687
1754.000000	5.420808
1752.000000	5.386374
1750.000000	5.355514
1748.000000	5.364398
1746.000000	5.374477
1744.000000	5.371192
1742.000000	5.354588
1740.000000	5.330437
1738.000000	5.326376
1736.000000	5.301395
1734.000000	5.225681
1732.000000	5.242581
1730.000000	5.307201
1728.000000	5.327234
1726.000000	5.330324
1724.000000	5.324525
1722.000000	5.318030
1720.000000	5.287480
1718.000000	5.212505
1716.000000	5.189760
1714.000000	5.239903
1712.000000	5.275713
1710.000000	5.282990
1708.000000	5.267476
1706.000000	5.242430
1704.000000	5.227934
1702.000000	5.186783
1700.000000	5.110589
1698.000000	5.120889
1696.000000	5.118377
1694.000000	5.148480
1692.000000	5.222398
1690.000000	5.232084
1688.000000	5.217302
1686.000000	5.148469
1684.000000	5.074253
1682.000000	5.129412
1680.000000	5.198520
1678.000000	5.202659
1676.000000	5.168094
1674.000000	5.149694
1672.000000	5.162550
1670.000000	5.139595
1668.000000	5.137151
1666.000000	5.164923
1664.000000	5.158605
1662.000000	5.137614
1660.000000	5.149352
1658.000000	5.154602
1656.000000	5.112402
1654.000000	4.979846
1652.000000	4.918073
1650.000000	5.026272
1648.000000	5.061469
1646.000000	5.022676
1644.000000	5.048664
1642.000000	5.087782
1640.000000	5.083955
1638.000000	5.048665
1636.000000	4.979759
1634.000000	4.973297
1632.000000	5.026274
1630.000000	5.034599
1628.000000	5.011281
1626.000000	4.988993
1624.000000	4.956665
1622.000000	4.931724
1620.000000	4.922881
1618.000000	4.865919
1616.000000	4.809395
1614.000000	4.827437
1612.000000	4.828600
1610.000000	4.791547
1608.000000	4.766130
1606.000000	4.762190
1604.000000	4.772327
1602.000000	4.784368
1600.000000	4.798182
1598.000000	4.809757
1596.000000	4.817663
1594.000000	4.823122
1592.000000	4.829714
1590.000000	4.831504
1588.000000	4.829622
1586.000000	4.824838
1584.000000	4.820391
1582.000000	4.817538
1580.000000	4.812881
1578.000000	4.774198
1576.000000	4.715134
1574.000000	4.743268
1572.000000	4.785154
1570.000000	4.759501
1568.000000	4.753542
1566.000000	4.765060
1564.000000	4.754294
1562.000000	4.706141
1560.000000	4.587306
1558.000000	4.535414
1556.000000	4.616244
1554.000000	4.676398
1552.000000	4.714018
1550.000000	4.737510
1548.000000	4.749610
1546.000000	4.745402
1544.000000	4.721061
1542.000000	4.679874
1540.000000	4.634807
1538.000000	4.677760
1536.000000	4.773709
1534.000000	4.790310
1532.000000	4.797511
1530.000000	4.824401
1528.000000	4.821375
1526.000000	4.800803
1524.000000	4.783839
1522.000000	4.740545
1520.000000	4.726418
1518.000000	4.757464
1516.000000	4.762238
1514.000000	4.765633
1512.000000	4.757910
1510.000000	4.736066
1508.000000	4.662163
1506.000000	4.589827
1504.000000	4.618808
1502.000000	4.627400
1500.000000	4.518273
1498.000000	4.337135
1496.000000	4.170521
1494.000000	4.122996
1492.000000	4.168388
1490.000000	4.248484
1488.000000	4.354803
1486.000000	4.455247
1484.000000	4.527170
1482.000000	4.563802
1480.000000	4.579878
1478.000000	4.580648
1476.000000	4.559848
1474.000000	4.521914
1472.000000	4.496404
1470.000000	4.519806
1468.000000	4.531539
1466.000000	4.498785
1464.000000	4.468641
1462.000000	4.463180
1460.000000	4.424040
1458.000000	4.320397
1456.000000	4.239042
1454.000000	4.238805
1452.000000	4.229077
1450.000000	4.221024
1448.000000	4.253181
1446.000000	4.309521
1444.000000	4.348409
1442.000000	4.359393
1440.000000	4.357531
1438.000000	4.330673
1436.000000	4.311599
1434.000000	4.344363
1432.000000	4.363034
1430.000000	4.357955
1428.000000	4.358972
1426.000000	4.363342
1424.000000	4.357428
1422.000000	4.345601
1420.000000	4.308153
1418.000000	4.291275
1416.000000	4.314497
1414.000000	4.319547
1412.000000	4.303391
1410.000000	4.277634
1408.000000	4.241510
1406.000000	4.193800
1404.000000	4.158165
1402.000000	4.154172
1400.000000	4.161454
1398.000000	4.179236
1396.000000	4.201938
1394.000000	4.218689
1392.000000	4.244426
1390.000000	4.253572
1388.000000	4.235168
1386.000000	4.218094
1384.000000	4.215929
1382.000000	4.220046
1380.000000	4.226924
1378.000000	4.226247
1376.000000	4.218176
1374.000000	4.207683
1372.000000	4.206705
1370.000000	4.204478
1368.000000	4.197126
1366.000000	4.189678
1364.000000	4.175571
1362.000000	4.162943
1360.000000	4.160919
1358.000000	4.157641
1356.000000	4.148391
1354.000000	4.136163
1352.000000	4.125613
1350.000000	4.115720
1348.000000	4.103687
1346.000000	4.090662
1344.000000	4.079179
1342.000000	4.064424
1340.000000	4.046436
1338.000000	4.036207
1336.000000	4.035374
1334.000000	4.033331
1332.000000	4.027137
1330.000000	4.018123
1328.000000	4.007699
1326.000000	3.994831
1324.000000	3.980725
1322.000000	3.964945
1320.000000	3.948282
1318.000000	3.932149
1316.000000	3.918252
1314.000000	3.902950
1312.000000	3.885318
1310.000000	3.867743
1308.000000	3.850786
1306.000000	3.832717
1304.000000	3.814593
1302.000000	3.797259
1300.000000	3.780052
1298.000000	3.761564
1296.000000	3.742774
1294.000000	3.723000
1292.000000	3.701921
1290.000000	3.680056
1288.000000	3.657872
1286.000000	3.636756
1284.000000	3.615880
1282.000000	3.591887
1280.000000	3.566554
1278.000000	3.539926
1276.000000	3.510850
1274.000000	3.476671
1272.000000	3.434895
1270.000000	3.383070
1268.000000	3.318843
1266.000000	3.238912
1264.000000	3.149858
1262.000000	3.070379
1260.000000	3.024819
1258.000000	3.020470
1256.000000	3.044148
1254.000000	3.071193
1252.000000	3.084278
1250.000000	3.079003
1248.000000	3.060859
1246.000000	3.036407
1244.000000	3.009006
1242.000000	2.979571
1240.000000	2.949859
1238.000000	2.920848
1236.000000	2.894033
1234.000000	2.867961
1232.000000	2.841585
1230.000000	2.814336
1228.000000	2.788419
1226.000000	2.762138
1224.000000	2.735229
1222.000000	2.707705
1220.000000	2.678971
1218.000000	2.650238
1216.000000	2.622326
1214.000000	2.593123
1212.000000	2.564363
1210.000000	2.537889
1208.000000	2.513735
1206.000000	2.490118
1204.000000	2.467514
1202.000000	2.444926
1200.000000	2.422762
1198.000000	2.399406
1196.000000	2.375638
1194.000000	2.351802
1192.000000	2.329213
1190.000000	2.305617
1188.000000	2.280090
1186.000000	2.252716
1184.000000	2.221598
1182.000000	2.181965
1180.000000	2.146132
1178.000000	2.127382
1176.000000	2.114255
1174.000000	2.094359
1172.000000	2.071161
1170.000000	2.045707
1168.000000	2.018568
1166.000000	1.992092
1164.000000	1.965940
1162.000000	1.939974
1160.000000	1.914156
1158.000000	1.888781
1156.000000	1.864927
1154.000000	1.840464
1152.000000	1.815929
1150.000000	1.793536
1148.000000	1.771379
1146.000000	1.746896
1144.000000	1.722090
1142.000000	1.699074
1140.000000	1.680290
1138.000000	1.663203
1136.000000	1.644776
1134.000000	1.624712
1132.000000	1.603362
1130.000000	1.580258
1128.000000	1.555651
1126.000000	1.533365
1124.000000	1.511175
1122.000000	1.485403
1120.000000	1.460315
1118.000000	1.435677
1116.000000	1.409819
1114.000000	1.384241
1112.000000	1.359356
1110.000000	1.334295
1108.000000	1.310092
1106.000000	1.285265
1104.000000	1.261400
1102.000000	1.239324
1100.000000	1.217951
1098.000000	1.196902
1096.000000	1.175391
1094.000000	1.153931
1092.000000	1.134827
1090.000000	1.116230
1088.000000	1.098089
1086.000000	1.081855
1084.000000	1.066304
1082.000000	1.047735
1080.000000	1.030098
1078.000000	1.014522
1076.000000	1.000219
1074.000000	0.988882
1072.000000	0.979348
1070.000000	0.968329
1068.000000	0.958125
1066.000000	0.947190
1064.000000	0.936077
1062.000000	0.925906
1060.000000	0.914506
1058.000000	0.899328
1056.000000	0.880160
1054.000000	0.855229
1052.000000	0.829222
1050.000000	0.811818
1048.000000	0.808582
1046.000000	0.813536
1044.000000	0.814968
1042.000000	0.809123
1040.000000	0.801443
1038.000000	0.791942
1036.000000	0.780657
1034.000000	0.768821
1032.000000	0.756014
1030.000000	0.743869
1028.000000	0.731981
1026.000000	0.718013
1024.000000	0.703994
1022.000000	0.691652
1020.000000	0.678957
1018.000000	0.666792
1016.000000	0.656088
1014.000000	0.646608
1012.000000	0.640428
1010.000000	0.634921
1008.000000	0.627573
1006.000000	0.620137
1004.000000	0.612444
1002.000000	0.603191
1000.000000	0.592176
