PE IR       SUBTECH     SPECTRUM    ASCII       PEDS        4.00        
   -1
TE108B1_025_120K.ASC
20/02/21
15:47:36.00
20/02/21
15:47:36.00
Administrator
Sample 025 By Administrator Date Friday, February 21 2020
1500.000000
#HDR
-1
-1
#GR
cm-1
A
1.0
0.0
4000.000000
-1.000000
2501
8
0.997903
0.931724
#DATA
4000.000000	0.943677
3999.000000	0.943638
3998.000000	0.943605
3997.000000	0.943588
3996.000000	0.943584
3995.000000	0.943577
3994.000000	0.943548
3993.000000	0.943499
3992.000000	0.943453
3991.000000	0.943435
3990.000000	0.943445
3989.000000	0.943464
3988.000000	0.943468
3987.000000	0.943453
3986.000000	0.943431
3985.000000	0.943405
3984.000000	0.943368
3983.000000	0.943311
3982.000000	0.943246
3981.000000	0.943199
3980.000000	0.943188
3979.000000	0.943201
3978.000000	0.943206
3977.000000	0.943183
3976.000000	0.943140
3975.000000	0.943100
3974.000000	0.943071
3973.000000	0.943041
3972.000000	0.942992
3971.000000	0.942924
3970.000000	0.942852
3969.000000	0.942788
3968.000000	0.942732
3967.000000	0.942675
3966.000000	0.942609
3965.000000	0.942540
3964.000000	0.942475
3963.000000	0.942415
3962.000000	0.942351
3961.000000	0.942279
3960.000000	0.942207
3959.000000	0.942152
3958.000000	0.942117
3957.000000	0.942084
3956.000000	0.942026
3955.000000	0.941934
3954.000000	0.941825
3953.000000	0.941728
3952.000000	0.941655
3951.000000	0.941591
3950.000000	0.941517
3949.000000	0.941434
3948.000000	0.941366
3947.000000	0.941326
3946.000000	0.941294
3945.000000	0.941227
3944.000000	0.941110
3943.000000	0.940971
3942.000000	0.940859
3941.000000	0.940792
3940.000000	0.940742
3939.000000	0.940676
3938.000000	0.940591
3937.000000	0.940509
3936.000000	0.940441
3935.000000	0.940365
3934.000000	0.940247
3933.000000	0.940084
3932.000000	0.939918
3931.000000	0.939802
3930.000000	0.939746
3929.000000	0.939717
3928.000000	0.939672
3927.000000	0.939596
3926.000000	0.939503
3925.000000	0.939410
3924.000000	0.939316
3923.000000	0.939208
3922.000000	0.939082
3921.000000	0.938948
3920.000000	0.938818
3919.000000	0.938691
3918.000000	0.938559
3917.000000	0.938429
3916.000000	0.938324
3915.000000	0.938261
3914.000000	0.938231
3913.000000	0.938196
3912.000000	0.938125
3911.000000	0.938020
3910.000000	0.937908
3909.000000	0.937801
3908.000000	0.937682
3907.000000	0.937522
3906.000000	0.937315
3905.000000	0.937090
3904.000000	0.936893
3903.000000	0.936750
3902.000000	0.936650
3901.000000	0.936569
3900.000000	0.936507
3899.000000	0.936484
3898.000000	0.936511
3897.000000	0.936563
3896.000000	0.936587
3895.000000	0.936531
3894.000000	0.936386
3893.000000	0.936193
3892.000000	0.936017
3891.000000	0.935910
3890.000000	0.935872
3889.000000	0.935854
3888.000000	0.935796
3887.000000	0.935680
3886.000000	0.935542
3885.000000	0.935443
3884.000000	0.935410
3883.000000	0.935413
3882.000000	0.935391
3881.000000	0.935313
3880.000000	0.935203
3879.000000	0.935114
3878.000000	0.935072
3877.000000	0.935058
3876.000000	0.935032
3875.000000	0.934971
3874.000000	0.934868
3873.000000	0.934723
3872.000000	0.934534
3871.000000	0.934326
3870.000000	0.934146
3869.000000	0.934040
3868.000000	0.934009
3867.000000	0.934008
3866.000000	0.933992
3865.000000	0.933954
3864.000000	0.933924
3863.000000	0.933926
3862.000000	0.933952
3861.000000	0.933980
3860.000000	0.933994
3859.000000	0.933977
3858.000000	0.933881
3857.000000	0.933631
3856.000000	0.933197
3855.000000	0.932662
3854.000000	0.932210
3853.000000	0.932020
3852.000000	0.932145
3851.000000	0.932491
3850.000000	0.932888
3849.000000	0.933195
3848.000000	0.933355
3847.000000	0.933383
3846.000000	0.933324
3845.000000	0.933229
3844.000000	0.933138
3843.000000	0.933067
3842.000000	0.932991
3841.000000	0.932853
3840.000000	0.932621
3839.000000	0.932340
3838.000000	0.932118
3837.000000	0.932050
3836.000000	0.932141
3835.000000	0.932312
3834.000000	0.932463
3833.000000	0.932546
3832.000000	0.932577
3831.000000	0.932593
3830.000000	0.932615
3829.000000	0.932632
3828.000000	0.932631
3827.000000	0.932614
3826.000000	0.932586
3825.000000	0.932532
3824.000000	0.932419
3823.000000	0.932245
3822.000000	0.932067
3821.000000	0.931971
3820.000000	0.931985
3819.000000	0.932034
3818.000000	0.932009
3817.000000	0.931880
3816.000000	0.931742
3815.000000	0.931724
3814.000000	0.931872
3813.000000	0.932111
3812.000000	0.932327
3811.000000	0.932443
3810.000000	0.932434
3809.000000	0.932314
3808.000000	0.932134
3807.000000	0.931992
3806.000000	0.931967
3805.000000	0.932039
3804.000000	0.932088
3803.000000	0.932014
3802.000000	0.931855
3801.000000	0.931763
3800.000000	0.931854
3799.000000	0.932091
3798.000000	0.932333
3797.000000	0.932472
3796.000000	0.932519
3795.000000	0.932561
3794.000000	0.932654
3793.000000	0.932774
3792.000000	0.932861
3791.000000	0.932885
3790.000000	0.932870
3789.000000	0.932855
3788.000000	0.932863
3787.000000	0.932887
3786.000000	0.932916
3785.000000	0.932949
3784.000000	0.932993
3783.000000	0.933042
3782.000000	0.933076
3781.000000	0.933078
3780.000000	0.933064
3779.000000	0.933074
3778.000000	0.933130
3777.000000	0.933211
3776.000000	0.933271
3775.000000	0.933291
3774.000000	0.933293
3773.000000	0.933304
3772.000000	0.933323
3771.000000	0.933328
3770.000000	0.933311
3769.000000	0.933294
3768.000000	0.933305
3767.000000	0.933354
3766.000000	0.933429
3765.000000	0.933509
3764.000000	0.933578
3763.000000	0.933626
3762.000000	0.933653
3761.000000	0.933665
3760.000000	0.933668
3759.000000	0.933677
3758.000000	0.933711
3757.000000	0.933777
3756.000000	0.933844
3755.000000	0.933844
3754.000000	0.933715
3753.000000	0.933469
3752.000000	0.933204
3751.000000	0.933056
3750.000000	0.933102
3749.000000	0.933301
3748.000000	0.933511
3747.000000	0.933582
3746.000000	0.933479
3745.000000	0.933324
3744.000000	0.933318
3743.000000	0.933570
3742.000000	0.934015
3741.000000	0.934469
3740.000000	0.934769
3739.000000	0.934859
3738.000000	0.934785
3737.000000	0.934641
3736.000000	0.934519
3735.000000	0.934483
3734.000000	0.934546
3733.000000	0.934683
3732.000000	0.934863
3731.000000	0.935080
3730.000000	0.935329
3729.000000	0.935574
3728.000000	0.935761
3727.000000	0.935862
3726.000000	0.935911
3725.000000	0.935971
3724.000000	0.936082
3723.000000	0.936240
3722.000000	0.936415
3721.000000	0.936583
3720.000000	0.936741
3719.000000	0.936899
3718.000000	0.937072
3717.000000	0.937254
3716.000000	0.937410
3715.000000	0.937498
3714.000000	0.937509
3713.000000	0.937492
3712.000000	0.937534
3711.000000	0.937699
3710.000000	0.937988
3709.000000	0.938349
3708.000000	0.938724
3707.000000	0.939077
3706.000000	0.939398
3705.000000	0.939681
3704.000000	0.939930
3703.000000	0.940172
3702.000000	0.940451
3701.000000	0.940799
3700.000000	0.941200
3699.000000	0.941604
3698.000000	0.941968
3697.000000	0.942293
3696.000000	0.942617
3695.000000	0.942961
3694.000000	0.943306
3693.000000	0.943606
3692.000000	0.943827
3691.000000	0.943980
3690.000000	0.944125
3689.000000	0.944348
3688.000000	0.944724
3687.000000	0.945276
3686.000000	0.945950
3685.000000	0.946649
3684.000000	0.947285
3683.000000	0.947825
3682.000000	0.948295
3681.000000	0.948740
3680.000000	0.949176
3679.000000	0.949579
3678.000000	0.949907
3677.000000	0.950173
3676.000000	0.950472
3675.000000	0.950927
3674.000000	0.951563
3673.000000	0.952262
3672.000000	0.952872
3671.000000	0.953350
3670.000000	0.953812
3669.000000	0.954405
3668.000000	0.955161
3667.000000	0.955983
3666.000000	0.956750
3665.000000	0.957419
3664.000000	0.958024
3663.000000	0.958615
3662.000000	0.959199
3661.000000	0.959754
3660.000000	0.960255
3659.000000	0.960701
3658.000000	0.961115
3657.000000	0.961538
3656.000000	0.962007
3655.000000	0.962524
3654.000000	0.963042
3653.000000	0.963488
3652.000000	0.963825
3651.000000	0.964091
3650.000000	0.964382
3649.000000	0.964789
3648.000000	0.965341
3647.000000	0.965996
3646.000000	0.966673
3645.000000	0.967296
3644.000000	0.967828
3643.000000	0.968283
3642.000000	0.968695
3641.000000	0.969094
3640.000000	0.969479
3639.000000	0.969837
3638.000000	0.970161
3637.000000	0.970458
3636.000000	0.970742
3635.000000	0.971026
3634.000000	0.971310
3633.000000	0.971566
3632.000000	0.971750
3631.000000	0.971843
3630.000000	0.971901
3629.000000	0.972037
3628.000000	0.972336
3627.000000	0.972786
3626.000000	0.973289
3625.000000	0.973737
3624.000000	0.974068
3623.000000	0.974271
3622.000000	0.974367
3621.000000	0.974407
3620.000000	0.974462
3619.000000	0.974593
3618.000000	0.974812
3617.000000	0.975079
3616.000000	0.975338
3615.000000	0.975560
3614.000000	0.975745
3613.000000	0.975900
3612.000000	0.976014
3611.000000	0.976087
3610.000000	0.976146
3609.000000	0.976245
3608.000000	0.976422
3607.000000	0.976664
3606.000000	0.976909
3605.000000	0.977098
3604.000000	0.977213
3603.000000	0.977281
3602.000000	0.977336
3601.000000	0.977403
3600.000000	0.977491
3599.000000	0.977596
3598.000000	0.977704
3597.000000	0.977794
3596.000000	0.977850
3595.000000	0.977879
3594.000000	0.977915
3593.000000	0.977984
3592.000000	0.978076
3591.000000	0.978142
3590.000000	0.978142
3589.000000	0.978087
3588.000000	0.978046
3587.000000	0.978088
3586.000000	0.978223
3585.000000	0.978390
3584.000000	0.978519
3583.000000	0.978584
3582.000000	0.978611
3581.000000	0.978636
3580.000000	0.978663
3579.000000	0.978679
3578.000000	0.978681
3577.000000	0.978691
3576.000000	0.978734
3575.000000	0.978803
3574.000000	0.978867
3573.000000	0.978896
3572.000000	0.978887
3571.000000	0.978857
3570.000000	0.978819
3569.000000	0.978767
3568.000000	0.978699
3567.000000	0.978635
3566.000000	0.978610
3565.000000	0.978649
3564.000000	0.978738
3563.000000	0.978835
3562.000000	0.978908
3561.000000	0.978952
3560.000000	0.978984
3559.000000	0.979018
3558.000000	0.979053
3557.000000	0.979082
3556.000000	0.979102
3555.000000	0.979116
3554.000000	0.979130
3553.000000	0.979141
3552.000000	0.979149
3551.000000	0.979157
3550.000000	0.979168
3549.000000	0.979180
3548.000000	0.979188
3547.000000	0.979187
3546.000000	0.979184
3545.000000	0.979197
3544.000000	0.979240
3543.000000	0.979314
3542.000000	0.979392
3541.000000	0.979443
3540.000000	0.979459
3539.000000	0.979463
3538.000000	0.979483
3537.000000	0.979525
3536.000000	0.979563
3535.000000	0.979581
3534.000000	0.979588
3533.000000	0.979610
3532.000000	0.979664
3531.000000	0.979732
3530.000000	0.979782
3529.000000	0.979797
3528.000000	0.979792
3527.000000	0.979797
3526.000000	0.979825
3525.000000	0.979868
3524.000000	0.979913
3523.000000	0.979972
3522.000000	0.980063
3521.000000	0.980178
3520.000000	0.980281
3519.000000	0.980339
3518.000000	0.980360
3517.000000	0.980384
3516.000000	0.980442
3515.000000	0.980530
3514.000000	0.980620
3513.000000	0.980699
3512.000000	0.980781
3511.000000	0.980888
3510.000000	0.981016
3509.000000	0.981132
3508.000000	0.981210
3507.000000	0.981254
3506.000000	0.981293
3505.000000	0.981348
3504.000000	0.981416
3503.000000	0.981484
3502.000000	0.981551
3501.000000	0.981636
3500.000000	0.981757
3499.000000	0.981907
3498.000000	0.982052
3497.000000	0.982162
3496.000000	0.982239
3495.000000	0.982317
3494.000000	0.982429
3493.000000	0.982571
3492.000000	0.982704
3491.000000	0.982793
3490.000000	0.982841
3489.000000	0.982885
3488.000000	0.982958
3487.000000	0.983064
3486.000000	0.983184
3485.000000	0.983300
3484.000000	0.983416
3483.000000	0.983539
3482.000000	0.983668
3481.000000	0.983784
3480.000000	0.983877
3479.000000	0.983960
3478.000000	0.984059
3477.000000	0.984186
3476.000000	0.984324
3475.000000	0.984448
3474.000000	0.984554
3473.000000	0.984657
3472.000000	0.984765
3471.000000	0.984868
3470.000000	0.984948
3469.000000	0.985014
3468.000000	0.985102
3467.000000	0.985244
3466.000000	0.985438
3465.000000	0.985643
3464.000000	0.985816
3463.000000	0.985944
3462.000000	0.986052
3461.000000	0.986164
3460.000000	0.986285
3459.000000	0.986406
3458.000000	0.986522
3457.000000	0.986650
3456.000000	0.986803
3455.000000	0.986972
3454.000000	0.987128
3453.000000	0.987256
3452.000000	0.987370
3451.000000	0.987501
3450.000000	0.987659
3449.000000	0.987815
3448.000000	0.987934
3447.000000	0.988011
3446.000000	0.988084
3445.000000	0.988190
3444.000000	0.988332
3443.000000	0.988475
3442.000000	0.988596
3441.000000	0.988700
3440.000000	0.988813
3439.000000	0.988945
3438.000000	0.989076
3437.000000	0.989177
3436.000000	0.989247
3435.000000	0.989316
3434.000000	0.989414
3433.000000	0.989544
3432.000000	0.989683
3431.000000	0.989808
3430.000000	0.989924
3429.000000	0.990058
3428.000000	0.990226
3427.000000	0.990411
3426.000000	0.990573
3425.000000	0.990689
3424.000000	0.990774
3423.000000	0.990861
3422.000000	0.990973
3421.000000	0.991097
3420.000000	0.991211
3419.000000	0.991311
3418.000000	0.991411
3417.000000	0.991523
3416.000000	0.991639
3415.000000	0.991742
3414.000000	0.991828
3413.000000	0.991907
3412.000000	0.991994
3411.000000	0.992085
3410.000000	0.992165
3409.000000	0.992223
3408.000000	0.992270
3407.000000	0.992328
3406.000000	0.992406
3405.000000	0.992491
3404.000000	0.992563
3403.000000	0.992618
3402.000000	0.992675
3401.000000	0.992750
3400.000000	0.992833
3399.000000	0.992901
3398.000000	0.992942
3397.000000	0.992975
3396.000000	0.993023
3395.000000	0.993091
3394.000000	0.993154
3393.000000	0.993193
3392.000000	0.993218
3391.000000	0.993256
3390.000000	0.993323
3389.000000	0.993401
3388.000000	0.993464
3387.000000	0.993502
3386.000000	0.993527
3385.000000	0.993559
3384.000000	0.993609
3383.000000	0.993669
3382.000000	0.993719
3381.000000	0.993750
3380.000000	0.993774
3379.000000	0.993810
3378.000000	0.993856
3377.000000	0.993889
3376.000000	0.993888
3375.000000	0.993873
3374.000000	0.993877
3373.000000	0.993912
3372.000000	0.993951
3371.000000	0.993968
3370.000000	0.993975
3369.000000	0.994005
3368.000000	0.994065
3367.000000	0.994125
3366.000000	0.994149
3365.000000	0.994135
3364.000000	0.994123
3363.000000	0.994145
3362.000000	0.994197
3361.000000	0.994242
3360.000000	0.994254
3359.000000	0.994242
3358.000000	0.994241
3357.000000	0.994268
3356.000000	0.994306
3355.000000	0.994324
3354.000000	0.994315
3353.000000	0.994304
3352.000000	0.994320
3351.000000	0.994371
3350.000000	0.994440
3349.000000	0.994500
3348.000000	0.994538
3347.000000	0.994558
3346.000000	0.994567
3345.000000	0.994567
3344.000000	0.994549
3343.000000	0.994514
3342.000000	0.994479
3341.000000	0.994463
3340.000000	0.994475
3339.000000	0.994504
3338.000000	0.994536
3337.000000	0.994572
3336.000000	0.994619
3335.000000	0.994677
3334.000000	0.994727
3333.000000	0.994749
3332.000000	0.994744
3331.000000	0.994738
3330.000000	0.994756
3329.000000	0.994794
3328.000000	0.994827
3327.000000	0.994831
3326.000000	0.994816
3325.000000	0.994817
3324.000000	0.994852
3323.000000	0.994905
3322.000000	0.994942
3321.000000	0.994956
3320.000000	0.994974
3319.000000	0.995020
3318.000000	0.995085
3317.000000	0.995135
3316.000000	0.995151
3315.000000	0.995151
3314.000000	0.995164
3313.000000	0.995195
3312.000000	0.995226
3311.000000	0.995241
3310.000000	0.995248
3309.000000	0.995267
3308.000000	0.995300
3307.000000	0.995331
3306.000000	0.995345
3305.000000	0.995354
3304.000000	0.995387
3303.000000	0.995461
3302.000000	0.995552
3301.000000	0.995617
3300.000000	0.995631
3299.000000	0.995613
3298.000000	0.995604
3297.000000	0.995631
3296.000000	0.995688
3295.000000	0.995740
3294.000000	0.995762
3293.000000	0.995756
3292.000000	0.995754
3291.000000	0.995782
3290.000000	0.995842
3289.000000	0.995908
3288.000000	0.995961
3287.000000	0.996003
3286.000000	0.996041
3285.000000	0.996072
3284.000000	0.996083
3283.000000	0.996070
3282.000000	0.996052
3281.000000	0.996050
3280.000000	0.996073
3279.000000	0.996110
3278.000000	0.996144
3277.000000	0.996166
3276.000000	0.996183
3275.000000	0.996206
3274.000000	0.996234
3273.000000	0.996251
3272.000000	0.996256
3271.000000	0.996273
3270.000000	0.996326
3269.000000	0.996411
3268.000000	0.996485
3267.000000	0.996516
3266.000000	0.996518
3265.000000	0.996533
3264.000000	0.996586
3263.000000	0.996657
3262.000000	0.996705
3261.000000	0.996714
3260.000000	0.996709
3259.000000	0.996726
3258.000000	0.996771
3257.000000	0.996816
3256.000000	0.996839
3255.000000	0.996845
3254.000000	0.996860
3253.000000	0.996895
3252.000000	0.996934
3251.000000	0.996956
3250.000000	0.996961
3249.000000	0.996974
3248.000000	0.997016
3247.000000	0.997081
3246.000000	0.997139
3245.000000	0.997161
3244.000000	0.997152
3243.000000	0.997139
3242.000000	0.997144
3241.000000	0.997160
3240.000000	0.997163
3239.000000	0.997149
3238.000000	0.997136
3237.000000	0.997145
3236.000000	0.997176
3235.000000	0.997211
3234.000000	0.997237
3233.000000	0.997254
3232.000000	0.997275
3231.000000	0.997307
3230.000000	0.997344
3229.000000	0.997370
3228.000000	0.997382
3227.000000	0.997401
3226.000000	0.997447
3225.000000	0.997515
3224.000000	0.997564
3223.000000	0.997560
3222.000000	0.997513
3221.000000	0.997472
3220.000000	0.997474
3219.000000	0.997515
3218.000000	0.997560
3217.000000	0.997587
3216.000000	0.997599
3215.000000	0.997609
3214.000000	0.997617
3213.000000	0.997609
3212.000000	0.997584
3211.000000	0.997559
3210.000000	0.997561
3209.000000	0.997593
3208.000000	0.997630
3207.000000	0.997643
3206.000000	0.997627
3205.000000	0.997607
3204.000000	0.997606
3203.000000	0.997623
3202.000000	0.997636
3201.000000	0.997628
3200.000000	0.997608
3199.000000	0.997599
3198.000000	0.997610
3197.000000	0.997623
3196.000000	0.997622
3195.000000	0.997610
3194.000000	0.997608
3193.000000	0.997623
3192.000000	0.997639
3191.000000	0.997631
3190.000000	0.997600
3189.000000	0.997571
3188.000000	0.997567
3187.000000	0.997590
3186.000000	0.997618
3185.000000	0.997631
3184.000000	0.997632
3183.000000	0.997643
3182.000000	0.997674
3181.000000	0.997709
3180.000000	0.997716
3179.000000	0.997685
3178.000000	0.997643
3177.000000	0.997634
3176.000000	0.997669
3175.000000	0.997720
3174.000000	0.997749
3173.000000	0.997748
3172.000000	0.997736
3171.000000	0.997731
3170.000000	0.997724
3169.000000	0.997696
3168.000000	0.997649
3167.000000	0.997618
3166.000000	0.997631
3165.000000	0.997678
3164.000000	0.997719
3163.000000	0.997726
3162.000000	0.997710
3161.000000	0.997701
3160.000000	0.997713
3159.000000	0.997729
3158.000000	0.997732
3157.000000	0.997720
3156.000000	0.997710
3155.000000	0.997714
3154.000000	0.997727
3153.000000	0.997735
3152.000000	0.997735
3151.000000	0.997740
3150.000000	0.997764
3149.000000	0.997801
3148.000000	0.997828
3147.000000	0.997827
3146.000000	0.997803
3145.000000	0.997779
3144.000000	0.997773
3143.000000	0.997787
3142.000000	0.997805
3141.000000	0.997812
3140.000000	0.997805
3139.000000	0.997802
3138.000000	0.997815
3137.000000	0.997842
3136.000000	0.997866
3135.000000	0.997877
3134.000000	0.997884
3133.000000	0.997894
3132.000000	0.997903
3131.000000	0.997900
3130.000000	0.997884
3129.000000	0.997869
3128.000000	0.997869
3127.000000	0.997879
3126.000000	0.997887
3125.000000	0.997881
3124.000000	0.997866
3123.000000	0.997858
3122.000000	0.997868
3121.000000	0.997890
3120.000000	0.997900
3119.000000	0.997883
3118.000000	0.997853
3117.000000	0.997837
3116.000000	0.997847
3115.000000	0.997866
3114.000000	0.997869
3113.000000	0.997851
3112.000000	0.997828
3111.000000	0.997815
3110.000000	0.997809
3109.000000	0.997794
3108.000000	0.997765
3107.000000	0.997733
3106.000000	0.997713
3105.000000	0.997703
3104.000000	0.997686
3103.000000	0.997652
3102.000000	0.997617
3101.000000	0.997607
3100.000000	0.997623
3099.000000	0.997631
3098.000000	0.997591
3097.000000	0.997499
3096.000000	0.997393
3095.000000	0.997316
3094.000000	0.997280
3093.000000	0.997265
3092.000000	0.997249
3091.000000	0.997221
3090.000000	0.997186
3089.000000	0.997152
3088.000000	0.997114
3087.000000	0.997062
3086.000000	0.996996
3085.000000	0.996933
3084.000000	0.996895
3083.000000	0.996877
3082.000000	0.996849
3081.000000	0.996784
3080.000000	0.996696
3079.000000	0.996630
3078.000000	0.996614
3077.000000	0.996628
3076.000000	0.996630
3075.000000	0.996597
3074.000000	0.996544
3073.000000	0.996494
3072.000000	0.996451
3071.000000	0.996401
3070.000000	0.996337
3069.000000	0.996269
3068.000000	0.996215
3067.000000	0.996183
3066.000000	0.996160
3065.000000	0.996126
3064.000000	0.996078
3063.000000	0.996030
3062.000000	0.995993
3061.000000	0.995959
3060.000000	0.995903
3059.000000	0.995824
3058.000000	0.995743
3057.000000	0.995683
3056.000000	0.995642
3055.000000	0.995602
3054.000000	0.995550
3053.000000	0.995499
3052.000000	0.995462
3051.000000	0.995438
3050.000000	0.995411
3049.000000	0.995361
3048.000000	0.995290
3047.000000	0.995219
3046.000000	0.995171
3045.000000	0.995143
3044.000000	0.995112
3043.000000	0.995056
3042.000000	0.994987
3041.000000	0.994935
3040.000000	0.994907
3039.000000	0.994873
3038.000000	0.994805
3037.000000	0.994713
3036.000000	0.994641
3035.000000	0.994625
3034.000000	0.994646
3033.000000	0.994646
3032.000000	0.994581
3031.000000	0.994468
3030.000000	0.994368
3029.000000	0.994329
3028.000000	0.994338
3027.000000	0.994344
3026.000000	0.994313
3025.000000	0.994256
3024.000000	0.994206
3023.000000	0.994169
3022.000000	0.994121
3021.000000	0.994046
3020.000000	0.993961
3019.000000	0.993895
3018.000000	0.993847
3017.000000	0.993787
3016.000000	0.993687
3015.000000	0.993562
3014.000000	0.993460
3013.000000	0.993415
3012.000000	0.993411
3011.000000	0.993403
3010.000000	0.993359
3009.000000	0.993293
3008.000000	0.993240
3007.000000	0.993213
3006.000000	0.993187
3005.000000	0.993128
3004.000000	0.993034
3003.000000	0.992943
3002.000000	0.992889
3001.000000	0.992858
3000.000000	0.992800
2999.000000	0.992689
2998.000000	0.992552
2997.000000	0.992446
2996.000000	0.992394
2995.000000	0.992358
2994.000000	0.992287
2993.000000	0.992168
2992.000000	0.992043
2991.000000	0.991955
2990.000000	0.991903
2989.000000	0.991849
2988.000000	0.991762
2987.000000	0.991655
2986.000000	0.991562
2985.000000	0.991497
2984.000000	0.991440
2983.000000	0.991370
2982.000000	0.991292
2981.000000	0.991232
2980.000000	0.991199
2979.000000	0.991172
2978.000000	0.991113
2977.000000	0.991013
2976.000000	0.990900
2975.000000	0.990814
2974.000000	0.990767
2973.000000	0.990729
2972.000000	0.990660
2971.000000	0.990552
2970.000000	0.990434
2969.000000	0.990340
2968.000000	0.990269
2967.000000	0.990193
2966.000000	0.990092
2965.000000	0.989978
2964.000000	0.989876
2963.000000	0.989789
2962.000000	0.989688
2961.000000	0.989542
2960.000000	0.989358
2959.000000	0.989173
2958.000000	0.989019
2957.000000	0.988893
2956.000000	0.988767
2955.000000	0.988629
2954.000000	0.988496
2953.000000	0.988390
2952.000000	0.988296
2951.000000	0.988175
2950.000000	0.988010
2949.000000	0.987834
2948.000000	0.987699
2947.000000	0.987621
2946.000000	0.987558
2945.000000	0.987459
2944.000000	0.987315
2943.000000	0.987172
2942.000000	0.987070
2941.000000	0.986998
2940.000000	0.986905
2939.000000	0.986753
2938.000000	0.986561
2937.000000	0.986388
2936.000000	0.986271
2935.000000	0.986194
2934.000000	0.986105
2933.000000	0.985978
2932.000000	0.985830
2931.000000	0.985698
2930.000000	0.985586
2929.000000	0.985463
2928.000000	0.985299
2927.000000	0.985100
2926.000000	0.984899
2925.000000	0.984716
2924.000000	0.984541
2923.000000	0.984358
2922.000000	0.984168
2921.000000	0.983993
2920.000000	0.983842
2919.000000	0.983696
2918.000000	0.983522
2917.000000	0.983313
2916.000000	0.983103
2915.000000	0.982937
2914.000000	0.982819
2913.000000	0.982708
2912.000000	0.982563
2911.000000	0.982391
2910.000000	0.982234
2909.000000	0.982118
2908.000000	0.982018
2907.000000	0.981886
2906.000000	0.981701
2905.000000	0.981491
2904.000000	0.981302
2903.000000	0.981160
2902.000000	0.981047
2901.000000	0.980930
2900.000000	0.980792
2899.000000	0.980652
2898.000000	0.980530
2897.000000	0.980413
2896.000000	0.980265
2895.000000	0.980069
2894.000000	0.979857
2893.000000	0.979681
2892.000000	0.979551
2891.000000	0.979431
2890.000000	0.979277
2889.000000	0.979088
2888.000000	0.978901
2887.000000	0.978745
2886.000000	0.978613
2885.000000	0.978475
2884.000000	0.978316
2883.000000	0.978147
2882.000000	0.977993
2881.000000	0.977859
2880.000000	0.977725
2879.000000	0.977568
2878.000000	0.977391
2877.000000	0.977226
2876.000000	0.977095
2875.000000	0.976980
2874.000000	0.976841
2873.000000	0.976663
2872.000000	0.976477
2871.000000	0.976332
2870.000000	0.976234
2869.000000	0.976142
2868.000000	0.976008
2867.000000	0.975824
2866.000000	0.975626
2865.000000	0.975452
2864.000000	0.975302
2863.000000	0.975145
2862.000000	0.974958
2861.000000	0.974757
2860.000000	0.974577
2859.000000	0.974434
2858.000000	0.974309
2857.000000	0.974175
2856.000000	0.974033
2855.000000	0.973906
2854.000000	0.973804
2853.000000	0.973707
2852.000000	0.973580
2851.000000	0.973419
2850.000000	0.973255
2849.000000	0.973121
2848.000000	0.973019
2847.000000	0.972920
2846.000000	0.972801
2845.000000	0.972668
2844.000000	0.972548
2843.000000	0.972457
2842.000000	0.972380
2841.000000	0.972283
2840.000000	0.972155
2839.000000	0.972019
2838.000000	0.971908
2837.000000	0.971831
2836.000000	0.971760
2835.000000	0.971665
2834.000000	0.971548
2833.000000	0.971437
2832.000000	0.971349
2831.000000	0.971266
2830.000000	0.971164
2829.000000	0.971041
2828.000000	0.970927
2827.000000	0.970845
2826.000000	0.970785
2825.000000	0.970712
2824.000000	0.970601
2823.000000	0.970464
2822.000000	0.970336
2821.000000	0.970240
2820.000000	0.970163
2819.000000	0.970078
2818.000000	0.969972
2817.000000	0.969866
2816.000000	0.969783
2815.000000	0.969716
2814.000000	0.969635
2813.000000	0.969522
2812.000000	0.969395
2811.000000	0.969289
2810.000000	0.969213
2809.000000	0.969144
2808.000000	0.969057
2807.000000	0.968957
2806.000000	0.968876
2805.000000	0.968831
2804.000000	0.968801
2803.000000	0.968741
2802.000000	0.968632
2801.000000	0.968508
2800.000000	0.968425
2799.000000	0.968397
2798.000000	0.968382
2797.000000	0.968331
2796.000000	0.968240
2795.000000	0.968153
2794.000000	0.968097
2793.000000	0.968052
2792.000000	0.967975
2791.000000	0.967856
2790.000000	0.967729
2789.000000	0.967638
2788.000000	0.967595
2787.000000	0.967570
2786.000000	0.967532
2785.000000	0.967475
2784.000000	0.967422
2783.000000	0.967384
2782.000000	0.967343
2781.000000	0.967271
2780.000000	0.967166
2779.000000	0.967061
2778.000000	0.966993
2777.000000	0.966969
2776.000000	0.966957
2775.000000	0.966931
2774.000000	0.966888
2773.000000	0.966850
2772.000000	0.966826
2771.000000	0.966802
2770.000000	0.966747
2769.000000	0.966657
2768.000000	0.966563
2767.000000	0.966506
2766.000000	0.966488
2765.000000	0.966471
2764.000000	0.966420
2763.000000	0.966341
2762.000000	0.966274
2761.000000	0.966238
2760.000000	0.966217
2759.000000	0.966178
2758.000000	0.966119
2757.000000	0.966067
2756.000000	0.966053
2755.000000	0.966073
2754.000000	0.966089
2753.000000	0.966069
2752.000000	0.966020
2751.000000	0.965972
2750.000000	0.965943
2749.000000	0.965919
2748.000000	0.965875
2747.000000	0.965806
2746.000000	0.965743
2745.000000	0.965718
2744.000000	0.965728
2743.000000	0.965739
2742.000000	0.965720
2741.000000	0.965677
2740.000000	0.965652
2739.000000	0.965665
2738.000000	0.965690
2737.000000	0.965681
2736.000000	0.965627
2735.000000	0.965567
2734.000000	0.965541
2733.000000	0.965544
2732.000000	0.965535
2731.000000	0.965488
2730.000000	0.965421
2729.000000	0.965378
2728.000000	0.965377
2727.000000	0.965396
2726.000000	0.965396
2725.000000	0.965372
2724.000000	0.965354
2723.000000	0.965369
2722.000000	0.965400
2721.000000	0.965403
2720.000000	0.965364
2719.000000	0.965320
2718.000000	0.965317
2717.000000	0.965348
2716.000000	0.965369
2715.000000	0.965349
2714.000000	0.965308
2713.000000	0.965289
2712.000000	0.965313
2711.000000	0.965359
2710.000000	0.965389
2709.000000	0.965384
2708.000000	0.965362
2707.000000	0.965353
2706.000000	0.965361
2705.000000	0.965356
2704.000000	0.965312
2703.000000	0.965257
2702.000000	0.965247
2701.000000	0.965301
2700.000000	0.965379
2699.000000	0.965415
2698.000000	0.965393
2697.000000	0.965358
2696.000000	0.965362
2695.000000	0.965412
2694.000000	0.965470
2693.000000	0.965496
2692.000000	0.965495
2691.000000	0.965506
2690.000000	0.965553
2689.000000	0.965610
2688.000000	0.965631
2687.000000	0.965604
2686.000000	0.965574
2685.000000	0.965583
2684.000000	0.965632
2683.000000	0.965683
2682.000000	0.965708
2681.000000	0.965721
2680.000000	0.965752
2679.000000	0.965813
2678.000000	0.965882
2677.000000	0.965927
2676.000000	0.965938
2675.000000	0.965940
2674.000000	0.965968
2673.000000	0.966028
2672.000000	0.966093
2671.000000	0.966128
2670.000000	0.966131
2669.000000	0.966130
2668.000000	0.966151
2667.000000	0.966188
2666.000000	0.966220
2665.000000	0.966238
2664.000000	0.966257
2663.000000	0.966299
2662.000000	0.966362
2661.000000	0.966426
2660.000000	0.966473
2659.000000	0.966510
2658.000000	0.966566
2657.000000	0.966653
2656.000000	0.966744
2655.000000	0.966805
2654.000000	0.966828
2653.000000	0.966845
2652.000000	0.966891
2651.000000	0.966964
2650.000000	0.967031
2649.000000	0.967069
2648.000000	0.967095
2647.000000	0.967143
2646.000000	0.967224
2645.000000	0.967311
2644.000000	0.967373
2643.000000	0.967412
2642.000000	0.967463
2641.000000	0.967552
2640.000000	0.967661
2639.000000	0.967750
2638.000000	0.967797
2637.000000	0.967823
2636.000000	0.967875
2635.000000	0.967966
2634.000000	0.968062
2633.000000	0.968119
2632.000000	0.968133
2631.000000	0.968153
2630.000000	0.968221
2629.000000	0.968334
2628.000000	0.968443
2627.000000	0.968510
2626.000000	0.968546
2625.000000	0.968591
2624.000000	0.968668
2623.000000	0.968762
2622.000000	0.968838
2621.000000	0.968887
2620.000000	0.968939
2619.000000	0.969023
2618.000000	0.969130
2617.000000	0.969217
2616.000000	0.969262
2615.000000	0.969298
2614.000000	0.969377
2613.000000	0.969505
2612.000000	0.969631
2611.000000	0.969707
2610.000000	0.969739
2609.000000	0.969775
2608.000000	0.969846
2607.000000	0.969937
2606.000000	0.970013
2605.000000	0.970067
2604.000000	0.970132
2603.000000	0.970241
2602.000000	0.970387
2601.000000	0.970518
2600.000000	0.970593
2599.000000	0.970626
2598.000000	0.970667
2597.000000	0.970748
2596.000000	0.970850
2595.000000	0.970929
2594.000000	0.970975
2593.000000	0.971022
2592.000000	0.971114
2591.000000	0.971250
2590.000000	0.971385
2589.000000	0.971478
2588.000000	0.971534
2587.000000	0.971597
2586.000000	0.971699
2585.000000	0.971820
2584.000000	0.971916
2583.000000	0.971975
2582.000000	0.972032
2581.000000	0.972126
2580.000000	0.972252
2579.000000	0.972368
2578.000000	0.972445
2577.000000	0.972501
2576.000000	0.972575
2575.000000	0.972689
2574.000000	0.972818
2573.000000	0.972927
2572.000000	0.973004
2571.000000	0.973075
2570.000000	0.973171
2569.000000	0.973296
2568.000000	0.973418
2567.000000	0.973508
2566.000000	0.973575
2565.000000	0.973655
2564.000000	0.973769
2563.000000	0.973896
2562.000000	0.973999
2561.000000	0.974074
2560.000000	0.974159
2559.000000	0.974288
2558.000000	0.974446
2557.000000	0.974580
2556.000000	0.974660
2555.000000	0.974720
2554.000000	0.974818
2553.000000	0.974972
2552.000000	0.975135
2551.000000	0.975256
2550.000000	0.975339
2549.000000	0.975429
2548.000000	0.975559
2547.000000	0.975706
2546.000000	0.975825
2545.000000	0.975903
2544.000000	0.975973
2543.000000	0.976086
2542.000000	0.976250
2541.000000	0.976421
2540.000000	0.976548
2539.000000	0.976630
2538.000000	0.976721
2537.000000	0.976867
2536.000000	0.977051
2535.000000	0.977211
2534.000000	0.977308
2533.000000	0.977371
2532.000000	0.977458
2531.000000	0.977587
2530.000000	0.977729
2529.000000	0.977843
2528.000000	0.977939
2527.000000	0.978057
2526.000000	0.978215
2525.000000	0.978381
2524.000000	0.978506
2523.000000	0.978583
2522.000000	0.978659
2521.000000	0.978791
2520.000000	0.978976
2519.000000	0.979156
2518.000000	0.979277
2517.000000	0.979352
2516.000000	0.979441
2515.000000	0.979585
2514.000000	0.979763
2513.000000	0.979923
2512.000000	0.980041
2511.000000	0.980142
2510.000000	0.980264
2509.000000	0.980408
2508.000000	0.980537
2507.000000	0.980624
2506.000000	0.980688
2505.000000	0.980780
2504.000000	0.980923
2503.000000	0.981079
2502.000000	0.981191
2501.000000	0.981247
2500.000000	0.981303
2499.000000	0.981413
2498.000000	0.981568
2497.000000	0.981703
2496.000000	0.981776
2495.000000	0.981814
2494.000000	0.981881
2493.000000	0.982003
2492.000000	0.982145
2491.000000	0.982249
2490.000000	0.982300
2489.000000	0.982337
2488.000000	0.982412
2487.000000	0.982531
2486.000000	0.982650
2485.000000	0.982722
2484.000000	0.982754
2483.000000	0.982801
2482.000000	0.982898
2481.000000	0.983016
2480.000000	0.983093
2479.000000	0.983108
2478.000000	0.983107
2477.000000	0.983148
2476.000000	0.983239
2475.000000	0.983331
2474.000000	0.983377
2473.000000	0.983386
2472.000000	0.983414
2471.000000	0.983491
2470.000000	0.983585
2469.000000	0.983641
2468.000000	0.983650
2467.000000	0.983662
2466.000000	0.983718
2465.000000	0.983804
2464.000000	0.983865
2463.000000	0.983876
2462.000000	0.983867
2461.000000	0.983883
2460.000000	0.983936
2459.000000	0.983990
2458.000000	0.984008
2457.000000	0.983990
2456.000000	0.983980
2455.000000	0.984015
2454.000000	0.984077
2453.000000	0.984105
2452.000000	0.984067
2451.000000	0.984004
2450.000000	0.983989
2449.000000	0.984033
2448.000000	0.984079
2447.000000	0.984067
2446.000000	0.984006
2445.000000	0.983957
2444.000000	0.983954
2443.000000	0.983974
2442.000000	0.983964
2441.000000	0.983907
2440.000000	0.983836
2439.000000	0.983796
2438.000000	0.983799
2437.000000	0.983802
2436.000000	0.983761
2435.000000	0.983684
2434.000000	0.983629
2433.000000	0.983635
2432.000000	0.983671
2431.000000	0.983661
2430.000000	0.983574
2429.000000	0.983458
2428.000000	0.983388
2427.000000	0.983386
2426.000000	0.983402
2425.000000	0.983376
2424.000000	0.983303
2423.000000	0.983238
2422.000000	0.983227
2421.000000	0.983250
2420.000000	0.983244
2419.000000	0.983175
2418.000000	0.983072
2417.000000	0.982992
2416.000000	0.982951
2415.000000	0.982916
2414.000000	0.982853
2413.000000	0.982774
2412.000000	0.982725
2411.000000	0.982726
2410.000000	0.982741
2409.000000	0.982710
2408.000000	0.982617
2407.000000	0.982514
2406.000000	0.982462
2405.000000	0.982471
2404.000000	0.982487
2403.000000	0.982457
2402.000000	0.982391
2401.000000	0.982344
2400.000000	0.982352
2399.000000	0.982385
2398.000000	0.982385
2397.000000	0.982328
2396.000000	0.982258
2395.000000	0.982232
2394.000000	0.982255
2393.000000	0.982271
2392.000000	0.982231
2391.000000	0.982152
2390.000000	0.982099
2389.000000	0.982103
2388.000000	0.982132
2387.000000	0.982130
2386.000000	0.982083
2385.000000	0.982033
2384.000000	0.982014
2383.000000	0.982011
2382.000000	0.981977
2381.000000	0.981887
2380.000000	0.981767
2379.000000	0.981663
2378.000000	0.981589
2377.000000	0.981505
2376.000000	0.981359
2375.000000	0.981152
2374.000000	0.980935
2373.000000	0.980753
2372.000000	0.980593
2371.000000	0.980397
2370.000000	0.980136
2369.000000	0.979848
2368.000000	0.979604
2367.000000	0.979433
2366.000000	0.979301
2365.000000	0.979159
2364.000000	0.979010
2363.000000	0.978907
2362.000000	0.978897
2361.000000	0.978965
2360.000000	0.979057
2359.000000	0.979149
2358.000000	0.979279
2357.000000	0.979500
2356.000000	0.979820
2355.000000	0.980181
2354.000000	0.980521
2353.000000	0.980833
2352.000000	0.981155
2351.000000	0.981503
2350.000000	0.981823
2349.000000	0.982039
2348.000000	0.982146
2347.000000	0.982247
2346.000000	0.982477
2345.000000	0.982890
2344.000000	0.983428
2343.000000	0.983977
2342.000000	0.984431
2341.000000	0.984696
2340.000000	0.984679
2339.000000	0.984324
2338.000000	0.983680
2337.000000	0.982918
2336.000000	0.982248
2335.000000	0.981807
2334.000000	0.981598
2333.000000	0.981522
2332.000000	0.981481
2331.000000	0.981449
2330.000000	0.981471
2329.000000	0.981578
2328.000000	0.981737
2327.000000	0.981875
2326.000000	0.981958
2325.000000	0.982026
2324.000000	0.982136
2323.000000	0.982298
2322.000000	0.982459
2321.000000	0.982576
2320.000000	0.982665
2319.000000	0.982784
2318.000000	0.982958
2317.000000	0.983141
2316.000000	0.983262
2315.000000	0.983303
2314.000000	0.983324
2313.000000	0.983392
2312.000000	0.983514
2311.000000	0.983631
2310.000000	0.983694
2309.000000	0.983717
2308.000000	0.983758
2307.000000	0.983854
2306.000000	0.983975
2305.000000	0.984064
2304.000000	0.984106
2303.000000	0.984142
2302.000000	0.984214
2301.000000	0.984310
2300.000000	0.984377
2299.000000	0.984388
2298.000000	0.984380
2297.000000	0.984410
2296.000000	0.984489
2295.000000	0.984566
2294.000000	0.984589
2293.000000	0.984572
2292.000000	0.984580
2291.000000	0.984659
2290.000000	0.984773
2289.000000	0.984847
2288.000000	0.984842
2287.000000	0.984805
2286.000000	0.984812
2285.000000	0.984884
2284.000000	0.984970
2283.000000	0.985008
2282.000000	0.984993
2281.000000	0.984980
2280.000000	0.985021
2279.000000	0.985113
2278.000000	0.985206
2277.000000	0.985258
2276.000000	0.985284
2275.000000	0.985332
2274.000000	0.985415
2273.000000	0.985486
2272.000000	0.985494
2271.000000	0.985449
2270.000000	0.985420
2269.000000	0.985456
2268.000000	0.985528
2267.000000	0.985568
2266.000000	0.985551
2265.000000	0.985520
2264.000000	0.985536
2263.000000	0.985610
2262.000000	0.985695
2261.000000	0.985737
2260.000000	0.985742
2259.000000	0.985759
2258.000000	0.985818
2257.000000	0.985889
2256.000000	0.985913
2255.000000	0.985886
2254.000000	0.985863
2253.000000	0.985896
2252.000000	0.985968
2251.000000	0.986017
2250.000000	0.986008
2249.000000	0.985975
2248.000000	0.985981
2247.000000	0.986045
2246.000000	0.986117
2245.000000	0.986134
2244.000000	0.986089
2243.000000	0.986044
2242.000000	0.986066
2241.000000	0.986151
2240.000000	0.986227
2239.000000	0.986231
2238.000000	0.986185
2237.000000	0.986165
2236.000000	0.986215
2235.000000	0.986298
2234.000000	0.986340
2233.000000	0.986313
2232.000000	0.986265
2231.000000	0.986263
2230.000000	0.986317
2229.000000	0.986373
2228.000000	0.986381
2227.000000	0.986358
2226.000000	0.986366
2225.000000	0.986429
2224.000000	0.986500
2223.000000	0.986513
2222.000000	0.986463
2221.000000	0.986416
2220.000000	0.986432
2219.000000	0.986496
2218.000000	0.986536
2217.000000	0.986502
2216.000000	0.986420
2215.000000	0.986367
2214.000000	0.986385
2213.000000	0.986442
2212.000000	0.986472
2211.000000	0.986451
2210.000000	0.986420
2209.000000	0.986428
2208.000000	0.986472
2207.000000	0.986499
2206.000000	0.986471
2205.000000	0.986412
2204.000000	0.986386
2203.000000	0.986420
2202.000000	0.986469
2201.000000	0.986462
2200.000000	0.986387
2199.000000	0.986306
2198.000000	0.986287
2197.000000	0.986323
2196.000000	0.986349
2195.000000	0.986321
2194.000000	0.986271
2193.000000	0.986257
2192.000000	0.986292
2191.000000	0.986321
2190.000000	0.986291
2189.000000	0.986210
2188.000000	0.986144
2187.000000	0.986147
2186.000000	0.986202
2185.000000	0.986241
2184.000000	0.986216
2183.000000	0.986155
2182.000000	0.986124
2181.000000	0.986146
2180.000000	0.986170
2179.000000	0.986130
2178.000000	0.986031
2177.000000	0.985940
2176.000000	0.985912
2175.000000	0.985927
2174.000000	0.985919
2173.000000	0.985855
2172.000000	0.985776
2171.000000	0.985751
2170.000000	0.985790
2169.000000	0.985830
2168.000000	0.985802
2167.000000	0.985713
2166.000000	0.985637
2165.000000	0.985626
2164.000000	0.985646
2163.000000	0.985626
2162.000000	0.985539
2161.000000	0.985434
2160.000000	0.985376
2159.000000	0.985371
2158.000000	0.985365
2157.000000	0.985307
2156.000000	0.985210
2155.000000	0.985132
2154.000000	0.985116
2153.000000	0.985133
2152.000000	0.985120
2151.000000	0.985050
2150.000000	0.984964
2149.000000	0.984915
2148.000000	0.984901
2147.000000	0.984869
2146.000000	0.984778
2145.000000	0.984652
2144.000000	0.984559
2143.000000	0.984531
2142.000000	0.984533
2141.000000	0.984499
2140.000000	0.984407
2139.000000	0.984305
2138.000000	0.984249
2137.000000	0.984236
2136.000000	0.984207
2135.000000	0.984116
2134.000000	0.983990
2133.000000	0.983897
2132.000000	0.983864
2131.000000	0.983850
2130.000000	0.983792
2129.000000	0.983679
2128.000000	0.983562
2127.000000	0.983498
2126.000000	0.983483
2125.000000	0.983457
2124.000000	0.983371
2123.000000	0.983241
2122.000000	0.983126
2121.000000	0.983058
2120.000000	0.983003
2119.000000	0.982909
2118.000000	0.982768
2117.000000	0.982631
2116.000000	0.982555
2115.000000	0.982536
2114.000000	0.982510
2113.000000	0.982418
2112.000000	0.982270
2111.000000	0.982134
2110.000000	0.982052
2109.000000	0.981989
2108.000000	0.981880
2107.000000	0.981718
2106.000000	0.981570
2105.000000	0.981496
2104.000000	0.981472
2103.000000	0.981417
2102.000000	0.981290
2101.000000	0.981129
2100.000000	0.981008
2099.000000	0.980948
2098.000000	0.980906
2097.000000	0.980817
2096.000000	0.980675
2095.000000	0.980535
2094.000000	0.980448
2093.000000	0.980403
2092.000000	0.980332
2091.000000	0.980197
2090.000000	0.980038
2089.000000	0.979922
2088.000000	0.979865
2087.000000	0.979809
2086.000000	0.979699
2085.000000	0.979540
2084.000000	0.979395
2083.000000	0.979311
2082.000000	0.979261
2081.000000	0.979174
2080.000000	0.979013
2079.000000	0.978819
2078.000000	0.978668
2077.000000	0.978583
2076.000000	0.978504
2075.000000	0.978370
2074.000000	0.978194
2073.000000	0.978051
2072.000000	0.977982
2071.000000	0.977942
2070.000000	0.977857
2069.000000	0.977705
2068.000000	0.977547
2067.000000	0.977446
2066.000000	0.977397
2065.000000	0.977326
2064.000000	0.977178
2063.000000	0.976985
2062.000000	0.976831
2061.000000	0.976755
2060.000000	0.976706
2059.000000	0.976606
2058.000000	0.976440
2057.000000	0.976269
2056.000000	0.976155
2055.000000	0.976091
2054.000000	0.976015
2053.000000	0.975879
2052.000000	0.975705
2051.000000	0.975564
2050.000000	0.975495
2049.000000	0.975453
2048.000000	0.975357
2047.000000	0.975187
2046.000000	0.975012
2045.000000	0.974906
2044.000000	0.974863
2043.000000	0.974802
2042.000000	0.974670
2041.000000	0.974505
2040.000000	0.974387
2039.000000	0.974345
2038.000000	0.974324
2037.000000	0.974243
2036.000000	0.974082
2035.000000	0.973908
2034.000000	0.973794
2033.000000	0.973741
2032.000000	0.973674
2031.000000	0.973536
2030.000000	0.973361
2029.000000	0.973236
2028.000000	0.973198
2027.000000	0.973187
2026.000000	0.973115
2025.000000	0.972961
2024.000000	0.972788
2023.000000	0.972670
2022.000000	0.972612
2021.000000	0.972550
2020.000000	0.972431
2019.000000	0.972278
2018.000000	0.972163
2017.000000	0.972116
2016.000000	0.972086
2015.000000	0.971999
2014.000000	0.971847
2013.000000	0.971702
2012.000000	0.971628
2011.000000	0.971611
2010.000000	0.971578
2009.000000	0.971486
2008.000000	0.971368
2007.000000	0.971290
2006.000000	0.971268
2005.000000	0.971244
2004.000000	0.971156
2003.000000	0.971019
2002.000000	0.970912
2001.000000	0.970886
2000.000000	0.970902
1999.000000	0.970868
1998.000000	0.970748
1997.000000	0.970597
1996.000000	0.970499
1995.000000	0.970472
1994.000000	0.970453
1993.000000	0.970373
1992.000000	0.970239
1991.000000	0.970126
1990.000000	0.970090
1989.000000	0.970101
1988.000000	0.970072
1987.000000	0.969967
1986.000000	0.969841
1985.000000	0.969768
1984.000000	0.969756
1983.000000	0.969740
1982.000000	0.969667
1981.000000	0.969555
1980.000000	0.969476
1979.000000	0.969469
1978.000000	0.969499
1977.000000	0.969491
1976.000000	0.969409
1975.000000	0.969300
1974.000000	0.969237
1973.000000	0.969233
1972.000000	0.969226
1971.000000	0.969161
1970.000000	0.969056
1969.000000	0.968987
1968.000000	0.968999
1967.000000	0.969049
1966.000000	0.969057
1965.000000	0.968988
1964.000000	0.968895
1963.000000	0.968860
1962.000000	0.968900
1961.000000	0.968940
1960.000000	0.968893
1959.000000	0.968768
1958.000000	0.968663
1957.000000	0.968651
1956.000000	0.968694
1955.000000	0.968701
1954.000000	0.968643
1953.000000	0.968576
1952.000000	0.968562
1951.000000	0.968590
1950.000000	0.968593
1949.000000	0.968534
1948.000000	0.968450
1947.000000	0.968408
1946.000000	0.968431
1945.000000	0.968462
1944.000000	0.968428
1943.000000	0.968328
1942.000000	0.968246
1941.000000	0.968261
1940.000000	0.968353
1939.000000	0.968423
1938.000000	0.968408
1937.000000	0.968337
1936.000000	0.968290
1935.000000	0.968299
1934.000000	0.968325
1933.000000	0.968311
1932.000000	0.968253
1931.000000	0.968214
1930.000000	0.968250
1929.000000	0.968340
1928.000000	0.968402
1927.000000	0.968378
1926.000000	0.968304
1925.000000	0.968260
1924.000000	0.968279
1923.000000	0.968319
1922.000000	0.968316
1921.000000	0.968253
1920.000000	0.968176
1919.000000	0.968147
1918.000000	0.968186
1917.000000	0.968250
1916.000000	0.968284
1915.000000	0.968285
1914.000000	0.968306
1913.000000	0.968377
1912.000000	0.968448
1911.000000	0.968449
1910.000000	0.968389
1909.000000	0.968355
1908.000000	0.968409
1907.000000	0.968509
1906.000000	0.968563
1905.000000	0.968539
1904.000000	0.968488
1903.000000	0.968481
1902.000000	0.968534
1901.000000	0.968594
1900.000000	0.968600
1899.000000	0.968556
1898.000000	0.968522
1897.000000	0.968551
1896.000000	0.968621
1895.000000	0.968663
1894.000000	0.968648
1893.000000	0.968620
1892.000000	0.968632
1891.000000	0.968682
1890.000000	0.968711
1889.000000	0.968684
1888.000000	0.968638
1887.000000	0.968649
1886.000000	0.968747
1885.000000	0.968878
1884.000000	0.968949
1883.000000	0.968930
1882.000000	0.968884
1881.000000	0.968895
1880.000000	0.968971
1879.000000	0.969039
1878.000000	0.969048
1877.000000	0.969026
1876.000000	0.969045
1875.000000	0.969130
1874.000000	0.969229
1873.000000	0.969261
1872.000000	0.969197
1871.000000	0.969091
1870.000000	0.969033
1869.000000	0.969065
1868.000000	0.969147
1867.000000	0.969216
1866.000000	0.969273
1865.000000	0.969374
1864.000000	0.969535
1863.000000	0.969683
1862.000000	0.969732
1861.000000	0.969683
1860.000000	0.969629
1859.000000	0.969658
1858.000000	0.969764
1857.000000	0.969870
1856.000000	0.969912
1855.000000	0.969912
1854.000000	0.969943
1853.000000	0.970040
1852.000000	0.970150
1851.000000	0.970192
1850.000000	0.970162
1849.000000	0.970139
1848.000000	0.970178
1847.000000	0.970226
1846.000000	0.970190
1845.000000	0.970074
1844.000000	0.970010
1843.000000	0.970125
1842.000000	0.970395
1841.000000	0.970661
1840.000000	0.970788
1839.000000	0.970789
1838.000000	0.970794
1837.000000	0.970894
1836.000000	0.971053
1835.000000	0.971163
1834.000000	0.971171
1833.000000	0.971123
1832.000000	0.971101
1831.000000	0.971141
1830.000000	0.971214
1829.000000	0.971275
1828.000000	0.971311
1827.000000	0.971362
1826.000000	0.971472
1825.000000	0.971641
1824.000000	0.971810
1823.000000	0.971924
1822.000000	0.972001
1821.000000	0.972105
1820.000000	0.972259
1819.000000	0.972410
1818.000000	0.972494
1817.000000	0.972523
1816.000000	0.972563
1815.000000	0.972657
1814.000000	0.972772
1813.000000	0.972842
1812.000000	0.972849
1811.000000	0.972853
1810.000000	0.972934
1809.000000	0.973103
1808.000000	0.973281
1807.000000	0.973388
1806.000000	0.973427
1805.000000	0.973478
1804.000000	0.973585
1803.000000	0.973709
1802.000000	0.973783
1801.000000	0.973800
1800.000000	0.973827
1799.000000	0.973935
1798.000000	0.974115
1797.000000	0.974281
1796.000000	0.974334
1795.000000	0.974267
1794.000000	0.974192
1793.000000	0.974236
1792.000000	0.974420
1791.000000	0.974648
1790.000000	0.974828
1789.000000	0.974968
1788.000000	0.975120
1787.000000	0.975288
1786.000000	0.975419
1785.000000	0.975485
1784.000000	0.975532
1783.000000	0.975630
1782.000000	0.975794
1781.000000	0.975972
1780.000000	0.976095
1779.000000	0.976155
1778.000000	0.976222
1777.000000	0.976357
1776.000000	0.976510
1775.000000	0.976551
1774.000000	0.976430
1773.000000	0.976290
1772.000000	0.976339
1771.000000	0.976621
1770.000000	0.976967
1769.000000	0.977200
1768.000000	0.977324
1767.000000	0.977480
1766.000000	0.977740
1765.000000	0.978009
1764.000000	0.978134
1763.000000	0.978093
1762.000000	0.978036
1761.000000	0.978133
1760.000000	0.978396
1759.000000	0.978669
1758.000000	0.978808
1757.000000	0.978838
1756.000000	0.978905
1755.000000	0.979083
1754.000000	0.979276
1753.000000	0.979339
1752.000000	0.979264
1751.000000	0.979201
1750.000000	0.979305
1749.000000	0.979579
1748.000000	0.979891
1747.000000	0.980106
1746.000000	0.980208
1745.000000	0.980286
1744.000000	0.980421
1743.000000	0.980587
1742.000000	0.980682
1741.000000	0.980666
1740.000000	0.980644
1739.000000	0.980760
1738.000000	0.980988
1737.000000	0.981102
1736.000000	0.980923
1735.000000	0.980577
1734.000000	0.980426
1733.000000	0.980688
1732.000000	0.981217
1731.000000	0.981681
1730.000000	0.981917
1729.000000	0.982020
1728.000000	0.982152
1727.000000	0.982339
1726.000000	0.982489
1725.000000	0.982534
1724.000000	0.982517
1723.000000	0.982530
1722.000000	0.982598
1721.000000	0.982615
1720.000000	0.982437
1719.000000	0.982072
1718.000000	0.981751
1717.000000	0.981734
1716.000000	0.982044
1715.000000	0.982454
1714.000000	0.982745
1713.000000	0.982899
1712.000000	0.983021
1711.000000	0.983154
1710.000000	0.983244
1709.000000	0.983232
1708.000000	0.983122
1707.000000	0.982994
1706.000000	0.982961
1705.000000	0.983060
1704.000000	0.983147
1703.000000	0.982989
1702.000000	0.982554
1701.000000	0.982137
1700.000000	0.982060
1699.000000	0.982276
1698.000000	0.982431
1697.000000	0.982337
1696.000000	0.982222
1695.000000	0.982417
1694.000000	0.982923
1693.000000	0.983406
1692.000000	0.983595
1691.000000	0.983540
1690.000000	0.983483
1689.000000	0.983534
1688.000000	0.983542
1687.000000	0.983283
1686.000000	0.982766
1685.000000	0.982318
1684.000000	0.982301
1683.000000	0.982734
1682.000000	0.983283
1681.000000	0.983625
1680.000000	0.983736
1679.000000	0.983774
1678.000000	0.983803
1677.000000	0.983735
1676.000000	0.983542
1675.000000	0.983369
1674.000000	0.983376
1673.000000	0.983536
1672.000000	0.983665
1671.000000	0.983630
1670.000000	0.983491
1669.000000	0.983429
1668.000000	0.983562
1667.000000	0.983827
1666.000000	0.984024
1665.000000	0.984003
1664.000000	0.983817
1663.000000	0.983681
1662.000000	0.983752
1661.000000	0.983965
1660.000000	0.984123
1659.000000	0.984123
1658.000000	0.984026
1657.000000	0.983883
1656.000000	0.983591
1655.000000	0.983027
1654.000000	0.982329
1653.000000	0.981925
1652.000000	0.982151
1651.000000	0.982867
1650.000000	0.983555
1649.000000	0.983796
1648.000000	0.983603
1647.000000	0.983328
1646.000000	0.983307
1645.000000	0.983583
1644.000000	0.983948
1643.000000	0.984176
1642.000000	0.984228
1641.000000	0.984223
1640.000000	0.984254
1639.000000	0.984236
1638.000000	0.984014
1637.000000	0.983604
1636.000000	0.983277
1635.000000	0.983310
1634.000000	0.983690
1633.000000	0.984123
1632.000000	0.984342
1631.000000	0.984331
1630.000000	0.984268
1629.000000	0.984289
1628.000000	0.984357
1627.000000	0.984343
1626.000000	0.984187
1625.000000	0.983982
1624.000000	0.983885
1623.000000	0.983961
1622.000000	0.984111
1621.000000	0.984167
1620.000000	0.984045
1619.000000	0.983805
1618.000000	0.983585
1617.000000	0.983503
1616.000000	0.983599
1615.000000	0.983834
1614.000000	0.984125
1613.000000	0.984390
1612.000000	0.984565
1611.000000	0.984605
1610.000000	0.984515
1609.000000	0.984381
1608.000000	0.984333
1607.000000	0.984421
1606.000000	0.984542
1605.000000	0.984550
1604.000000	0.984428
1603.000000	0.984318
1602.000000	0.984344
1601.000000	0.984475
1600.000000	0.984566
1599.000000	0.984537
1598.000000	0.984447
1597.000000	0.984420
1596.000000	0.984498
1595.000000	0.984604
1594.000000	0.984630
1593.000000	0.984558
1592.000000	0.984485
1591.000000	0.984508
1590.000000	0.984604
1589.000000	0.984654
1588.000000	0.984592
1587.000000	0.984488
1586.000000	0.984474
1585.000000	0.984576
1584.000000	0.984687
1583.000000	0.984688
1582.000000	0.984593
1581.000000	0.984516
1580.000000	0.984501
1579.000000	0.984421
1578.000000	0.984128
1577.000000	0.983696
1576.000000	0.983439
1575.000000	0.983605
1574.000000	0.984075
1573.000000	0.984455
1572.000000	0.984470
1571.000000	0.984220
1570.000000	0.984028
1569.000000	0.984098
1568.000000	0.984342
1567.000000	0.984527
1566.000000	0.984542
1565.000000	0.984479
1564.000000	0.984462
1563.000000	0.984431
1562.000000	0.984145
1561.000000	0.983490
1560.000000	0.982734
1559.000000	0.982372
1558.000000	0.982636
1557.000000	0.983249
1556.000000	0.983748
1555.000000	0.983950
1554.000000	0.984034
1553.000000	0.984207
1552.000000	0.984443
1551.000000	0.984568
1550.000000	0.984502
1549.000000	0.984348
1548.000000	0.984254
1547.000000	0.984251
1546.000000	0.984238
1545.000000	0.984097
1544.000000	0.983809
1543.000000	0.983462
1542.000000	0.983158
1541.000000	0.982946
1540.000000	0.982853
1539.000000	0.982939
1538.000000	0.983244
1537.000000	0.983685
1536.000000	0.984062
1535.000000	0.984216
1534.000000	0.984160
1533.000000	0.984056
1532.000000	0.984064
1531.000000	0.984223
1530.000000	0.984421
1529.000000	0.984489
1528.000000	0.984349
1527.000000	0.984113
1526.000000	0.983977
1525.000000	0.983985
1524.000000	0.983961
1523.000000	0.983735
1522.000000	0.983402
1521.000000	0.983261
1520.000000	0.983466
1519.000000	0.983837
1518.000000	0.984074
1517.000000	0.984080
1516.000000	0.984016
1515.000000	0.984070
1514.000000	0.984246
1513.000000	0.984396
1512.000000	0.984391
1511.000000	0.984230
1510.000000	0.983988
1509.000000	0.983716
1508.000000	0.983434
1507.000000	0.983197
1506.000000	0.983134
1505.000000	0.983360
1504.000000	0.983843
1503.000000	0.984376
1502.000000	0.984722
1501.000000	0.984773
1500.000000	0.984610
