PE IR       SUBTECH     SPECTRUM    ASCII       PEDS        4.00        
   -1
TE108B1_041_165K.ASC
20/02/21
16:55:42.00
20/02/21
16:55:42.00
Administrator
Sample 041 By Administrator Date Friday, February 21 2020
1500.000000
#HDR
-1
-1
#GR
cm-1
A
1.0
0.0
4000.000000
-1.000000
2501
8
0.893084
0.869689
#DATA
4000.000000	0.879797
3999.000000	0.879807
3998.000000	0.879883
3997.000000	0.879988
3996.000000	0.880073
3995.000000	0.880102
3994.000000	0.880068
3993.000000	0.879990
3992.000000	0.879898
3991.000000	0.879808
3990.000000	0.879724
3989.000000	0.879654
3988.000000	0.879619
3987.000000	0.879643
3986.000000	0.879727
3985.000000	0.879830
3984.000000	0.879891
3983.000000	0.879872
3982.000000	0.879793
3981.000000	0.879708
3980.000000	0.879663
3979.000000	0.879664
3978.000000	0.879690
3977.000000	0.879726
3976.000000	0.879759
3975.000000	0.879773
3974.000000	0.879738
3973.000000	0.879640
3972.000000	0.879507
3971.000000	0.879392
3970.000000	0.879340
3969.000000	0.879349
3968.000000	0.879375
3967.000000	0.879374
3966.000000	0.879333
3965.000000	0.879270
3964.000000	0.879211
3963.000000	0.879170
3962.000000	0.879147
3961.000000	0.879130
3960.000000	0.879109
3959.000000	0.879084
3958.000000	0.879066
3957.000000	0.879067
3956.000000	0.879083
3955.000000	0.879091
3954.000000	0.879071
3953.000000	0.879029
3952.000000	0.878998
3951.000000	0.879009
3950.000000	0.879060
3949.000000	0.879121
3948.000000	0.879152
3947.000000	0.879135
3946.000000	0.879084
3945.000000	0.879024
3944.000000	0.878964
3943.000000	0.878894
3942.000000	0.878806
3941.000000	0.878703
3940.000000	0.878598
3939.000000	0.878501
3938.000000	0.878411
3937.000000	0.878328
3936.000000	0.878256
3935.000000	0.878192
3934.000000	0.878120
3933.000000	0.878024
3932.000000	0.877916
3931.000000	0.877833
3930.000000	0.877816
3929.000000	0.877879
3928.000000	0.877997
3927.000000	0.878115
3926.000000	0.878174
3925.000000	0.878136
3924.000000	0.877997
3923.000000	0.877799
3922.000000	0.877616
3921.000000	0.877509
3920.000000	0.877494
3919.000000	0.877540
3918.000000	0.877606
3917.000000	0.877669
3916.000000	0.877717
3915.000000	0.877724
3914.000000	0.877661
3913.000000	0.877535
3912.000000	0.877400
3911.000000	0.877327
3910.000000	0.877344
3909.000000	0.877411
3908.000000	0.877451
3907.000000	0.877401
3906.000000	0.877255
3905.000000	0.877054
3904.000000	0.876854
3903.000000	0.876699
3902.000000	0.876610
3901.000000	0.876593
3900.000000	0.876638
3899.000000	0.876710
3898.000000	0.876766
3897.000000	0.876774
3896.000000	0.876741
3895.000000	0.876700
3894.000000	0.876680
3893.000000	0.876679
3892.000000	0.876671
3891.000000	0.876640
3890.000000	0.876597
3889.000000	0.876551
3888.000000	0.876482
3887.000000	0.876365
3886.000000	0.876203
3885.000000	0.876055
3884.000000	0.875990
3883.000000	0.876037
3882.000000	0.876169
3881.000000	0.876337
3880.000000	0.876501
3879.000000	0.876633
3878.000000	0.876700
3877.000000	0.876674
3876.000000	0.876556
3875.000000	0.876376
3874.000000	0.876168
3873.000000	0.875944
3872.000000	0.875708
3871.000000	0.875483
3870.000000	0.875325
3869.000000	0.875283
3868.000000	0.875356
3867.000000	0.875482
3866.000000	0.875582
3865.000000	0.875628
3864.000000	0.875645
3863.000000	0.875678
3862.000000	0.875736
3861.000000	0.875784
3860.000000	0.875779
3859.000000	0.875690
3858.000000	0.875490
3857.000000	0.875147
3856.000000	0.874653
3855.000000	0.874092
3854.000000	0.873647
3853.000000	0.873511
3852.000000	0.873745
3851.000000	0.874228
3850.000000	0.874724
3849.000000	0.875045
3848.000000	0.875142
3847.000000	0.875092
3846.000000	0.875000
3845.000000	0.874915
3844.000000	0.874829
3843.000000	0.874716
3842.000000	0.874562
3841.000000	0.874366
3840.000000	0.874136
3839.000000	0.873905
3838.000000	0.873740
3837.000000	0.873709
3836.000000	0.873822
3835.000000	0.874005
3834.000000	0.874151
3833.000000	0.874208
3832.000000	0.874209
3831.000000	0.874219
3830.000000	0.874262
3829.000000	0.874306
3828.000000	0.874305
3827.000000	0.874258
3826.000000	0.874187
3825.000000	0.874099
3824.000000	0.873967
3823.000000	0.873775
3822.000000	0.873564
3821.000000	0.873409
3820.000000	0.873346
3819.000000	0.873331
3818.000000	0.873289
3817.000000	0.873200
3816.000000	0.873126
3815.000000	0.873151
3814.000000	0.873286
3813.000000	0.873461
3812.000000	0.873580
3811.000000	0.873596
3810.000000	0.873521
3809.000000	0.873393
3808.000000	0.873253
3807.000000	0.873139
3806.000000	0.873077
3805.000000	0.873047
3804.000000	0.872979
3803.000000	0.872818
3802.000000	0.872596
3801.000000	0.872418
3800.000000	0.872369
3799.000000	0.872433
3798.000000	0.872524
3797.000000	0.872583
3796.000000	0.872619
3795.000000	0.872669
3794.000000	0.872736
3793.000000	0.872792
3792.000000	0.872821
3791.000000	0.872842
3790.000000	0.872877
3789.000000	0.872921
3788.000000	0.872945
3787.000000	0.872918
3786.000000	0.872843
3785.000000	0.872746
3784.000000	0.872657
3783.000000	0.872589
3782.000000	0.872527
3781.000000	0.872452
3780.000000	0.872360
3779.000000	0.872276
3778.000000	0.872233
3777.000000	0.872244
3776.000000	0.872288
3775.000000	0.872322
3774.000000	0.872306
3773.000000	0.872225
3772.000000	0.872103
3771.000000	0.871993
3770.000000	0.871948
3769.000000	0.871982
3768.000000	0.872059
3767.000000	0.872121
3766.000000	0.872127
3765.000000	0.872072
3764.000000	0.871981
3763.000000	0.871880
3762.000000	0.871772
3761.000000	0.871652
3760.000000	0.871527
3759.000000	0.871429
3758.000000	0.871385
3757.000000	0.871379
3756.000000	0.871343
3755.000000	0.871206
3754.000000	0.870951
3753.000000	0.870635
3752.000000	0.870349
3751.000000	0.870179
3750.000000	0.870165
3749.000000	0.870272
3748.000000	0.870383
3747.000000	0.870356
3746.000000	0.870138
3745.000000	0.869843
3744.000000	0.869689
3743.000000	0.869819
3742.000000	0.870181
3741.000000	0.870569
3740.000000	0.870785
3739.000000	0.870756
3738.000000	0.870542
3737.000000	0.870267
3736.000000	0.870046
3735.000000	0.869939
3734.000000	0.869942
3733.000000	0.870010
3732.000000	0.870101
3731.000000	0.870208
3730.000000	0.870339
3729.000000	0.870472
3728.000000	0.870553
3727.000000	0.870546
3726.000000	0.870477
3725.000000	0.870408
3724.000000	0.870373
3723.000000	0.870365
3722.000000	0.870368
3721.000000	0.870391
3720.000000	0.870451
3719.000000	0.870533
3718.000000	0.870601
3717.000000	0.870632
3716.000000	0.870627
3715.000000	0.870587
3714.000000	0.870495
3713.000000	0.870340
3712.000000	0.870157
3711.000000	0.870024
3710.000000	0.870008
3709.000000	0.870117
3708.000000	0.870299
3707.000000	0.870474
3706.000000	0.870580
3705.000000	0.870592
3704.000000	0.870540
3703.000000	0.870492
3702.000000	0.870522
3701.000000	0.870651
3700.000000	0.870825
3699.000000	0.870956
3698.000000	0.870991
3697.000000	0.870944
3696.000000	0.870874
3695.000000	0.870822
3694.000000	0.870775
3693.000000	0.870686
3692.000000	0.870528
3691.000000	0.870327
3690.000000	0.870161
3689.000000	0.870129
3688.000000	0.870285
3687.000000	0.870600
3686.000000	0.870966
3685.000000	0.871259
3684.000000	0.871414
3683.000000	0.871445
3682.000000	0.871404
3681.000000	0.871331
3680.000000	0.871233
3679.000000	0.871099
3678.000000	0.870927
3677.000000	0.870737
3676.000000	0.870582
3675.000000	0.870528
3674.000000	0.870602
3673.000000	0.870752
3672.000000	0.870883
3671.000000	0.870949
3670.000000	0.870995
3669.000000	0.871107
3668.000000	0.871310
3667.000000	0.871552
3666.000000	0.871760
3665.000000	0.871902
3664.000000	0.871997
3663.000000	0.872079
3662.000000	0.872174
3661.000000	0.872284
3660.000000	0.872384
3659.000000	0.872433
3658.000000	0.872407
3657.000000	0.872332
3656.000000	0.872269
3655.000000	0.872266
3654.000000	0.872311
3653.000000	0.872340
3652.000000	0.872301
3651.000000	0.872197
3650.000000	0.872095
3649.000000	0.872086
3648.000000	0.872223
3647.000000	0.872488
3646.000000	0.872808
3645.000000	0.873100
3644.000000	0.873318
3643.000000	0.873461
3642.000000	0.873555
3641.000000	0.873627
3640.000000	0.873691
3639.000000	0.873755
3638.000000	0.873832
3637.000000	0.873929
3636.000000	0.874035
3635.000000	0.874118
3634.000000	0.874150
3633.000000	0.874124
3632.000000	0.874050
3631.000000	0.873946
3630.000000	0.873840
3629.000000	0.873778
3628.000000	0.873816
3627.000000	0.873989
3626.000000	0.874281
3625.000000	0.874618
3624.000000	0.874913
3623.000000	0.875108
3622.000000	0.875210
3621.000000	0.875269
3620.000000	0.875340
3619.000000	0.875445
3618.000000	0.875570
3617.000000	0.875681
3616.000000	0.875752
3615.000000	0.875779
3614.000000	0.875786
3613.000000	0.875807
3612.000000	0.875861
3611.000000	0.875945
3610.000000	0.876051
3609.000000	0.876183
3608.000000	0.876350
3607.000000	0.876546
3606.000000	0.876756
3605.000000	0.876969
3604.000000	0.877174
3603.000000	0.877344
3602.000000	0.877437
3601.000000	0.877441
3600.000000	0.877392
3599.000000	0.877353
3598.000000	0.877363
3597.000000	0.877425
3596.000000	0.877520
3595.000000	0.877632
3594.000000	0.877744
3593.000000	0.877841
3592.000000	0.877919
3591.000000	0.877995
3590.000000	0.878088
3589.000000	0.878205
3588.000000	0.878341
3587.000000	0.878478
3586.000000	0.878593
3585.000000	0.878670
3584.000000	0.878713
3583.000000	0.878749
3582.000000	0.878797
3581.000000	0.878850
3580.000000	0.878892
3579.000000	0.878925
3578.000000	0.878973
3577.000000	0.879048
3576.000000	0.879139
3575.000000	0.879221
3574.000000	0.879284
3573.000000	0.879330
3572.000000	0.879362
3571.000000	0.879378
3570.000000	0.879377
3569.000000	0.879370
3568.000000	0.879375
3567.000000	0.879409
3566.000000	0.879478
3565.000000	0.879566
3564.000000	0.879644
3563.000000	0.879690
3562.000000	0.879707
3561.000000	0.879723
3560.000000	0.879763
3559.000000	0.879832
3558.000000	0.879907
3557.000000	0.879954
3556.000000	0.879956
3555.000000	0.879934
3554.000000	0.879924
3553.000000	0.879935
3552.000000	0.879950
3551.000000	0.879957
3550.000000	0.879970
3549.000000	0.880011
3548.000000	0.880073
3547.000000	0.880119
3546.000000	0.880123
3545.000000	0.880104
3544.000000	0.880102
3543.000000	0.880150
3542.000000	0.880244
3541.000000	0.880353
3540.000000	0.880440
3539.000000	0.880480
3538.000000	0.880481
3537.000000	0.880471
3536.000000	0.880474
3535.000000	0.880498
3534.000000	0.880527
3533.000000	0.880540
3532.000000	0.880520
3531.000000	0.880468
3530.000000	0.880411
3529.000000	0.880392
3528.000000	0.880440
3527.000000	0.880548
3526.000000	0.880673
3525.000000	0.880771
3524.000000	0.880816
3523.000000	0.880813
3522.000000	0.880774
3521.000000	0.880710
3520.000000	0.880638
3519.000000	0.880599
3518.000000	0.880636
3517.000000	0.880763
3516.000000	0.880949
3515.000000	0.881137
3514.000000	0.881296
3513.000000	0.881427
3512.000000	0.881538
3511.000000	0.881621
3510.000000	0.881664
3509.000000	0.881677
3508.000000	0.881694
3507.000000	0.881738
3506.000000	0.881799
3505.000000	0.881844
3504.000000	0.881854
3503.000000	0.881860
3502.000000	0.881914
3501.000000	0.882038
3500.000000	0.882185
3499.000000	0.882282
3498.000000	0.882305
3497.000000	0.882300
3496.000000	0.882330
3495.000000	0.882406
3494.000000	0.882488
3493.000000	0.882540
3492.000000	0.882570
3491.000000	0.882612
3490.000000	0.882693
3489.000000	0.882815
3488.000000	0.882965
3487.000000	0.883117
3486.000000	0.883252
3485.000000	0.883362
3484.000000	0.883449
3483.000000	0.883523
3482.000000	0.883586
3481.000000	0.883646
3480.000000	0.883717
3479.000000	0.883803
3478.000000	0.883884
3477.000000	0.883931
3476.000000	0.883945
3475.000000	0.883969
3474.000000	0.884045
3473.000000	0.884179
3472.000000	0.884338
3471.000000	0.884489
3470.000000	0.884625
3469.000000	0.884752
3468.000000	0.884867
3467.000000	0.884966
3466.000000	0.885054
3465.000000	0.885148
3464.000000	0.885248
3463.000000	0.885338
3462.000000	0.885399
3461.000000	0.885440
3460.000000	0.885499
3459.000000	0.885613
3458.000000	0.885782
3457.000000	0.885965
3456.000000	0.886111
3455.000000	0.886202
3454.000000	0.886268
3453.000000	0.886356
3452.000000	0.886478
3451.000000	0.886603
3450.000000	0.886693
3449.000000	0.886751
3448.000000	0.886808
3447.000000	0.886882
3446.000000	0.886949
3445.000000	0.886981
3444.000000	0.886986
3443.000000	0.887020
3442.000000	0.887128
3441.000000	0.887306
3440.000000	0.887497
3439.000000	0.887641
3438.000000	0.887722
3437.000000	0.887761
3436.000000	0.887796
3435.000000	0.887861
3434.000000	0.887986
3433.000000	0.888179
3432.000000	0.888416
3431.000000	0.888639
3430.000000	0.888789
3429.000000	0.888850
3428.000000	0.888861
3427.000000	0.888892
3426.000000	0.888986
3425.000000	0.889114
3424.000000	0.889204
3423.000000	0.889212
3422.000000	0.889180
3421.000000	0.889196
3420.000000	0.889301
3419.000000	0.889448
3418.000000	0.889567
3417.000000	0.889642
3416.000000	0.889711
3415.000000	0.889807
3414.000000	0.889924
3413.000000	0.890040
3412.000000	0.890144
3411.000000	0.890229
3410.000000	0.890271
3409.000000	0.890258
3408.000000	0.890207
3407.000000	0.890157
3406.000000	0.890140
3405.000000	0.890163
3404.000000	0.890215
3403.000000	0.890288
3402.000000	0.890381
3401.000000	0.890491
3400.000000	0.890609
3399.000000	0.890712
3398.000000	0.890769
3397.000000	0.890760
3396.000000	0.890688
3395.000000	0.890574
3394.000000	0.890456
3393.000000	0.890382
3392.000000	0.890396
3391.000000	0.890506
3390.000000	0.890673
3389.000000	0.890833
3388.000000	0.890939
3387.000000	0.890982
3386.000000	0.890979
3385.000000	0.890957
3384.000000	0.890935
3383.000000	0.890921
3382.000000	0.890908
3381.000000	0.890895
3380.000000	0.890897
3379.000000	0.890933
3378.000000	0.890997
3377.000000	0.891057
3376.000000	0.891077
3375.000000	0.891049
3374.000000	0.890999
3373.000000	0.890965
3372.000000	0.890972
3371.000000	0.891009
3370.000000	0.891040
3369.000000	0.891033
3368.000000	0.890989
3367.000000	0.890950
3366.000000	0.890961
3365.000000	0.891033
3364.000000	0.891130
3363.000000	0.891193
3362.000000	0.891189
3361.000000	0.891140
3360.000000	0.891110
3359.000000	0.891149
3358.000000	0.891245
3357.000000	0.891329
3356.000000	0.891345
3355.000000	0.891302
3354.000000	0.891250
3353.000000	0.891223
3352.000000	0.891213
3351.000000	0.891193
3350.000000	0.891150
3349.000000	0.891085
3348.000000	0.891016
3347.000000	0.890975
3346.000000	0.890993
3345.000000	0.891073
3344.000000	0.891177
3343.000000	0.891256
3342.000000	0.891290
3341.000000	0.891293
3340.000000	0.891286
3339.000000	0.891286
3338.000000	0.891298
3337.000000	0.891320
3336.000000	0.891339
3335.000000	0.891337
3334.000000	0.891316
3333.000000	0.891292
3332.000000	0.891277
3331.000000	0.891267
3330.000000	0.891253
3329.000000	0.891240
3328.000000	0.891243
3327.000000	0.891272
3326.000000	0.891325
3325.000000	0.891397
3324.000000	0.891479
3323.000000	0.891559
3322.000000	0.891616
3321.000000	0.891632
3320.000000	0.891602
3319.000000	0.891545
3318.000000	0.891496
3317.000000	0.891482
3316.000000	0.891491
3315.000000	0.891477
3314.000000	0.891414
3313.000000	0.891329
3312.000000	0.891277
3311.000000	0.891287
3310.000000	0.891337
3309.000000	0.891381
3308.000000	0.891388
3307.000000	0.891358
3306.000000	0.891322
3305.000000	0.891321
3304.000000	0.891377
3303.000000	0.891459
3302.000000	0.891513
3301.000000	0.891504
3300.000000	0.891447
3299.000000	0.891384
3298.000000	0.891344
3297.000000	0.891339
3296.000000	0.891374
3295.000000	0.891441
3294.000000	0.891520
3293.000000	0.891587
3292.000000	0.891625
3291.000000	0.891631
3290.000000	0.891613
3289.000000	0.891598
3288.000000	0.891613
3287.000000	0.891654
3286.000000	0.891683
3285.000000	0.891673
3284.000000	0.891648
3283.000000	0.891651
3282.000000	0.891691
3281.000000	0.891735
3280.000000	0.891753
3279.000000	0.891747
3278.000000	0.891731
3277.000000	0.891715
3276.000000	0.891710
3275.000000	0.891732
3274.000000	0.891774
3273.000000	0.891798
3272.000000	0.891770
3271.000000	0.891710
3270.000000	0.891678
3269.000000	0.891714
3268.000000	0.891792
3267.000000	0.891846
3266.000000	0.891847
3265.000000	0.891827
3264.000000	0.891827
3263.000000	0.891840
3262.000000	0.891824
3261.000000	0.891776
3260.000000	0.891752
3259.000000	0.891812
3258.000000	0.891938
3257.000000	0.892055
3256.000000	0.892103
3255.000000	0.892089
3254.000000	0.892061
3253.000000	0.892064
3252.000000	0.892112
3251.000000	0.892190
3250.000000	0.892258
3249.000000	0.892281
3248.000000	0.892266
3247.000000	0.892262
3246.000000	0.892306
3245.000000	0.892383
3244.000000	0.892434
3243.000000	0.892426
3242.000000	0.892369
3241.000000	0.892305
3240.000000	0.892267
3239.000000	0.892265
3238.000000	0.892286
3237.000000	0.892302
3236.000000	0.892290
3235.000000	0.892251
3234.000000	0.892209
3233.000000	0.892191
3232.000000	0.892200
3231.000000	0.892220
3230.000000	0.892238
3229.000000	0.892260
3228.000000	0.892303
3227.000000	0.892366
3226.000000	0.892422
3225.000000	0.892441
3224.000000	0.892425
3223.000000	0.892410
3222.000000	0.892433
3221.000000	0.892498
3220.000000	0.892578
3219.000000	0.892630
3218.000000	0.892624
3217.000000	0.892562
3216.000000	0.892486
3215.000000	0.892455
3214.000000	0.892490
3213.000000	0.892555
3212.000000	0.892582
3211.000000	0.892540
3210.000000	0.892464
3209.000000	0.892409
3208.000000	0.892400
3207.000000	0.892416
3206.000000	0.892438
3205.000000	0.892469
3204.000000	0.892522
3203.000000	0.892573
3202.000000	0.892589
3201.000000	0.892569
3200.000000	0.892560
3199.000000	0.892593
3198.000000	0.892642
3197.000000	0.892655
3196.000000	0.892628
3195.000000	0.892600
3194.000000	0.892591
3193.000000	0.892571
3192.000000	0.892508
3191.000000	0.892423
3190.000000	0.892362
3189.000000	0.892351
3188.000000	0.892381
3187.000000	0.892434
3186.000000	0.892500
3185.000000	0.892568
3184.000000	0.892628
3183.000000	0.892676
3182.000000	0.892712
3181.000000	0.892724
3180.000000	0.892699
3179.000000	0.892642
3178.000000	0.892572
3177.000000	0.892514
3176.000000	0.892491
3175.000000	0.892518
3174.000000	0.892582
3173.000000	0.892639
3172.000000	0.892644
3171.000000	0.892599
3170.000000	0.892546
3169.000000	0.892534
3168.000000	0.892582
3167.000000	0.892678
3166.000000	0.892784
3165.000000	0.892854
3164.000000	0.892854
3163.000000	0.892804
3162.000000	0.892754
3161.000000	0.892744
3160.000000	0.892766
3159.000000	0.892786
3158.000000	0.892777
3157.000000	0.892737
3156.000000	0.892679
3155.000000	0.892625
3154.000000	0.892598
3153.000000	0.892611
3152.000000	0.892655
3151.000000	0.892705
3150.000000	0.892735
3149.000000	0.892726
3148.000000	0.892682
3147.000000	0.892630
3146.000000	0.892598
3145.000000	0.892594
3144.000000	0.892601
3143.000000	0.892603
3142.000000	0.892605
3141.000000	0.892614
3140.000000	0.892636
3139.000000	0.892678
3138.000000	0.892753
3137.000000	0.892867
3136.000000	0.892990
3135.000000	0.893072
3134.000000	0.893084
3133.000000	0.893039
3132.000000	0.892979
3131.000000	0.892938
3130.000000	0.892923
3129.000000	0.892915
3128.000000	0.892895
3127.000000	0.892864
3126.000000	0.892834
3125.000000	0.892812
3124.000000	0.892787
3123.000000	0.892759
3122.000000	0.892749
3121.000000	0.892783
3120.000000	0.892856
3119.000000	0.892930
3118.000000	0.892973
3117.000000	0.892978
3116.000000	0.892962
3115.000000	0.892940
3114.000000	0.892924
3113.000000	0.892925
3112.000000	0.892944
3111.000000	0.892970
3110.000000	0.892982
3109.000000	0.892981
3108.000000	0.892984
3107.000000	0.893005
3106.000000	0.893030
3105.000000	0.893036
3104.000000	0.893014
3103.000000	0.892979
3102.000000	0.892959
3101.000000	0.892959
3100.000000	0.892958
3099.000000	0.892927
3098.000000	0.892862
3097.000000	0.892790
3096.000000	0.892753
3095.000000	0.892771
3094.000000	0.892820
3093.000000	0.892856
3092.000000	0.892864
3091.000000	0.892871
3090.000000	0.892910
3089.000000	0.892981
3088.000000	0.893044
3087.000000	0.893066
3086.000000	0.893047
3085.000000	0.893006
3084.000000	0.892959
3083.000000	0.892907
3082.000000	0.892856
3081.000000	0.892808
3080.000000	0.892758
3079.000000	0.892699
3078.000000	0.892648
3077.000000	0.892640
3076.000000	0.892691
3075.000000	0.892775
3074.000000	0.892843
3073.000000	0.892863
3072.000000	0.892836
3071.000000	0.892785
3070.000000	0.892732
3069.000000	0.892698
3068.000000	0.892701
3067.000000	0.892744
3066.000000	0.892810
3065.000000	0.892868
3064.000000	0.892889
3063.000000	0.892858
3062.000000	0.892780
3061.000000	0.892678
3060.000000	0.892592
3059.000000	0.892547
3058.000000	0.892547
3057.000000	0.892571
3056.000000	0.892596
3055.000000	0.892608
3054.000000	0.892602
3053.000000	0.892578
3052.000000	0.892542
3051.000000	0.892509
3050.000000	0.892492
3049.000000	0.892496
3048.000000	0.892508
3047.000000	0.892509
3046.000000	0.892477
3045.000000	0.892412
3044.000000	0.892337
3043.000000	0.892282
3042.000000	0.892264
3041.000000	0.892272
3040.000000	0.892273
3039.000000	0.892240
3038.000000	0.892181
3037.000000	0.892135
3036.000000	0.892142
3035.000000	0.892202
3034.000000	0.892277
3033.000000	0.892329
3032.000000	0.892349
3031.000000	0.892341
3030.000000	0.892315
3029.000000	0.892284
3028.000000	0.892274
3027.000000	0.892295
3026.000000	0.892325
3025.000000	0.892330
3024.000000	0.892314
3023.000000	0.892308
3022.000000	0.892324
3021.000000	0.892334
3020.000000	0.892299
3019.000000	0.892218
3018.000000	0.892124
3017.000000	0.892057
3016.000000	0.892032
3015.000000	0.892039
3014.000000	0.892042
3013.000000	0.892012
3012.000000	0.891959
3011.000000	0.891932
3010.000000	0.891961
3009.000000	0.892019
3008.000000	0.892046
3007.000000	0.892018
3006.000000	0.891964
3005.000000	0.891939
3004.000000	0.891967
3003.000000	0.892026
3002.000000	0.892066
3001.000000	0.892048
3000.000000	0.891977
2999.000000	0.891896
2998.000000	0.891846
2997.000000	0.891827
2996.000000	0.891811
2995.000000	0.891774
2994.000000	0.891719
2993.000000	0.891659
2992.000000	0.891614
2991.000000	0.891597
2990.000000	0.891602
2989.000000	0.891604
2988.000000	0.891585
2987.000000	0.891554
2986.000000	0.891540
2985.000000	0.891554
2984.000000	0.891584
2983.000000	0.891617
2982.000000	0.891641
2981.000000	0.891651
2980.000000	0.891644
2979.000000	0.891623
2978.000000	0.891594
2977.000000	0.891551
2976.000000	0.891490
2975.000000	0.891433
2974.000000	0.891414
2973.000000	0.891450
2972.000000	0.891516
2971.000000	0.891572
2970.000000	0.891592
2969.000000	0.891583
2968.000000	0.891564
2967.000000	0.891555
2966.000000	0.891558
2965.000000	0.891559
2964.000000	0.891537
2963.000000	0.891496
2962.000000	0.891459
2961.000000	0.891442
2960.000000	0.891433
2959.000000	0.891407
2958.000000	0.891356
2957.000000	0.891295
2956.000000	0.891242
2955.000000	0.891198
2954.000000	0.891158
2953.000000	0.891111
2952.000000	0.891049
2951.000000	0.890963
2950.000000	0.890862
2949.000000	0.890784
2948.000000	0.890765
2947.000000	0.890811
2946.000000	0.890883
2945.000000	0.890936
2944.000000	0.890948
2943.000000	0.890924
2942.000000	0.890875
2941.000000	0.890813
2940.000000	0.890760
2939.000000	0.890743
2938.000000	0.890758
2937.000000	0.890774
2936.000000	0.890764
2935.000000	0.890732
2934.000000	0.890705
2933.000000	0.890700
2932.000000	0.890717
2931.000000	0.890746
2930.000000	0.890772
2929.000000	0.890783
2928.000000	0.890781
2927.000000	0.890778
2926.000000	0.890764
2925.000000	0.890697
2924.000000	0.890544
2923.000000	0.890338
2922.000000	0.890176
2921.000000	0.890129
2920.000000	0.890173
2919.000000	0.890220
2918.000000	0.890206
2917.000000	0.890140
2916.000000	0.890075
2915.000000	0.890049
2914.000000	0.890060
2913.000000	0.890086
2912.000000	0.890105
2911.000000	0.890112
2910.000000	0.890103
2909.000000	0.890077
2908.000000	0.890038
2907.000000	0.889995
2906.000000	0.889958
2905.000000	0.889931
2904.000000	0.889918
2903.000000	0.889916
2902.000000	0.889913
2901.000000	0.889882
2900.000000	0.889814
2899.000000	0.889726
2898.000000	0.889655
2897.000000	0.889632
2896.000000	0.889663
2895.000000	0.889728
2894.000000	0.889786
2893.000000	0.889789
2892.000000	0.889724
2891.000000	0.889618
2890.000000	0.889520
2889.000000	0.889453
2888.000000	0.889410
2887.000000	0.889375
2886.000000	0.889348
2885.000000	0.889339
2884.000000	0.889358
2883.000000	0.889399
2882.000000	0.889437
2881.000000	0.889433
2880.000000	0.889376
2879.000000	0.889296
2878.000000	0.889233
2877.000000	0.889196
2876.000000	0.889164
2875.000000	0.889121
2874.000000	0.889080
2873.000000	0.889060
2872.000000	0.889060
2871.000000	0.889059
2870.000000	0.889038
2869.000000	0.888991
2868.000000	0.888936
2867.000000	0.888895
2866.000000	0.888877
2865.000000	0.888863
2864.000000	0.888829
2863.000000	0.888768
2862.000000	0.888691
2861.000000	0.888602
2860.000000	0.888507
2859.000000	0.888425
2858.000000	0.888378
2857.000000	0.888362
2856.000000	0.888345
2855.000000	0.888308
2854.000000	0.888259
2853.000000	0.888208
2852.000000	0.888156
2851.000000	0.888106
2850.000000	0.888072
2849.000000	0.888050
2848.000000	0.888014
2847.000000	0.887951
2846.000000	0.887880
2845.000000	0.887829
2844.000000	0.887803
2843.000000	0.887789
2842.000000	0.887784
2841.000000	0.887788
2840.000000	0.887791
2839.000000	0.887778
2838.000000	0.887753
2837.000000	0.887730
2836.000000	0.887707
2835.000000	0.887677
2834.000000	0.887643
2833.000000	0.887618
2832.000000	0.887612
2831.000000	0.887621
2830.000000	0.887638
2829.000000	0.887638
2828.000000	0.887593
2827.000000	0.887500
2826.000000	0.887406
2825.000000	0.887367
2824.000000	0.887379
2823.000000	0.887388
2822.000000	0.887355
2821.000000	0.887291
2820.000000	0.887230
2819.000000	0.887187
2818.000000	0.887160
2817.000000	0.887144
2816.000000	0.887124
2815.000000	0.887079
2814.000000	0.887011
2813.000000	0.886955
2812.000000	0.886943
2811.000000	0.886959
2810.000000	0.886960
2809.000000	0.886924
2808.000000	0.886872
2807.000000	0.886830
2806.000000	0.886801
2805.000000	0.886779
2804.000000	0.886765
2803.000000	0.886751
2802.000000	0.886715
2801.000000	0.886642
2800.000000	0.886547
2799.000000	0.886468
2798.000000	0.886434
2797.000000	0.886436
2796.000000	0.886436
2795.000000	0.886407
2794.000000	0.886355
2793.000000	0.886307
2792.000000	0.886285
2791.000000	0.886279
2790.000000	0.886267
2789.000000	0.886247
2788.000000	0.886238
2787.000000	0.886248
2786.000000	0.886259
2785.000000	0.886246
2784.000000	0.886203
2783.000000	0.886143
2782.000000	0.886083
2781.000000	0.886039
2780.000000	0.886019
2779.000000	0.886020
2778.000000	0.886026
2777.000000	0.886023
2776.000000	0.886013
2775.000000	0.886010
2774.000000	0.886015
2773.000000	0.886015
2772.000000	0.886004
2771.000000	0.885983
2770.000000	0.885951
2769.000000	0.885900
2768.000000	0.885837
2767.000000	0.885789
2766.000000	0.885778
2765.000000	0.885797
2764.000000	0.885817
2763.000000	0.885815
2762.000000	0.885786
2761.000000	0.885735
2760.000000	0.885675
2759.000000	0.885620
2758.000000	0.885578
2757.000000	0.885541
2756.000000	0.885506
2755.000000	0.885486
2754.000000	0.885498
2753.000000	0.885534
2752.000000	0.885562
2751.000000	0.885560
2750.000000	0.885538
2749.000000	0.885523
2748.000000	0.885526
2747.000000	0.885536
2746.000000	0.885536
2745.000000	0.885517
2744.000000	0.885479
2743.000000	0.885426
2742.000000	0.885370
2741.000000	0.885326
2740.000000	0.885300
2739.000000	0.885279
2738.000000	0.885248
2737.000000	0.885204
2736.000000	0.885169
2735.000000	0.885168
2734.000000	0.885200
2733.000000	0.885245
2732.000000	0.885290
2731.000000	0.885334
2730.000000	0.885372
2729.000000	0.885382
2728.000000	0.885348
2727.000000	0.885288
2726.000000	0.885247
2725.000000	0.885247
2724.000000	0.885266
2723.000000	0.885265
2722.000000	0.885228
2721.000000	0.885168
2720.000000	0.885115
2719.000000	0.885091
2718.000000	0.885096
2717.000000	0.885117
2716.000000	0.885135
2715.000000	0.885135
2714.000000	0.885102
2713.000000	0.885030
2712.000000	0.884932
2711.000000	0.884851
2710.000000	0.884840
2709.000000	0.884915
2708.000000	0.885036
2707.000000	0.885140
2706.000000	0.885183
2705.000000	0.885162
2704.000000	0.885105
2703.000000	0.885049
2702.000000	0.885016
2701.000000	0.885002
2700.000000	0.884982
2699.000000	0.884947
2698.000000	0.884915
2697.000000	0.884922
2696.000000	0.884978
2695.000000	0.885056
2694.000000	0.885110
2693.000000	0.885121
2692.000000	0.885107
2691.000000	0.885097
2690.000000	0.885105
2689.000000	0.885117
2688.000000	0.885121
2687.000000	0.885113
2686.000000	0.885091
2685.000000	0.885043
2684.000000	0.884967
2683.000000	0.884892
2682.000000	0.884856
2681.000000	0.884868
2680.000000	0.884906
2679.000000	0.884950
2678.000000	0.885003
2677.000000	0.885062
2676.000000	0.885101
2675.000000	0.885103
2674.000000	0.885089
2673.000000	0.885101
2672.000000	0.885150
2671.000000	0.885201
2670.000000	0.885212
2669.000000	0.885177
2668.000000	0.885121
2667.000000	0.885071
2666.000000	0.885041
2665.000000	0.885034
2664.000000	0.885050
2663.000000	0.885076
2662.000000	0.885093
2661.000000	0.885092
2660.000000	0.885077
2659.000000	0.885069
2658.000000	0.885082
2657.000000	0.885112
2656.000000	0.885141
2655.000000	0.885152
2654.000000	0.885150
2653.000000	0.885150
2652.000000	0.885157
2651.000000	0.885155
2650.000000	0.885129
2649.000000	0.885089
2648.000000	0.885067
2647.000000	0.885088
2646.000000	0.885143
2645.000000	0.885201
2644.000000	0.885244
2643.000000	0.885269
2642.000000	0.885277
2641.000000	0.885267
2640.000000	0.885247
2639.000000	0.885249
2638.000000	0.885303
2637.000000	0.885403
2636.000000	0.885502
2635.000000	0.885546
2634.000000	0.885511
2633.000000	0.885416
2632.000000	0.885307
2631.000000	0.885235
2630.000000	0.885232
2629.000000	0.885300
2628.000000	0.885406
2627.000000	0.885493
2626.000000	0.885520
2625.000000	0.885488
2624.000000	0.885447
2623.000000	0.885443
2622.000000	0.885476
2621.000000	0.885501
2620.000000	0.885486
2619.000000	0.885448
2618.000000	0.885427
2617.000000	0.885429
2616.000000	0.885431
2615.000000	0.885416
2614.000000	0.885395
2613.000000	0.885394
2612.000000	0.885420
2611.000000	0.885461
2610.000000	0.885488
2609.000000	0.885476
2608.000000	0.885427
2607.000000	0.885375
2606.000000	0.885357
2605.000000	0.885376
2604.000000	0.885407
2603.000000	0.885439
2602.000000	0.885478
2601.000000	0.885527
2600.000000	0.885565
2599.000000	0.885578
2598.000000	0.885574
2597.000000	0.885570
2596.000000	0.885570
2595.000000	0.885571
2594.000000	0.885573
2593.000000	0.885586
2592.000000	0.885611
2591.000000	0.885640
2590.000000	0.885666
2589.000000	0.885680
2588.000000	0.885684
2587.000000	0.885694
2586.000000	0.885735
2585.000000	0.885806
2584.000000	0.885869
2583.000000	0.885884
2582.000000	0.885850
2581.000000	0.885801
2580.000000	0.885764
2579.000000	0.885741
2578.000000	0.885723
2577.000000	0.885702
2576.000000	0.885678
2575.000000	0.885666
2574.000000	0.885688
2573.000000	0.885762
2572.000000	0.885870
2571.000000	0.885958
2570.000000	0.885975
2569.000000	0.885916
2568.000000	0.885831
2567.000000	0.885786
2566.000000	0.885807
2565.000000	0.885854
2564.000000	0.885869
2563.000000	0.885837
2562.000000	0.885808
2561.000000	0.885825
2560.000000	0.885875
2559.000000	0.885911
2558.000000	0.885910
2557.000000	0.885892
2556.000000	0.885884
2555.000000	0.885893
2554.000000	0.885916
2553.000000	0.885953
2552.000000	0.885990
2551.000000	0.885996
2550.000000	0.885960
2549.000000	0.885910
2548.000000	0.885892
2547.000000	0.885918
2546.000000	0.885959
2545.000000	0.885977
2544.000000	0.885963
2543.000000	0.885947
2542.000000	0.885972
2541.000000	0.886049
2540.000000	0.886144
2539.000000	0.886198
2538.000000	0.886183
2537.000000	0.886131
2536.000000	0.886091
2535.000000	0.886084
2534.000000	0.886088
2533.000000	0.886080
2532.000000	0.886059
2531.000000	0.886038
2530.000000	0.886032
2529.000000	0.886048
2528.000000	0.886088
2527.000000	0.886131
2526.000000	0.886149
2525.000000	0.886130
2524.000000	0.886093
2523.000000	0.886070
2522.000000	0.886072
2521.000000	0.886087
2520.000000	0.886091
2519.000000	0.886079
2518.000000	0.886064
2517.000000	0.886062
2516.000000	0.886074
2515.000000	0.886078
2514.000000	0.886053
2513.000000	0.886005
2512.000000	0.885972
2511.000000	0.885994
2510.000000	0.886073
2509.000000	0.886175
2508.000000	0.886264
2507.000000	0.886314
2506.000000	0.886316
2505.000000	0.886276
2504.000000	0.886217
2503.000000	0.886170
2502.000000	0.886156
2501.000000	0.886170
2500.000000	0.886197
2499.000000	0.886223
2498.000000	0.886240
2497.000000	0.886248
2496.000000	0.886253
2495.000000	0.886258
2494.000000	0.886254
2493.000000	0.886228
2492.000000	0.886199
2491.000000	0.886207
2490.000000	0.886272
2489.000000	0.886361
2488.000000	0.886415
2487.000000	0.886408
2486.000000	0.886368
2485.000000	0.886338
2484.000000	0.886336
2483.000000	0.886347
2482.000000	0.886351
2481.000000	0.886345
2480.000000	0.886347
2479.000000	0.886381
2478.000000	0.886443
2477.000000	0.886507
2476.000000	0.886539
2475.000000	0.886527
2474.000000	0.886481
2473.000000	0.886420
2472.000000	0.886361
2471.000000	0.886318
2470.000000	0.886299
2469.000000	0.886306
2468.000000	0.886334
2467.000000	0.886375
2466.000000	0.886423
2465.000000	0.886470
2464.000000	0.886513
2463.000000	0.886551
2462.000000	0.886580
2461.000000	0.886595
2460.000000	0.886597
2459.000000	0.886607
2458.000000	0.886642
2457.000000	0.886698
2456.000000	0.886748
2455.000000	0.886768
2454.000000	0.886757
2453.000000	0.886728
2452.000000	0.886706
2451.000000	0.886718
2450.000000	0.886780
2449.000000	0.886884
2448.000000	0.887003
2447.000000	0.887105
2446.000000	0.887168
2445.000000	0.887181
2444.000000	0.887156
2443.000000	0.887133
2442.000000	0.887149
2441.000000	0.887212
2440.000000	0.887298
2439.000000	0.887384
2438.000000	0.887471
2437.000000	0.887561
2436.000000	0.887642
2435.000000	0.887696
2434.000000	0.887719
2433.000000	0.887718
2432.000000	0.887710
2431.000000	0.887711
2430.000000	0.887733
2429.000000	0.887776
2428.000000	0.887832
2427.000000	0.887890
2426.000000	0.887942
2425.000000	0.887981
2424.000000	0.887996
2423.000000	0.887989
2422.000000	0.887967
2421.000000	0.887925
2420.000000	0.887850
2419.000000	0.887743
2418.000000	0.887619
2417.000000	0.887495
2416.000000	0.887374
2415.000000	0.887256
2414.000000	0.887161
2413.000000	0.887113
2412.000000	0.887117
2411.000000	0.887146
2410.000000	0.887157
2409.000000	0.887117
2408.000000	0.887028
2407.000000	0.886935
2406.000000	0.886889
2405.000000	0.886901
2404.000000	0.886928
2403.000000	0.886928
2402.000000	0.886895
2401.000000	0.886849
2400.000000	0.886801
2399.000000	0.886753
2398.000000	0.886714
2397.000000	0.886699
2396.000000	0.886703
2395.000000	0.886705
2394.000000	0.886696
2393.000000	0.886686
2392.000000	0.886684
2391.000000	0.886677
2390.000000	0.886647
2389.000000	0.886602
2388.000000	0.886568
2387.000000	0.886561
2386.000000	0.886569
2385.000000	0.886567
2384.000000	0.886538
2383.000000	0.886486
2382.000000	0.886422
2381.000000	0.886350
2380.000000	0.886257
2379.000000	0.886134
2378.000000	0.885984
2377.000000	0.885811
2376.000000	0.885614
2375.000000	0.885383
2374.000000	0.885114
2373.000000	0.884813
2372.000000	0.884500
2371.000000	0.884197
2370.000000	0.883915
2369.000000	0.883657
2368.000000	0.883419
2367.000000	0.883208
2366.000000	0.883037
2365.000000	0.882916
2364.000000	0.882830
2363.000000	0.882755
2362.000000	0.882680
2361.000000	0.882621
2360.000000	0.882606
2359.000000	0.882663
2358.000000	0.882809
2357.000000	0.883043
2356.000000	0.883348
2355.000000	0.883694
2354.000000	0.884057
2353.000000	0.884429
2352.000000	0.884818
2351.000000	0.885211
2350.000000	0.885550
2349.000000	0.885739
2348.000000	0.885715
2347.000000	0.885503
2346.000000	0.885199
2345.000000	0.884901
2344.000000	0.884647
2343.000000	0.884425
2342.000000	0.884215
2341.000000	0.884018
2340.000000	0.883844
2339.000000	0.883702
2338.000000	0.883602
2337.000000	0.883551
2336.000000	0.883556
2335.000000	0.883611
2334.000000	0.883700
2333.000000	0.883800
2332.000000	0.883901
2331.000000	0.884008
2330.000000	0.884129
2329.000000	0.884258
2328.000000	0.884389
2327.000000	0.884524
2326.000000	0.884675
2325.000000	0.884829
2324.000000	0.884950
2323.000000	0.885018
2322.000000	0.885049
2321.000000	0.885084
2320.000000	0.885149
2319.000000	0.885251
2318.000000	0.885390
2317.000000	0.885570
2316.000000	0.885774
2315.000000	0.885950
2314.000000	0.886048
2313.000000	0.886070
2312.000000	0.886087
2311.000000	0.886178
2310.000000	0.886349
2309.000000	0.886531
2308.000000	0.886644
2307.000000	0.886667
2306.000000	0.886630
2305.000000	0.886567
2304.000000	0.886496
2303.000000	0.886440
2302.000000	0.886428
2301.000000	0.886466
2300.000000	0.886531
2299.000000	0.886606
2298.000000	0.886693
2297.000000	0.886782
2296.000000	0.886839
2295.000000	0.886841
2294.000000	0.886808
2293.000000	0.886777
2292.000000	0.886770
2291.000000	0.886788
2290.000000	0.886835
2289.000000	0.886915
2288.000000	0.887005
2287.000000	0.887061
2286.000000	0.887054
2285.000000	0.886991
2284.000000	0.886911
2283.000000	0.886857
2282.000000	0.886859
2281.000000	0.886907
2280.000000	0.886962
2279.000000	0.886993
2278.000000	0.887015
2277.000000	0.887058
2276.000000	0.887116
2275.000000	0.887145
2274.000000	0.887117
2273.000000	0.887049
2272.000000	0.886986
2271.000000	0.886951
2270.000000	0.886941
2269.000000	0.886941
2268.000000	0.886944
2267.000000	0.886950
2266.000000	0.886962
2265.000000	0.886980
2264.000000	0.886996
2263.000000	0.887006
2262.000000	0.887019
2261.000000	0.887047
2260.000000	0.887084
2259.000000	0.887107
2258.000000	0.887111
2257.000000	0.887115
2256.000000	0.887140
2255.000000	0.887173
2254.000000	0.887186
2253.000000	0.887169
2252.000000	0.887131
2251.000000	0.887086
2250.000000	0.887044
2249.000000	0.887011
2248.000000	0.886999
2247.000000	0.887007
2246.000000	0.887022
2245.000000	0.887022
2244.000000	0.887004
2243.000000	0.886975
2242.000000	0.886947
2241.000000	0.886925
2240.000000	0.886901
2239.000000	0.886870
2238.000000	0.886837
2237.000000	0.886822
2236.000000	0.886836
2235.000000	0.886872
2234.000000	0.886910
2233.000000	0.886932
2232.000000	0.886935
2231.000000	0.886926
2230.000000	0.886910
2229.000000	0.886891
2228.000000	0.886876
2227.000000	0.886866
2226.000000	0.886854
2225.000000	0.886836
2224.000000	0.886827
2223.000000	0.886843
2222.000000	0.886869
2221.000000	0.886864
2220.000000	0.886810
2219.000000	0.886743
2218.000000	0.886722
2217.000000	0.886765
2216.000000	0.886824
2215.000000	0.886841
2214.000000	0.886804
2213.000000	0.886751
2212.000000	0.886721
2211.000000	0.886720
2210.000000	0.886725
2209.000000	0.886717
2208.000000	0.886694
2207.000000	0.886665
2206.000000	0.886640
2205.000000	0.886626
2204.000000	0.886622
2203.000000	0.886625
2202.000000	0.886628
2201.000000	0.886621
2200.000000	0.886603
2199.000000	0.886582
2198.000000	0.886560
2197.000000	0.886535
2196.000000	0.886506
2195.000000	0.886477
2194.000000	0.886458
2193.000000	0.886448
2192.000000	0.886439
2191.000000	0.886422
2190.000000	0.886400
2189.000000	0.886380
2188.000000	0.886364
2187.000000	0.886353
2186.000000	0.886343
2185.000000	0.886331
2184.000000	0.886315
2183.000000	0.886294
2182.000000	0.886269
2181.000000	0.886237
2180.000000	0.886206
2179.000000	0.886195
2178.000000	0.886211
2177.000000	0.886235
2176.000000	0.886237
2175.000000	0.886219
2174.000000	0.886205
2173.000000	0.886205
2172.000000	0.886195
2171.000000	0.886150
2170.000000	0.886087
2169.000000	0.886044
2168.000000	0.886028
2167.000000	0.886009
2166.000000	0.885960
2165.000000	0.885890
2164.000000	0.885824
2163.000000	0.885777
2162.000000	0.885746
2161.000000	0.885733
2160.000000	0.885744
2159.000000	0.885767
2158.000000	0.885764
2157.000000	0.885713
2156.000000	0.885636
2155.000000	0.885589
2154.000000	0.885600
2153.000000	0.885640
2152.000000	0.885660
2151.000000	0.885644
2150.000000	0.885613
2149.000000	0.885579
2148.000000	0.885529
2147.000000	0.885447
2146.000000	0.885344
2145.000000	0.885253
2144.000000	0.885194
2143.000000	0.885171
2142.000000	0.885169
2141.000000	0.885168
2140.000000	0.885153
2139.000000	0.885123
2138.000000	0.885097
2137.000000	0.885089
2136.000000	0.885091
2135.000000	0.885074
2134.000000	0.885024
2133.000000	0.884970
2132.000000	0.884955
2131.000000	0.884984
2130.000000	0.885008
2129.000000	0.884973
2128.000000	0.884874
2127.000000	0.884759
2126.000000	0.884664
2125.000000	0.884580
2124.000000	0.884490
2123.000000	0.884414
2122.000000	0.884391
2121.000000	0.884422
2120.000000	0.884458
2119.000000	0.884449
2118.000000	0.884389
2117.000000	0.884304
2116.000000	0.884218
2115.000000	0.884152
2114.000000	0.884118
2113.000000	0.884115
2112.000000	0.884131
2111.000000	0.884156
2110.000000	0.884189
2109.000000	0.884221
2108.000000	0.884228
2107.000000	0.884195
2106.000000	0.884136
2105.000000	0.884070
2104.000000	0.884004
2103.000000	0.883932
2102.000000	0.883859
2101.000000	0.883804
2100.000000	0.883779
2099.000000	0.883779
2098.000000	0.883781
2097.000000	0.883763
2096.000000	0.883725
2095.000000	0.883685
2094.000000	0.883659
2093.000000	0.883639
2092.000000	0.883602
2091.000000	0.883542
2090.000000	0.883479
2089.000000	0.883436
2088.000000	0.883407
2087.000000	0.883368
2086.000000	0.883307
2085.000000	0.883241
2084.000000	0.883200
2083.000000	0.883198
2082.000000	0.883222
2081.000000	0.883237
2080.000000	0.883222
2079.000000	0.883183
2078.000000	0.883144
2077.000000	0.883113
2076.000000	0.883083
2075.000000	0.883041
2074.000000	0.882985
2073.000000	0.882918
2072.000000	0.882851
2071.000000	0.882800
2070.000000	0.882777
2069.000000	0.882767
2068.000000	0.882743
2067.000000	0.882691
2066.000000	0.882623
2065.000000	0.882552
2064.000000	0.882482
2063.000000	0.882424
2062.000000	0.882390
2061.000000	0.882375
2060.000000	0.882358
2059.000000	0.882329
2058.000000	0.882307
2057.000000	0.882310
2056.000000	0.882329
2055.000000	0.882332
2054.000000	0.882301
2053.000000	0.882233
2052.000000	0.882141
2051.000000	0.882049
2050.000000	0.881976
2049.000000	0.881927
2048.000000	0.881889
2047.000000	0.881861
2046.000000	0.881859
2045.000000	0.881882
2044.000000	0.881908
2043.000000	0.881912
2042.000000	0.881893
2041.000000	0.881857
2040.000000	0.881800
2039.000000	0.881723
2038.000000	0.881651
2037.000000	0.881609
2036.000000	0.881595
2035.000000	0.881592
2034.000000	0.881598
2033.000000	0.881617
2032.000000	0.881637
2031.000000	0.881632
2030.000000	0.881596
2029.000000	0.881536
2028.000000	0.881456
2027.000000	0.881362
2026.000000	0.881280
2025.000000	0.881244
2024.000000	0.881255
2023.000000	0.881286
2022.000000	0.881303
2021.000000	0.881294
2020.000000	0.881259
2019.000000	0.881199
2018.000000	0.881127
2017.000000	0.881061
2016.000000	0.881015
2015.000000	0.880988
2014.000000	0.880976
2013.000000	0.880970
2012.000000	0.880956
2011.000000	0.880924
2010.000000	0.880878
2009.000000	0.880823
2008.000000	0.880765
2007.000000	0.880715
2006.000000	0.880695
2005.000000	0.880712
2004.000000	0.880736
2003.000000	0.880726
2002.000000	0.880684
2001.000000	0.880648
2000.000000	0.880644
1999.000000	0.880655
1998.000000	0.880659
1997.000000	0.880653
1996.000000	0.880639
1995.000000	0.880607
1994.000000	0.880546
1993.000000	0.880457
1992.000000	0.880349
1991.000000	0.880224
1990.000000	0.880096
1989.000000	0.880003
1988.000000	0.879981
1987.000000	0.880034
1986.000000	0.880123
1985.000000	0.880194
1984.000000	0.880218
1983.000000	0.880196
1982.000000	0.880154
1981.000000	0.880116
1980.000000	0.880096
1979.000000	0.880100
1978.000000	0.880125
1977.000000	0.880157
1976.000000	0.880173
1975.000000	0.880154
1974.000000	0.880103
1973.000000	0.880036
1972.000000	0.879975
1971.000000	0.879931
1970.000000	0.879912
1969.000000	0.879917
1968.000000	0.879936
1967.000000	0.879958
1966.000000	0.879970
1965.000000	0.879958
1964.000000	0.879914
1963.000000	0.879855
1962.000000	0.879816
1961.000000	0.879810
1960.000000	0.879812
1959.000000	0.879789
1958.000000	0.879745
1957.000000	0.879709
1956.000000	0.879690
1955.000000	0.879672
1954.000000	0.879641
1953.000000	0.879607
1952.000000	0.879589
1951.000000	0.879588
1950.000000	0.879592
1949.000000	0.879596
1948.000000	0.879598
1947.000000	0.879601
1946.000000	0.879598
1945.000000	0.879580
1944.000000	0.879551
1943.000000	0.879531
1942.000000	0.879544
1941.000000	0.879592
1940.000000	0.879653
1939.000000	0.879702
1938.000000	0.879732
1937.000000	0.879737
1936.000000	0.879698
1935.000000	0.879618
1934.000000	0.879539
1933.000000	0.879524
1932.000000	0.879587
1931.000000	0.879679
1930.000000	0.879732
1929.000000	0.879720
1928.000000	0.879677
1927.000000	0.879657
1926.000000	0.879690
1925.000000	0.879746
1924.000000	0.879767
1923.000000	0.879725
1922.000000	0.879639
1921.000000	0.879546
1920.000000	0.879462
1919.000000	0.879398
1918.000000	0.879383
1917.000000	0.879437
1916.000000	0.879533
1915.000000	0.879616
1914.000000	0.879654
1913.000000	0.879657
1912.000000	0.879643
1911.000000	0.879616
1910.000000	0.879578
1909.000000	0.879540
1908.000000	0.879518
1907.000000	0.879512
1906.000000	0.879512
1905.000000	0.879509
1904.000000	0.879496
1903.000000	0.879481
1902.000000	0.879484
1901.000000	0.879515
1900.000000	0.879559
1899.000000	0.879595
1898.000000	0.879637
1897.000000	0.879705
1896.000000	0.879778
1895.000000	0.879808
1894.000000	0.879769
1893.000000	0.879694
1892.000000	0.879624
1891.000000	0.879574
1890.000000	0.879544
1889.000000	0.879543
1888.000000	0.879584
1887.000000	0.879656
1886.000000	0.879722
1885.000000	0.879744
1884.000000	0.879707
1883.000000	0.879634
1882.000000	0.879577
1881.000000	0.879583
1880.000000	0.879644
1879.000000	0.879710
1878.000000	0.879734
1877.000000	0.879715
1876.000000	0.879680
1875.000000	0.879652
1874.000000	0.879634
1873.000000	0.879618
1872.000000	0.879580
1871.000000	0.879503
1870.000000	0.879399
1869.000000	0.879318
1868.000000	0.879306
1867.000000	0.879368
1866.000000	0.879466
1865.000000	0.879547
1864.000000	0.879570
1863.000000	0.879530
1862.000000	0.879462
1861.000000	0.879411
1860.000000	0.879410
1859.000000	0.879464
1858.000000	0.879551
1857.000000	0.879627
1856.000000	0.879646
1855.000000	0.879604
1854.000000	0.879551
1853.000000	0.879540
1852.000000	0.879561
1851.000000	0.879570
1850.000000	0.879554
1849.000000	0.879535
1848.000000	0.879502
1847.000000	0.879403
1846.000000	0.879227
1845.000000	0.879057
1844.000000	0.879005
1843.000000	0.879105
1842.000000	0.879291
1841.000000	0.879466
1840.000000	0.879565
1839.000000	0.879577
1838.000000	0.879540
1837.000000	0.879511
1836.000000	0.879522
1835.000000	0.879550
1834.000000	0.879547
1833.000000	0.879488
1832.000000	0.879388
1831.000000	0.879293
1830.000000	0.879250
1829.000000	0.879282
1828.000000	0.879356
1827.000000	0.879403
1826.000000	0.879392
1825.000000	0.879367
1824.000000	0.879397
1823.000000	0.879496
1822.000000	0.879614
1821.000000	0.879697
1820.000000	0.879731
1819.000000	0.879729
1818.000000	0.879709
1817.000000	0.879685
1816.000000	0.879671
1815.000000	0.879675
1814.000000	0.879686
1813.000000	0.879676
1812.000000	0.879618
1811.000000	0.879518
1810.000000	0.879427
1809.000000	0.879411
1808.000000	0.879486
1807.000000	0.879598
1806.000000	0.879672
1805.000000	0.879675
1804.000000	0.879625
1803.000000	0.879565
1802.000000	0.879531
1801.000000	0.879536
1800.000000	0.879568
1799.000000	0.879606
1798.000000	0.879636
1797.000000	0.879650
1796.000000	0.879615
1795.000000	0.879500
1794.000000	0.879325
1793.000000	0.879181
1792.000000	0.879154
1791.000000	0.879243
1790.000000	0.879375
1789.000000	0.879479
1788.000000	0.879528
1787.000000	0.879525
1786.000000	0.879500
1785.000000	0.879498
1784.000000	0.879539
1783.000000	0.879596
1782.000000	0.879626
1781.000000	0.879617
1780.000000	0.879586
1779.000000	0.879541
1778.000000	0.879491
1777.000000	0.879451
1776.000000	0.879421
1775.000000	0.879347
1774.000000	0.879185
1773.000000	0.878998
1772.000000	0.878923
1771.000000	0.879013
1770.000000	0.879173
1769.000000	0.879287
1768.000000	0.879358
1767.000000	0.879467
1766.000000	0.879628
1765.000000	0.879746
1764.000000	0.879733
1763.000000	0.879617
1762.000000	0.879508
1761.000000	0.879486
1760.000000	0.879542
1759.000000	0.879607
1758.000000	0.879640
1757.000000	0.879658
1756.000000	0.879691
1755.000000	0.879718
1754.000000	0.879669
1753.000000	0.879520
1752.000000	0.879346
1751.000000	0.879264
1750.000000	0.879319
1749.000000	0.879458
1748.000000	0.879600
1747.000000	0.879710
1746.000000	0.879789
1745.000000	0.879838
1744.000000	0.879853
1743.000000	0.879827
1742.000000	0.879756
1741.000000	0.879661
1740.000000	0.879612
1739.000000	0.879677
1738.000000	0.879806
1737.000000	0.879815
1736.000000	0.879573
1735.000000	0.879186
1734.000000	0.878942
1733.000000	0.879023
1732.000000	0.879341
1731.000000	0.879682
1730.000000	0.879933
1729.000000	0.880116
1728.000000	0.880263
1727.000000	0.880357
1726.000000	0.880384
1725.000000	0.880375
1724.000000	0.880376
1723.000000	0.880397
1722.000000	0.880399
1721.000000	0.880296
1720.000000	0.880010
1719.000000	0.879574
1718.000000	0.879192
1717.000000	0.879095
1716.000000	0.879326
1715.000000	0.879712
1714.000000	0.880056
1713.000000	0.880293
1712.000000	0.880445
1711.000000	0.880520
1710.000000	0.880513
1709.000000	0.880448
1708.000000	0.880351
1707.000000	0.880238
1706.000000	0.880144
1705.000000	0.880108
1704.000000	0.880075
1703.000000	0.879887
1702.000000	0.879486
1701.000000	0.879081
1700.000000	0.878960
1699.000000	0.879143
1698.000000	0.879363
1697.000000	0.879422
1696.000000	0.879428
1695.000000	0.879611
1694.000000	0.880006
1693.000000	0.880415
1692.000000	0.880657
1691.000000	0.880730
1690.000000	0.880739
1689.000000	0.880718
1688.000000	0.880575
1687.000000	0.880203
1686.000000	0.879665
1685.000000	0.879245
1684.000000	0.879233
1683.000000	0.879640
1682.000000	0.880183
1681.000000	0.880578
1680.000000	0.880769
1679.000000	0.880838
1678.000000	0.880812
1677.000000	0.880660
1676.000000	0.880446
1675.000000	0.880338
1674.000000	0.880406
1673.000000	0.880528
1672.000000	0.880550
1671.000000	0.880477
1670.000000	0.880447
1669.000000	0.880557
1668.000000	0.880772
1667.000000	0.880975
1666.000000	0.881074
1665.000000	0.881041
1664.000000	0.880938
1663.000000	0.880881
1662.000000	0.880948
1661.000000	0.881096
1660.000000	0.881207
1659.000000	0.881214
1658.000000	0.881127
1657.000000	0.880924
1656.000000	0.880499
1655.000000	0.879811
1654.000000	0.879087
1653.000000	0.878761
1652.000000	0.879086
1651.000000	0.879848
1650.000000	0.880538
1649.000000	0.880804
1648.000000	0.880695
1647.000000	0.880520
1646.000000	0.880531
1645.000000	0.880745
1644.000000	0.881022
1643.000000	0.881229
1642.000000	0.881324
1641.000000	0.881332
1640.000000	0.881275
1639.000000	0.881132
1638.000000	0.880873
1637.000000	0.880553
1636.000000	0.880338
1635.000000	0.880383
1634.000000	0.880686
1633.000000	0.881070
1632.000000	0.881343
1631.000000	0.881437
1630.000000	0.881409
1629.000000	0.881346
1628.000000	0.881295
1627.000000	0.881259
1626.000000	0.881216
1625.000000	0.881156
1624.000000	0.881098
1623.000000	0.881097
1622.000000	0.881189
1621.000000	0.881320
1620.000000	0.881349
1619.000000	0.881168
1618.000000	0.880834
1617.000000	0.880561
1616.000000	0.880541
1615.000000	0.880775
1614.000000	0.881096
1613.000000	0.881345
1612.000000	0.881492
1611.000000	0.881587
1610.000000	0.881657
1609.000000	0.881690
1608.000000	0.881694
1607.000000	0.881699
1606.000000	0.881711
1605.000000	0.881699
1604.000000	0.881637
1603.000000	0.881554
1602.000000	0.881507
1601.000000	0.881522
1600.000000	0.881574
1599.000000	0.881617
1598.000000	0.881628
1597.000000	0.881622
1596.000000	0.881640
1595.000000	0.881705
1594.000000	0.881794
1593.000000	0.881856
1592.000000	0.881865
1591.000000	0.881835
1590.000000	0.881803
1589.000000	0.881790
1588.000000	0.881793
1587.000000	0.881803
1586.000000	0.881813
1585.000000	0.881827
1584.000000	0.881856
1583.000000	0.881905
1582.000000	0.881962
1581.000000	0.881989
1580.000000	0.881921
1579.000000	0.881688
1578.000000	0.881308
1577.000000	0.880944
1576.000000	0.880827
1575.000000	0.881054
1574.000000	0.881456
1573.000000	0.881744
1572.000000	0.881756
1571.000000	0.881576
1570.000000	0.881401
1569.000000	0.881362
1568.000000	0.881448
1567.000000	0.881573
1566.000000	0.881665
1565.000000	0.881701
1564.000000	0.881674
1563.000000	0.881527
1562.000000	0.881161
1561.000000	0.880568
1560.000000	0.879963
1559.000000	0.879690
1558.000000	0.879914
1557.000000	0.880455
1556.000000	0.880984
1555.000000	0.881336
1554.000000	0.881570
1553.000000	0.881789
1552.000000	0.881987
1551.000000	0.882089
1550.000000	0.882067
1549.000000	0.881956
1548.000000	0.881806
1547.000000	0.881646
1546.000000	0.881489
1545.000000	0.881334
1544.000000	0.881149
1543.000000	0.880890
1542.000000	0.880548
1541.000000	0.880213
1540.000000	0.880066
1539.000000	0.880256
1538.000000	0.880742
1537.000000	0.881284
1536.000000	0.881632
1535.000000	0.881728
1534.000000	0.881713
1533.000000	0.881750
1532.000000	0.881886
1531.000000	0.882058
1530.000000	0.882186
1529.000000	0.882220
1528.000000	0.882153
1527.000000	0.882017
1526.000000	0.881857
1525.000000	0.881673
1524.000000	0.881427
1523.000000	0.881141
1522.000000	0.880943
1521.000000	0.880958
1520.000000	0.881157
1519.000000	0.881378
1518.000000	0.881509
1517.000000	0.881583
1516.000000	0.881689
1515.000000	0.881835
1514.000000	0.881944
1513.000000	0.881965
1512.000000	0.881925
1511.000000	0.881850
1510.000000	0.881686
1509.000000	0.881352
1508.000000	0.880889
1507.000000	0.880515
1506.000000	0.880489
1505.000000	0.880872
1504.000000	0.881462
1503.000000	0.881974
1502.000000	0.882254
1501.000000	0.882322
1500.000000	0.882265
