PE IR       SUBTECH     SPECTRUM    ASCII       PEDS        4.00        
   -1
TE110A_067_80K_AFTER_125K_SB.ASC
20/05/14
14:53:52.00
20/05/14
14:53:52.00
Administrator
TE110A.Thursday, May 14 2020, 015.
1000.000000
#HDR
-1
-1
#GR
cm-1
EGY
1.0
0.0
6000.000000
-2.000000
2501
8
5.121882
0.518938
#DATA
6000.000000	0.851111
5998.000000	0.853105
5996.000000	0.855055
5994.000000	0.855995
5992.000000	0.857602
5990.000000	0.858886
5988.000000	0.860819
5986.000000	0.863068
5984.000000	0.865124
5982.000000	0.867546
5980.000000	0.869044
5978.000000	0.869626
5976.000000	0.871036
5974.000000	0.872828
5972.000000	0.875324
5970.000000	0.876999
5968.000000	0.877929
5966.000000	0.878727
5964.000000	0.880545
5962.000000	0.883910
5960.000000	0.886887
5958.000000	0.889024
5956.000000	0.890099
5954.000000	0.891837
5952.000000	0.893136
5950.000000	0.893902
5948.000000	0.894996
5946.000000	0.895562
5944.000000	0.897148
5942.000000	0.899174
5940.000000	0.902004
5938.000000	0.904522
5936.000000	0.906137
5934.000000	0.908176
5932.000000	0.911134
5930.000000	0.913266
5928.000000	0.914877
5926.000000	0.916257
5924.000000	0.918631
5922.000000	0.920094
5920.000000	0.921159
5918.000000	0.922409
5916.000000	0.923701
5914.000000	0.926209
5912.000000	0.929535
5910.000000	0.932514
5908.000000	0.933401
5906.000000	0.933527
5904.000000	0.934829
5902.000000	0.937262
5900.000000	0.938939
5898.000000	0.940590
5896.000000	0.943956
5894.000000	0.946050
5892.000000	0.947713
5890.000000	0.949894
5888.000000	0.952482
5886.000000	0.954312
5884.000000	0.954112
5882.000000	0.955272
5880.000000	0.957777
5878.000000	0.960633
5876.000000	0.963237
5874.000000	0.966300
5872.000000	0.969502
5870.000000	0.970379
5868.000000	0.971194
5866.000000	0.972486
5864.000000	0.974287
5862.000000	0.976462
5860.000000	0.977395
5858.000000	0.979855
5856.000000	0.982233
5854.000000	0.983733
5852.000000	0.985788
5850.000000	0.987945
5848.000000	0.990774
5846.000000	0.992887
5844.000000	0.994245
5842.000000	0.995879
5840.000000	0.996752
5838.000000	0.998370
5836.000000	1.000819
5834.000000	1.003146
5832.000000	1.005670
5830.000000	1.006625
5828.000000	1.008951
5826.000000	1.011674
5824.000000	1.014861
5822.000000	1.017576
5820.000000	1.019486
5818.000000	1.021529
5816.000000	1.022857
5814.000000	1.023759
5812.000000	1.025004
5810.000000	1.027334
5808.000000	1.030340
5806.000000	1.032798
5804.000000	1.035261
5802.000000	1.037371
5800.000000	1.039237
5798.000000	1.039916
5796.000000	1.041510
5794.000000	1.043791
5792.000000	1.046620
5790.000000	1.049042
5788.000000	1.051303
5786.000000	1.053784
5784.000000	1.055619
5782.000000	1.057250
5780.000000	1.058933
5778.000000	1.061320
5776.000000	1.062636
5774.000000	1.063811
5772.000000	1.065865
5770.000000	1.069751
5768.000000	1.073360
5766.000000	1.075140
5764.000000	1.076643
5762.000000	1.079056
5760.000000	1.080997
5758.000000	1.081790
5756.000000	1.082959
5754.000000	1.085563
5752.000000	1.089140
5750.000000	1.091727
5748.000000	1.094431
5746.000000	1.095962
5744.000000	1.097496
5742.000000	1.099317
5740.000000	1.102038
5738.000000	1.104392
5736.000000	1.105378
5734.000000	1.106812
5732.000000	1.108563
5730.000000	1.109729
5728.000000	1.111551
5726.000000	1.114797
5724.000000	1.118513
5722.000000	1.121429
5720.000000	1.123338
5718.000000	1.124925
5716.000000	1.126302
5714.000000	1.127570
5712.000000	1.130277
5710.000000	1.133086
5708.000000	1.135084
5706.000000	1.135962
5704.000000	1.138718
5702.000000	1.141901
5700.000000	1.144866
5698.000000	1.147122
5696.000000	1.148647
5694.000000	1.151356
5692.000000	1.152940
5690.000000	1.154785
5688.000000	1.157302
5686.000000	1.160436
5684.000000	1.164068
5682.000000	1.166849
5680.000000	1.169543
5678.000000	1.171937
5676.000000	1.173879
5674.000000	1.176340
5672.000000	1.178370
5670.000000	1.179540
5668.000000	1.180932
5666.000000	1.183944
5664.000000	1.187028
5662.000000	1.189079
5660.000000	1.190510
5658.000000	1.193633
5656.000000	1.196346
5654.000000	1.198198
5652.000000	1.199724
5650.000000	1.201249
5648.000000	1.203621
5646.000000	1.206181
5644.000000	1.209446
5642.000000	1.212483
5640.000000	1.215220
5638.000000	1.218042
5636.000000	1.220112
5634.000000	1.221882
5632.000000	1.223383
5630.000000	1.224854
5628.000000	1.227430
5626.000000	1.230630
5624.000000	1.232962
5622.000000	1.234958
5620.000000	1.237061
5618.000000	1.240112
5616.000000	1.242352
5614.000000	1.244700
5612.000000	1.247360
5610.000000	1.249957
5608.000000	1.251652
5606.000000	1.253340
5604.000000	1.255123
5602.000000	1.257347
5600.000000	1.259708
5598.000000	1.262039
5596.000000	1.264070
5594.000000	1.267110
5592.000000	1.270397
5590.000000	1.272441
5588.000000	1.274170
5586.000000	1.276481
5584.000000	1.280551
5582.000000	1.284736
5580.000000	1.286575
5578.000000	1.287407
5576.000000	1.288720
5574.000000	1.291847
5572.000000	1.295732
5570.000000	1.298002
5568.000000	1.299829
5566.000000	1.301895
5564.000000	1.305172
5562.000000	1.308180
5560.000000	1.310689
5558.000000	1.312503
5556.000000	1.314471
5554.000000	1.316425
5552.000000	1.317871
5550.000000	1.319846
5548.000000	1.322710
5546.000000	1.325767
5544.000000	1.328214
5542.000000	1.330258
5540.000000	1.332390
5538.000000	1.335891
5536.000000	1.339325
5534.000000	1.341283
5532.000000	1.343147
5530.000000	1.344890
5528.000000	1.348591
5526.000000	1.350990
5524.000000	1.352408
5522.000000	1.354758
5520.000000	1.356681
5518.000000	1.358721
5516.000000	1.360800
5514.000000	1.363921
5512.000000	1.367107
5510.000000	1.368408
5508.000000	1.370564
5506.000000	1.373340
5504.000000	1.376348
5502.000000	1.378379
5500.000000	1.380112
5498.000000	1.382777
5496.000000	1.385487
5494.000000	1.387413
5492.000000	1.389447
5490.000000	1.391714
5488.000000	1.394899
5486.000000	1.397393
5484.000000	1.400306
5482.000000	1.403785
5480.000000	1.407428
5478.000000	1.410175
5476.000000	1.411293
5474.000000	1.412741
5472.000000	1.415471
5470.000000	1.419262
5468.000000	1.422353
5466.000000	1.424982
5464.000000	1.427229
5462.000000	1.428858
5460.000000	1.430479
5458.000000	1.433956
5456.000000	1.437257
5454.000000	1.439270
5452.000000	1.441511
5450.000000	1.444219
5448.000000	1.446077
5446.000000	1.446667
5444.000000	1.449206
5442.000000	1.452942
5440.000000	1.455930
5438.000000	1.457954
5436.000000	1.460092
5434.000000	1.462290
5432.000000	1.463914
5430.000000	1.465450
5428.000000	1.468311
5426.000000	1.472596
5424.000000	1.477153
5422.000000	1.480280
5420.000000	1.481909
5418.000000	1.483173
5416.000000	1.485037
5414.000000	1.486797
5412.000000	1.488262
5410.000000	1.490162
5408.000000	1.494442
5406.000000	1.499001
5404.000000	1.502053
5402.000000	1.503605
5400.000000	1.505981
5398.000000	1.509057
5396.000000	1.512010
5394.000000	1.513590
5392.000000	1.515230
5390.000000	1.517558
5388.000000	1.521345
5386.000000	1.525030
5384.000000	1.527683
5382.000000	1.529593
5380.000000	1.531672
5378.000000	1.533850
5376.000000	1.535106
5374.000000	1.536252
5372.000000	1.539048
5370.000000	1.543072
5368.000000	1.548077
5366.000000	1.552073
5364.000000	1.555044
5362.000000	1.557060
5360.000000	1.558681
5358.000000	1.560093
5356.000000	1.561969
5354.000000	1.565206
5352.000000	1.567873
5350.000000	1.570259
5348.000000	1.573618
5346.000000	1.576603
5344.000000	1.577246
5342.000000	1.578427
5340.000000	1.582643
5338.000000	1.586102
5336.000000	1.586568
5334.000000	1.587889
5332.000000	1.591934
5330.000000	1.595567
5328.000000	1.597249
5326.000000	1.599365
5324.000000	1.602957
5322.000000	1.606205
5320.000000	1.609680
5318.000000	1.613662
5316.000000	1.616613
5314.000000	1.618168
5312.000000	1.619966
5310.000000	1.623486
5308.000000	1.626635
5306.000000	1.628369
5304.000000	1.630040
5302.000000	1.632852
5300.000000	1.636895
5298.000000	1.640056
5296.000000	1.641618
5294.000000	1.642903
5292.000000	1.644634
5290.000000	1.646887
5288.000000	1.650141
5286.000000	1.653991
5284.000000	1.657283
5282.000000	1.659612
5280.000000	1.661874
5278.000000	1.664974
5276.000000	1.669096
5274.000000	1.672479
5272.000000	1.673344
5270.000000	1.673730
5268.000000	1.676207
5266.000000	1.678610
5264.000000	1.679336
5262.000000	1.680805
5260.000000	1.685315
5258.000000	1.689149
5256.000000	1.691389
5254.000000	1.693252
5252.000000	1.696154
5250.000000	1.699248
5248.000000	1.701526
5246.000000	1.703534
5244.000000	1.706117
5242.000000	1.709651
5240.000000	1.713134
5238.000000	1.716465
5236.000000	1.718686
5234.000000	1.720566
5232.000000	1.721971
5230.000000	1.724850
5228.000000	1.728591
5226.000000	1.730848
5224.000000	1.732968
5222.000000	1.735042
5220.000000	1.738880
5218.000000	1.742431
5216.000000	1.744441
5214.000000	1.746741
5212.000000	1.749594
5210.000000	1.753175
5208.000000	1.755352
5206.000000	1.757876
5204.000000	1.760843
5202.000000	1.763401
5200.000000	1.766827
5198.000000	1.770387
5196.000000	1.773217
5194.000000	1.775596
5192.000000	1.778316
5190.000000	1.782276
5188.000000	1.785681
5186.000000	1.787848
5184.000000	1.788687
5182.000000	1.789930
5180.000000	1.792666
5178.000000	1.796205
5176.000000	1.799536
5174.000000	1.803136
5172.000000	1.806034
5170.000000	1.808119
5168.000000	1.809895
5166.000000	1.813049
5164.000000	1.817092
5162.000000	1.819025
5160.000000	1.819630
5158.000000	1.822414
5156.000000	1.826630
5154.000000	1.829036
5152.000000	1.830637
5150.000000	1.833824
5148.000000	1.838377
5146.000000	1.840977
5144.000000	1.843367
5142.000000	1.846034
5140.000000	1.849131
5138.000000	1.851976
5136.000000	1.854912
5134.000000	1.858876
5132.000000	1.861527
5130.000000	1.863157
5128.000000	1.865127
5126.000000	1.868517
5124.000000	1.871434
5122.000000	1.874024
5120.000000	1.876896
5118.000000	1.879574
5116.000000	1.880400
5114.000000	1.882581
5112.000000	1.886508
5110.000000	1.891094
5108.000000	1.893187
5106.000000	1.894231
5104.000000	1.897249
5102.000000	1.901785
5100.000000	1.905746
5098.000000	1.908548
5096.000000	1.911736
5094.000000	1.915448
5092.000000	1.916865
5090.000000	1.917359
5088.000000	1.919307
5086.000000	1.923271
5084.000000	1.927130
5082.000000	1.930096
5080.000000	1.933195
5078.000000	1.936702
5076.000000	1.939869
5074.000000	1.942083
5072.000000	1.944101
5070.000000	1.946824
5068.000000	1.949721
5066.000000	1.951765
5064.000000	1.954005
5062.000000	1.957413
5060.000000	1.961509
5058.000000	1.964383
5056.000000	1.966374
5054.000000	1.968401
5052.000000	1.970213
5050.000000	1.972181
5048.000000	1.975717
5046.000000	1.979416
5044.000000	1.981637
5042.000000	1.984167
5040.000000	1.987660
5038.000000	1.990666
5036.000000	1.992809
5034.000000	1.995389
5032.000000	1.998037
5030.000000	2.000520
5028.000000	2.003175
5026.000000	2.006076
5024.000000	2.008441
5022.000000	2.011130
5020.000000	2.014151
5018.000000	2.017855
5016.000000	2.021614
5014.000000	2.024803
5012.000000	2.026423
5010.000000	2.027953
5008.000000	2.031531
5006.000000	2.035173
5004.000000	2.038134
5002.000000	2.041524
5000.000000	2.045504
4998.000000	2.047342
4996.000000	2.047847
4994.000000	2.050114
4992.000000	2.054218
4990.000000	2.057696
4988.000000	2.060118
4986.000000	2.062062
4984.000000	2.065251
4982.000000	2.068679
4980.000000	2.071811
4978.000000	2.073682
4976.000000	2.075473
4974.000000	2.078198
4972.000000	2.081612
4970.000000	2.085453
4968.000000	2.089040
4966.000000	2.092163
4964.000000	2.095095
4962.000000	2.098000
4960.000000	2.101066
4958.000000	2.103383
4956.000000	2.106179
4954.000000	2.108346
4952.000000	2.110147
4950.000000	2.112406
4948.000000	2.116069
4946.000000	2.119582
4944.000000	2.121819
4942.000000	2.124187
4940.000000	2.127492
4938.000000	2.131632
4936.000000	2.135138
4934.000000	2.137129
4932.000000	2.139287
4930.000000	2.141738
4928.000000	2.144920
4926.000000	2.147687
4924.000000	2.150231
4922.000000	2.152775
4920.000000	2.155905
4918.000000	2.158800
4916.000000	2.161147
4914.000000	2.164298
4912.000000	2.168364
4910.000000	2.172060
4908.000000	2.174459
4906.000000	2.176421
4904.000000	2.179128
4902.000000	2.183696
4900.000000	2.187631
4898.000000	2.188701
4896.000000	2.189301
4894.000000	2.193015
4892.000000	2.198483
4890.000000	2.202184
4888.000000	2.204118
4886.000000	2.206202
4884.000000	2.209413
4882.000000	2.212854
4880.000000	2.216697
4878.000000	2.220017
4876.000000	2.222254
4874.000000	2.224059
4872.000000	2.227391
4870.000000	2.230529
4868.000000	2.232575
4866.000000	2.235661
4864.000000	2.238907
4862.000000	2.240904
4860.000000	2.243614
4858.000000	2.247268
4856.000000	2.249313
4854.000000	2.250550
4852.000000	2.253483
4850.000000	2.257642
4848.000000	2.261249
4846.000000	2.263761
4844.000000	2.266612
4842.000000	2.269971
4840.000000	2.272570
4838.000000	2.274638
4836.000000	2.278524
4834.000000	2.282503
4832.000000	2.284364
4830.000000	2.286484
4828.000000	2.289966
4826.000000	2.293121
4824.000000	2.295155
4822.000000	2.298437
4820.000000	2.302880
4818.000000	2.306486
4816.000000	2.308475
4814.000000	2.309717
4812.000000	2.312081
4810.000000	2.315494
4808.000000	2.319078
4806.000000	2.322929
4804.000000	2.326467
4802.000000	2.329123
4800.000000	2.331967
4798.000000	2.336605
4796.000000	2.340804
4794.000000	2.343164
4792.000000	2.344367
4790.000000	2.345851
4788.000000	2.348691
4786.000000	2.352539
4784.000000	2.355280
4782.000000	2.357953
4780.000000	2.362273
4778.000000	2.365775
4776.000000	2.366745
4774.000000	2.368818
4772.000000	2.372645
4770.000000	2.375594
4768.000000	2.377781
4766.000000	2.381127
4764.000000	2.384974
4762.000000	2.387403
4760.000000	2.389524
4758.000000	2.392382
4756.000000	2.395307
4754.000000	2.398381
4752.000000	2.401256
4750.000000	2.404354
4748.000000	2.407363
4746.000000	2.409784
4744.000000	2.411725
4742.000000	2.414612
4740.000000	2.418707
4738.000000	2.421866
4736.000000	2.424394
4734.000000	2.427094
4732.000000	2.431166
4730.000000	2.434720
4728.000000	2.437809
4726.000000	2.441231
4724.000000	2.443987
4722.000000	2.445883
4720.000000	2.449149
4718.000000	2.453097
4716.000000	2.455379
4714.000000	2.457835
4712.000000	2.462051
4710.000000	2.465561
4708.000000	2.467314
4706.000000	2.470239
4704.000000	2.474361
4702.000000	2.476597
4700.000000	2.478599
4698.000000	2.482399
4696.000000	2.486081
4694.000000	2.487765
4692.000000	2.489221
4690.000000	2.492818
4688.000000	2.497134
4686.000000	2.500966
4684.000000	2.504549
4682.000000	2.508100
4680.000000	2.509884
4678.000000	2.511533
4676.000000	2.514940
4674.000000	2.519048
4672.000000	2.521434
4670.000000	2.523826
4668.000000	2.527642
4666.000000	2.531251
4664.000000	2.533224
4662.000000	2.536077
4660.000000	2.540122
4658.000000	2.543428
4656.000000	2.545577
4654.000000	2.548378
4652.000000	2.552853
4650.000000	2.556648
4648.000000	2.559277
4646.000000	2.562020
4644.000000	2.565452
4642.000000	2.568457
4640.000000	2.570745
4638.000000	2.573213
4636.000000	2.576081
4634.000000	2.579164
4632.000000	2.582409
4630.000000	2.586080
4628.000000	2.589530
4626.000000	2.592140
4624.000000	2.595352
4622.000000	2.600008
4620.000000	2.603772
4618.000000	2.605672
4616.000000	2.608745
4614.000000	2.613125
4612.000000	2.615464
4610.000000	2.617002
4608.000000	2.620568
4606.000000	2.625251
4604.000000	2.628289
4602.000000	2.630182
4600.000000	2.632882
4598.000000	2.635876
4596.000000	2.639081
4594.000000	2.643284
4592.000000	2.647384
4590.000000	2.650485
4588.000000	2.653567
4586.000000	2.657449
4584.000000	2.661352
4582.000000	2.664718
4580.000000	2.667726
4578.000000	2.670891
4576.000000	2.673013
4574.000000	2.674882
4572.000000	2.678079
4570.000000	2.681859
4568.000000	2.685736
4566.000000	2.689888
4564.000000	2.692560
4562.000000	2.693764
4560.000000	2.695384
4558.000000	2.698805
4556.000000	2.702779
4554.000000	2.706031
4552.000000	2.709115
4550.000000	2.712819
4548.000000	2.716770
4546.000000	2.719899
4544.000000	2.721724
4542.000000	2.723266
4540.000000	2.725960
4538.000000	2.729816
4536.000000	2.733347
4534.000000	2.736146
4532.000000	2.739507
4530.000000	2.743142
4528.000000	2.746232
4526.000000	2.749704
4524.000000	2.753757
4522.000000	2.757588
4520.000000	2.760814
4518.000000	2.763074
4516.000000	2.765469
4514.000000	2.768673
4512.000000	2.771884
4510.000000	2.774579
4508.000000	2.777600
4506.000000	2.781875
4504.000000	2.786715
4502.000000	2.790977
4500.000000	2.794010
4498.000000	2.796567
4496.000000	2.798878
4494.000000	2.802289
4492.000000	2.806807
4490.000000	2.810407
4488.000000	2.811923
4486.000000	2.813810
4484.000000	2.817367
4482.000000	2.821587
4480.000000	2.824808
4478.000000	2.827458
4476.000000	2.830214
4474.000000	2.833145
4472.000000	2.835346
4470.000000	2.837418
4468.000000	2.840232
4466.000000	2.843915
4464.000000	2.847344
4462.000000	2.850476
4460.000000	2.853292
4458.000000	2.856419
4456.000000	2.859904
4454.000000	2.863800
4452.000000	2.866865
4450.000000	2.869510
4448.000000	2.873151
4446.000000	2.876712
4444.000000	2.878869
4442.000000	2.881961
4440.000000	2.886044
4438.000000	2.889352
4436.000000	2.892120
4434.000000	2.894975
4432.000000	2.897604
4430.000000	2.899838
4428.000000	2.902453
4426.000000	2.905977
4424.000000	2.910012
4422.000000	2.914013
4420.000000	2.917745
4418.000000	2.921399
4416.000000	2.925165
4414.000000	2.927638
4412.000000	2.929733
4410.000000	2.933070
4408.000000	2.936343
4406.000000	2.939198
4404.000000	2.942820
4402.000000	2.946515
4400.000000	2.949942
4398.000000	2.953190
4396.000000	2.956137
4394.000000	2.959270
4392.000000	2.962282
4390.000000	2.965136
4388.000000	2.967878
4386.000000	2.970613
4384.000000	2.974522
4382.000000	2.979136
4380.000000	2.982473
4378.000000	2.985002
4376.000000	2.986994
4374.000000	2.988379
4372.000000	2.990984
4370.000000	2.994185
4368.000000	2.996893
4366.000000	3.000477
4364.000000	3.003680
4362.000000	3.005438
4360.000000	3.008173
4358.000000	3.011602
4356.000000	3.014600
4354.000000	3.018243
4352.000000	3.021721
4350.000000	3.024743
4348.000000	3.028277
4346.000000	3.031503
4344.000000	3.034068
4342.000000	3.037656
4340.000000	3.041608
4338.000000	3.045187
4336.000000	3.049033
4334.000000	3.052660
4332.000000	3.055352
4330.000000	3.058332
4328.000000	3.061677
4326.000000	3.065077
4324.000000	3.069220
4322.000000	3.073382
4320.000000	3.075826
4318.000000	3.077527
4316.000000	3.081488
4314.000000	3.086394
4312.000000	3.089179
4310.000000	3.091661
4308.000000	3.095724
4306.000000	3.099728
4304.000000	3.102871
4302.000000	3.105771
4300.000000	3.109315
4298.000000	3.113399
4296.000000	3.116036
4294.000000	3.118058
4292.000000	3.121690
4290.000000	3.125666
4288.000000	3.128069
4286.000000	3.130407
4284.000000	3.133917
4282.000000	3.137367
4280.000000	3.139560
4278.000000	3.142232
4276.000000	3.146426
4274.000000	3.149790
4272.000000	3.151382
4270.000000	3.153638
4268.000000	3.156761
4266.000000	3.159577
4264.000000	3.162746
4262.000000	3.166149
4260.000000	3.169343
4258.000000	3.172647
4256.000000	3.175474
4254.000000	3.178028
4252.000000	3.182210
4250.000000	3.187218
4248.000000	3.190077
4246.000000	3.192217
4244.000000	3.195437
4242.000000	3.198919
4240.000000	3.203078
4238.000000	3.207592
4236.000000	3.211055
4234.000000	3.214551
4232.000000	3.217982
4230.000000	3.220873
4228.000000	3.223390
4226.000000	3.225512
4224.000000	3.228522
4222.000000	3.232952
4220.000000	3.237119
4218.000000	3.240039
4216.000000	3.242328
4214.000000	3.245158
4212.000000	3.248771
4210.000000	3.252764
4208.000000	3.256875
4206.000000	3.260222
4204.000000	3.263258
4202.000000	3.266222
4200.000000	3.268182
4198.000000	3.270353
4196.000000	3.273853
4194.000000	3.277533
4192.000000	3.281233
4190.000000	3.285836
4188.000000	3.290122
4186.000000	3.292728
4184.000000	3.294876
4182.000000	3.297227
4180.000000	3.300489
4178.000000	3.305673
4176.000000	3.310028
4174.000000	3.312407
4172.000000	3.315700
4170.000000	3.319918
4168.000000	3.323657
4166.000000	3.326335
4164.000000	3.328420
4162.000000	3.331030
4160.000000	3.334418
4158.000000	3.339171
4156.000000	3.344493
4154.000000	3.347458
4152.000000	3.349267
4150.000000	3.353048
4148.000000	3.358004
4146.000000	3.361692
4144.000000	3.364121
4142.000000	3.366974
4140.000000	3.371105
4138.000000	3.375500
4136.000000	3.379212
4134.000000	3.382402
4132.000000	3.385622
4130.000000	3.388528
4128.000000	3.391008
4126.000000	3.394073
4124.000000	3.397557
4122.000000	3.401094
4120.000000	3.404947
4118.000000	3.408095
4116.000000	3.411398
4114.000000	3.415827
4112.000000	3.419332
4110.000000	3.421180
4108.000000	3.423434
4106.000000	3.427220
4104.000000	3.431934
4102.000000	3.436359
4100.000000	3.439463
4098.000000	3.441251
4096.000000	3.443513
4094.000000	3.446792
4092.000000	3.450637
4090.000000	3.454295
4088.000000	3.458108
4086.000000	3.462444
4084.000000	3.466043
4082.000000	3.468941
4080.000000	3.472785
4078.000000	3.476698
4076.000000	3.479079
4074.000000	3.481068
4072.000000	3.485011
4070.000000	3.490046
4068.000000	3.494107
4066.000000	3.497225
4064.000000	3.500282
4062.000000	3.504234
4060.000000	3.508192
4058.000000	3.511463
4056.000000	3.515932
4054.000000	3.520436
4052.000000	3.523094
4050.000000	3.525485
4048.000000	3.528383
4046.000000	3.531394
4044.000000	3.533773
4042.000000	3.536698
4040.000000	3.541495
4038.000000	3.545674
4036.000000	3.548620
4034.000000	3.552336
4032.000000	3.556865
4030.000000	3.561336
4028.000000	3.565412
4026.000000	3.568745
4024.000000	3.571355
4022.000000	3.574054
4020.000000	3.576844
4018.000000	3.579929
4016.000000	3.584251
4014.000000	3.589109
4012.000000	3.593200
4010.000000	3.596682
4008.000000	3.600839
4006.000000	3.605455
4004.000000	3.609068
4002.000000	3.611905
4000.000000	3.614330
3998.000000	3.616361
3996.000000	3.619146
3994.000000	3.622967
3992.000000	3.626748
3990.000000	3.630119
3988.000000	3.634063
3986.000000	3.638052
3984.000000	3.640940
3982.000000	3.644389
3980.000000	3.648351
3978.000000	3.650874
3976.000000	3.653177
3974.000000	3.656054
3972.000000	3.658388
3970.000000	3.661679
3968.000000	3.666452
3966.000000	3.670715
3964.000000	3.674478
3962.000000	3.677296
3960.000000	3.679427
3958.000000	3.683012
3956.000000	3.687163
3954.000000	3.690731
3952.000000	3.693970
3950.000000	3.695746
3948.000000	3.696564
3946.000000	3.699429
3944.000000	3.702870
3942.000000	3.704425
3940.000000	3.709025
3938.000000	3.717199
3936.000000	3.722881
3934.000000	3.723888
3932.000000	3.721726
3930.000000	3.723682
3928.000000	3.731917
3926.000000	3.737451
3924.000000	3.738252
3922.000000	3.740685
3920.000000	3.743583
3918.000000	3.742242
3916.000000	3.742871
3914.000000	3.751550
3912.000000	3.761320
3910.000000	3.767158
3908.000000	3.770163
3906.000000	3.765386
3904.000000	3.751912
3902.000000	3.741598
3900.000000	3.743081
3898.000000	3.755892
3896.000000	3.775491
3894.000000	3.788394
3892.000000	3.784440
3890.000000	3.777867
3888.000000	3.781875
3886.000000	3.781163
3884.000000	3.777481
3882.000000	3.787045
3880.000000	3.796311
3878.000000	3.803180
3876.000000	3.814485
3874.000000	3.816054
3872.000000	3.806621
3870.000000	3.793184
3868.000000	3.789842
3866.000000	3.803182
3864.000000	3.811504
3862.000000	3.816748
3860.000000	3.831329
3858.000000	3.841365
3856.000000	3.822461
3854.000000	3.766504
3852.000000	3.733509
3850.000000	3.775754
3848.000000	3.840136
3846.000000	3.868656
3844.000000	3.869322
3842.000000	3.862525
3840.000000	3.850646
3838.000000	3.828615
3836.000000	3.819819
3834.000000	3.843112
3832.000000	3.869378
3830.000000	3.881968
3828.000000	3.891883
3826.000000	3.897826
3824.000000	3.897451
3822.000000	3.885787
3820.000000	3.871269
3818.000000	3.873206
3816.000000	3.873214
3814.000000	3.877008
3812.000000	3.908480
3810.000000	3.933004
3808.000000	3.924404
3806.000000	3.907148
3804.000000	3.906621
3802.000000	3.901915
3800.000000	3.890763
3798.000000	3.909036
3796.000000	3.936198
3794.000000	3.949808
3792.000000	3.962550
3790.000000	3.970932
3788.000000	3.973048
3786.000000	3.973451
3784.000000	3.974392
3782.000000	3.977089
3780.000000	3.976968
3778.000000	3.976505
3776.000000	3.984369
3774.000000	3.994648
3772.000000	3.995712
3770.000000	3.987093
3768.000000	3.982977
3766.000000	3.989729
3764.000000	3.998353
3762.000000	4.004903
3760.000000	4.003899
3758.000000	4.000560
3756.000000	4.004019
3754.000000	3.996880
3752.000000	3.963002
3750.000000	3.931783
3748.000000	3.939116
3746.000000	3.953211
3744.000000	3.938020
3742.000000	3.950151
3740.000000	4.005549
3738.000000	4.028300
3736.000000	4.009833
3734.000000	3.998185
3732.000000	4.007587
3730.000000	4.029457
3728.000000	4.052922
3726.000000	4.060536
3724.000000	4.059669
3722.000000	4.064911
3720.000000	4.073056
3718.000000	4.082196
3716.000000	4.087905
3714.000000	4.081678
3712.000000	4.061197
3710.000000	4.050902
3708.000000	4.069205
3706.000000	4.096111
3704.000000	4.108916
3702.000000	4.107048
3700.000000	4.107082
3698.000000	4.116975
3696.000000	4.125342
3694.000000	4.125699
3692.000000	4.117093
3690.000000	4.094063
3688.000000	4.071019
3686.000000	4.084262
3684.000000	4.124406
3682.000000	4.146409
3680.000000	4.145931
3678.000000	4.131195
3676.000000	4.098455
3674.000000	4.078694
3672.000000	4.093252
3670.000000	4.101660
3668.000000	4.110637
3666.000000	4.145393
3664.000000	4.172802
3662.000000	4.180563
3660.000000	4.181505
3658.000000	4.174991
3656.000000	4.160765
3654.000000	4.157672
3652.000000	4.159540
3650.000000	4.135829
3648.000000	4.113574
3646.000000	4.133028
3644.000000	4.171758
3642.000000	4.193838
3640.000000	4.200088
3638.000000	4.203080
3636.000000	4.203477
3634.000000	4.200433
3632.000000	4.192380
3630.000000	4.168907
3628.000000	4.142832
3626.000000	4.156927
3624.000000	4.194985
3622.000000	4.208254
3620.000000	4.195991
3618.000000	4.184705
3616.000000	4.191540
3614.000000	4.200799
3612.000000	4.198430
3610.000000	4.192755
3608.000000	4.190366
3606.000000	4.198879
3604.000000	4.214263
3602.000000	4.220253
3600.000000	4.218222
3598.000000	4.217279
3596.000000	4.216952
3594.000000	4.215804
3592.000000	4.217104
3590.000000	4.215504
3588.000000	4.203562
3586.000000	4.197585
3584.000000	4.210015
3582.000000	4.223584
3580.000000	4.227904
3578.000000	4.228892
3576.000000	4.229175
3574.000000	4.228888
3572.000000	4.229163
3570.000000	4.225561
3568.000000	4.213182
3566.000000	4.203306
3564.000000	4.208897
3562.000000	4.220010
3560.000000	4.224317
3558.000000	4.225099
3556.000000	4.227028
3554.000000	4.226619
3552.000000	4.223198
3550.000000	4.221815
3548.000000	4.220451
3546.000000	4.215280
3544.000000	4.212591
3542.000000	4.215826
3540.000000	4.218901
3538.000000	4.217463
3536.000000	4.213862
3534.000000	4.213304
3532.000000	4.213843
3530.000000	4.210215
3528.000000	4.204825
3526.000000	4.200325
3524.000000	4.196923
3522.000000	4.194482
3520.000000	4.193207
3518.000000	4.192073
3516.000000	4.190148
3514.000000	4.187492
3512.000000	4.184013
3510.000000	4.179074
3508.000000	4.173972
3506.000000	4.170064
3504.000000	4.165082
3502.000000	4.159160
3500.000000	4.155678
3498.000000	4.152955
3496.000000	4.148347
3494.000000	4.144027
3492.000000	4.139735
3490.000000	4.134135
3488.000000	4.128468
3486.000000	4.123331
3484.000000	4.119019
3482.000000	4.114751
3480.000000	4.110744
3478.000000	4.107724
3476.000000	4.104149
3474.000000	4.100592
3472.000000	4.098389
3470.000000	4.095960
3468.000000	4.092839
3466.000000	4.090700
3464.000000	4.089742
3462.000000	4.088514
3460.000000	4.087154
3458.000000	4.085431
3456.000000	4.082221
3454.000000	4.078633
3452.000000	4.075615
3450.000000	4.072497
3448.000000	4.068860
3446.000000	4.065245
3444.000000	4.063007
3442.000000	4.062039
3440.000000	4.061568
3438.000000	4.061342
3436.000000	4.061639
3434.000000	4.063123
3432.000000	4.064512
3430.000000	4.066179
3428.000000	4.069401
3426.000000	4.072726
3424.000000	4.074860
3422.000000	4.075939
3420.000000	4.077897
3418.000000	4.080970
3416.000000	4.083831
3414.000000	4.085099
3412.000000	4.085331
3410.000000	4.085865
3408.000000	4.085892
3406.000000	4.084676
3404.000000	4.084379
3402.000000	4.084913
3400.000000	4.085612
3398.000000	4.087678
3396.000000	4.089551
3394.000000	4.090814
3392.000000	4.092018
3390.000000	4.094338
3388.000000	4.096836
3386.000000	4.099275
3384.000000	4.101419
3382.000000	4.103029
3380.000000	4.104960
3378.000000	4.105611
3376.000000	4.105906
3374.000000	4.107009
3372.000000	4.108285
3370.000000	4.109266
3368.000000	4.109814
3366.000000	4.110690
3364.000000	4.112696
3362.000000	4.113625
3360.000000	4.114180
3358.000000	4.115578
3356.000000	4.116173
3354.000000	4.117425
3352.000000	4.119627
3350.000000	4.120956
3348.000000	4.121830
3346.000000	4.122913
3344.000000	4.123718
3342.000000	4.124156
3340.000000	4.125207
3338.000000	4.126698
3336.000000	4.128903
3334.000000	4.131122
3332.000000	4.132467
3330.000000	4.133393
3328.000000	4.134121
3326.000000	4.135109
3324.000000	4.136841
3322.000000	4.138894
3320.000000	4.140702
3318.000000	4.141251
3316.000000	4.140996
3314.000000	4.142155
3312.000000	4.143765
3310.000000	4.144025
3308.000000	4.144089
3306.000000	4.144880
3304.000000	4.145093
3302.000000	4.146541
3300.000000	4.150422
3298.000000	4.152339
3296.000000	4.152636
3294.000000	4.153860
3292.000000	4.154102
3290.000000	4.153730
3288.000000	4.154548
3286.000000	4.157364
3284.000000	4.160190
3282.000000	4.160956
3280.000000	4.161521
3278.000000	4.162435
3276.000000	4.162960
3274.000000	4.163268
3272.000000	4.164353
3270.000000	4.166598
3268.000000	4.168703
3266.000000	4.170894
3264.000000	4.172805
3262.000000	4.173961
3260.000000	4.175022
3258.000000	4.176340
3256.000000	4.178528
3254.000000	4.180113
3252.000000	4.180755
3250.000000	4.182218
3248.000000	4.183995
3246.000000	4.186035
3244.000000	4.187294
3242.000000	4.188443
3240.000000	4.191019
3238.000000	4.192972
3236.000000	4.194168
3234.000000	4.195984
3232.000000	4.198118
3230.000000	4.200656
3228.000000	4.202691
3226.000000	4.203829
3224.000000	4.205317
3222.000000	4.206824
3220.000000	4.208594
3218.000000	4.210768
3216.000000	4.212007
3214.000000	4.213193
3212.000000	4.215912
3210.000000	4.218586
3208.000000	4.220308
3206.000000	4.222275
3204.000000	4.224886
3202.000000	4.228033
3200.000000	4.231721
3198.000000	4.235334
3196.000000	4.239045
3194.000000	4.242274
3192.000000	4.245199
3190.000000	4.247988
3188.000000	4.250744
3186.000000	4.253992
3184.000000	4.256994
3182.000000	4.260432
3180.000000	4.264496
3178.000000	4.267357
3176.000000	4.269635
3174.000000	4.272242
3172.000000	4.275482
3170.000000	4.280034
3168.000000	4.284343
3166.000000	4.287053
3164.000000	4.289641
3162.000000	4.292939
3160.000000	4.295797
3158.000000	4.298343
3156.000000	4.301604
3154.000000	4.305023
3152.000000	4.309033
3150.000000	4.312967
3148.000000	4.315932
3146.000000	4.318655
3144.000000	4.321710
3142.000000	4.324683
3140.000000	4.327496
3138.000000	4.330136
3136.000000	4.332240
3134.000000	4.334533
3132.000000	4.337470
3130.000000	4.340608
3128.000000	4.343370
3126.000000	4.345249
3124.000000	4.346896
3122.000000	4.349637
3120.000000	4.352518
3118.000000	4.355126
3116.000000	4.357836
3114.000000	4.360072
3112.000000	4.362188
3110.000000	4.363211
3108.000000	4.364045
3106.000000	4.366617
3104.000000	4.372030
3102.000000	4.377205
3100.000000	4.379699
3098.000000	4.383159
3096.000000	4.387407
3094.000000	4.390573
3092.000000	4.393553
3090.000000	4.396077
3088.000000	4.399229
3086.000000	4.402546
3084.000000	4.406058
3082.000000	4.410531
3080.000000	4.413372
3078.000000	4.414722
3076.000000	4.416270
3074.000000	4.418176
3072.000000	4.419814
3070.000000	4.421109
3068.000000	4.422010
3066.000000	4.423417
3064.000000	4.426613
3062.000000	4.430070
3060.000000	4.433235
3058.000000	4.437172
3056.000000	4.439742
3054.000000	4.442171
3052.000000	4.445497
3050.000000	4.448840
3048.000000	4.452278
3046.000000	4.455436
3044.000000	4.458251
3042.000000	4.460024
3040.000000	4.460678
3038.000000	4.461274
3036.000000	4.462360
3034.000000	4.462689
3032.000000	4.462133
3030.000000	4.461637
3028.000000	4.461388
3026.000000	4.458153
3024.000000	4.452032
3022.000000	4.446010
3020.000000	4.441401
3018.000000	4.439860
3016.000000	4.443571
3014.000000	4.452203
3012.000000	4.464463
3010.000000	4.479033
3008.000000	4.494138
3006.000000	4.505436
3004.000000	4.510454
3002.000000	4.515352
3000.000000	4.520942
2998.000000	4.523442
2996.000000	4.524742
2994.000000	4.526092
2992.000000	4.527041
2990.000000	4.527882
2988.000000	4.529312
2986.000000	4.528155
2984.000000	4.524512
2982.000000	4.520847
2980.000000	4.515662
2978.000000	4.509067
2976.000000	4.499583
2974.000000	4.485372
2972.000000	4.466727
2970.000000	4.442266
2968.000000	4.412788
2966.000000	4.382699
2964.000000	4.357964
2962.000000	4.343261
2960.000000	4.339756
2958.000000	4.345557
2956.000000	4.358186
2954.000000	4.373075
2952.000000	4.385931
2950.000000	4.394616
2948.000000	4.397057
2946.000000	4.394229
2944.000000	4.385046
2942.000000	4.369163
2940.000000	4.348937
2938.000000	4.325312
2936.000000	4.300705
2934.000000	4.277946
2932.000000	4.258335
2930.000000	4.240027
2928.000000	4.221360
2926.000000	4.206371
2924.000000	4.203359
2922.000000	4.215244
2920.000000	4.240431
2918.000000	4.276438
2916.000000	4.317897
2914.000000	4.360138
2912.000000	4.398575
2910.000000	4.429730
2908.000000	4.454569
2906.000000	4.473838
2904.000000	4.489919
2902.000000	4.505175
2900.000000	4.518840
2898.000000	4.530731
2896.000000	4.542728
2894.000000	4.554267
2892.000000	4.564833
2890.000000	4.575129
2888.000000	4.584897
2886.000000	4.593371
2884.000000	4.598552
2882.000000	4.601176
2880.000000	4.601918
2878.000000	4.602213
2876.000000	4.600759
2874.000000	4.595045
2872.000000	4.585420
2870.000000	4.570768
2868.000000	4.551166
2866.000000	4.526963
2864.000000	4.499039
2862.000000	4.474341
2860.000000	4.462429
2858.000000	4.464105
2856.000000	4.474975
2854.000000	4.492401
2852.000000	4.510697
2850.000000	4.530849
2848.000000	4.558075
2846.000000	4.589076
2844.000000	4.618213
2842.000000	4.643019
2840.000000	4.662221
2838.000000	4.678331
2836.000000	4.691816
2834.000000	4.701646
2832.000000	4.709058
2830.000000	4.714603
2828.000000	4.720671
2826.000000	4.727981
2824.000000	4.734395
2822.000000	4.738698
2820.000000	4.742621
2818.000000	4.746982
2816.000000	4.750734
2814.000000	4.754271
2812.000000	4.757786
2810.000000	4.760997
2808.000000	4.763502
2806.000000	4.766353
2804.000000	4.769212
2802.000000	4.770644
2800.000000	4.772061
2798.000000	4.774154
2796.000000	4.777126
2794.000000	4.779307
2792.000000	4.780673
2790.000000	4.782849
2788.000000	4.786387
2786.000000	4.789706
2784.000000	4.793621
2782.000000	4.797856
2780.000000	4.802344
2778.000000	4.806541
2776.000000	4.809832
2774.000000	4.814105
2772.000000	4.817994
2770.000000	4.820050
2768.000000	4.821214
2766.000000	4.823558
2764.000000	4.826779
2762.000000	4.828836
2760.000000	4.830324
2758.000000	4.833033
2756.000000	4.834733
2754.000000	4.836317
2752.000000	4.840156
2750.000000	4.843077
2748.000000	4.843882
2746.000000	4.844460
2744.000000	4.845622
2742.000000	4.847695
2740.000000	4.849370
2738.000000	4.850623
2736.000000	4.852337
2734.000000	4.854033
2732.000000	4.854489
2730.000000	4.854947
2728.000000	4.856570
2726.000000	4.858453
2724.000000	4.859285
2722.000000	4.859963
2720.000000	4.862140
2718.000000	4.865039
2716.000000	4.864857
2714.000000	4.864480
2712.000000	4.865039
2710.000000	4.863858
2708.000000	4.862968
2706.000000	4.864280
2704.000000	4.866042
2702.000000	4.866129
2700.000000	4.867132
2698.000000	4.869529
2696.000000	4.870845
2694.000000	4.871293
2692.000000	4.872579
2690.000000	4.874195
2688.000000	4.874694
2686.000000	4.875226
2684.000000	4.876448
2682.000000	4.877628
2680.000000	4.878919
2678.000000	4.879462
2676.000000	4.879935
2674.000000	4.880659
2672.000000	4.881172
2670.000000	4.881945
2668.000000	4.882717
2666.000000	4.882651
2664.000000	4.882581
2662.000000	4.882667
2660.000000	4.883120
2658.000000	4.883413
2656.000000	4.883374
2654.000000	4.884407
2652.000000	4.885788
2650.000000	4.886847
2648.000000	4.888086
2646.000000	4.889587
2644.000000	4.891736
2642.000000	4.892594
2640.000000	4.893151
2638.000000	4.894738
2636.000000	4.895193
2634.000000	4.896147
2632.000000	4.897286
2630.000000	4.898194
2628.000000	4.899979
2626.000000	4.900665
2624.000000	4.901660
2622.000000	4.903642
2620.000000	4.904975
2618.000000	4.905800
2616.000000	4.906171
2614.000000	4.906288
2612.000000	4.906401
2610.000000	4.907521
2608.000000	4.909032
2606.000000	4.909413
2604.000000	4.908914
2602.000000	4.909826
2600.000000	4.911147
2598.000000	4.910460
2596.000000	4.909363
2594.000000	4.909401
2592.000000	4.909527
2590.000000	4.910335
2588.000000	4.912218
2586.000000	4.913597
2584.000000	4.916240
2582.000000	4.919434
2580.000000	4.921602
2578.000000	4.924649
2576.000000	4.927760
2574.000000	4.930670
2572.000000	4.932485
2570.000000	4.934059
2568.000000	4.934862
2566.000000	4.934129
2564.000000	4.934617
2562.000000	4.935806
2560.000000	4.937317
2558.000000	4.940228
2556.000000	4.940943
2554.000000	4.941367
2552.000000	4.944515
2550.000000	4.946107
2548.000000	4.946074
2546.000000	4.946725
2544.000000	4.947434
2542.000000	4.948379
2540.000000	4.949769
2538.000000	4.951892
2536.000000	4.953801
2534.000000	4.953620
2532.000000	4.954557
2530.000000	4.957056
2528.000000	4.958650
2526.000000	4.959239
2524.000000	4.960280
2522.000000	4.962161
2520.000000	4.963188
2518.000000	4.963022
2516.000000	4.963849
2514.000000	4.965634
2512.000000	4.966518
2510.000000	4.967540
2508.000000	4.968917
2506.000000	4.969895
2504.000000	4.970405
2502.000000	4.970428
2500.000000	4.971021
2498.000000	4.974248
2496.000000	4.975757
2494.000000	4.975653
2492.000000	4.977401
2490.000000	4.979058
2488.000000	4.978596
2486.000000	4.978857
2484.000000	4.981939
2482.000000	4.983481
2480.000000	4.983246
2478.000000	4.984422
2476.000000	4.985185
2474.000000	4.985220
2472.000000	4.986777
2470.000000	4.988352
2468.000000	4.988976
2466.000000	4.989505
2464.000000	4.989559
2462.000000	4.990067
2460.000000	4.990959
2458.000000	4.992606
2456.000000	4.993495
2454.000000	4.992772
2452.000000	4.993975
2450.000000	4.994857
2448.000000	4.994747
2446.000000	4.996548
2444.000000	4.997710
2442.000000	4.998615
2440.000000	4.999783
2438.000000	5.000012
2436.000000	5.000924
2434.000000	5.001787
2432.000000	5.001333
2430.000000	5.001444
2428.000000	5.001363
2426.000000	5.001072
2424.000000	5.002731
2422.000000	5.003829
2420.000000	5.003714
2418.000000	5.004443
2416.000000	5.005407
2414.000000	5.006224
2412.000000	5.006203
2410.000000	5.005776
2408.000000	5.006556
2406.000000	5.007723
2404.000000	5.009709
2402.000000	5.010995
2400.000000	5.010618
2398.000000	5.010499
2396.000000	5.011862
2394.000000	5.013310
2392.000000	5.013592
2390.000000	5.013392
2388.000000	5.014651
2386.000000	5.016225
2384.000000	5.015249
2382.000000	5.013288
2380.000000	5.011833
2378.000000	5.007983
2376.000000	5.001094
2374.000000	4.992459
2372.000000	4.981437
2370.000000	4.967675
2368.000000	4.954201
2366.000000	4.942902
2364.000000	4.933713
2362.000000	4.928358
2360.000000	4.929831
2358.000000	4.935852
2356.000000	4.945609
2354.000000	4.961177
2352.000000	4.980368
2350.000000	4.998796
2348.000000	5.005377
2346.000000	4.994527
2344.000000	4.976475
2342.000000	4.958086
2340.000000	4.942443
2338.000000	4.935055
2336.000000	4.937856
2334.000000	4.946109
2332.000000	4.953397
2330.000000	4.959080
2328.000000	4.964016
2326.000000	4.969584
2324.000000	4.976734
2322.000000	4.983456
2320.000000	4.989969
2318.000000	4.996849
2316.000000	5.002410
2314.000000	5.006001
2312.000000	5.009984
2310.000000	5.013951
2308.000000	5.015722
2306.000000	5.018127
2304.000000	5.021325
2302.000000	5.021716
2300.000000	5.021739
2298.000000	5.023255
2296.000000	5.023952
2294.000000	5.025382
2292.000000	5.025774
2290.000000	5.025664
2288.000000	5.025885
2286.000000	5.026596
2284.000000	5.027944
2282.000000	5.027851
2280.000000	5.026250
2278.000000	5.024788
2276.000000	5.024621
2274.000000	5.024568
2272.000000	5.023593
2270.000000	5.023390
2268.000000	5.024102
2266.000000	5.024959
2264.000000	5.025287
2262.000000	5.026382
2260.000000	5.026453
2258.000000	5.025783
2256.000000	5.026315
2254.000000	5.027775
2252.000000	5.027215
2250.000000	5.025965
2248.000000	5.026470
2246.000000	5.028939
2244.000000	5.029865
2242.000000	5.028986
2240.000000	5.029732
2238.000000	5.032044
2236.000000	5.033581
2234.000000	5.033625
2232.000000	5.034656
2230.000000	5.037704
2228.000000	5.037791
2226.000000	5.036899
2224.000000	5.037906
2222.000000	5.039236
2220.000000	5.040279
2218.000000	5.041423
2216.000000	5.041984
2214.000000	5.042903
2212.000000	5.044274
2210.000000	5.044721
2208.000000	5.047025
2206.000000	5.048571
2204.000000	5.047927
2202.000000	5.047716
2200.000000	5.048193
2198.000000	5.049576
2196.000000	5.050050
2194.000000	5.050689
2192.000000	5.051358
2190.000000	5.051775
2188.000000	5.052369
2186.000000	5.052622
2184.000000	5.053602
2182.000000	5.053657
2180.000000	5.052340
2178.000000	5.052466
2176.000000	5.053649
2174.000000	5.054543
2172.000000	5.052928
2170.000000	5.051101
2168.000000	5.052315
2166.000000	5.054645
2164.000000	5.055267
2162.000000	5.056021
2160.000000	5.057818
2158.000000	5.058643
2156.000000	5.057705
2154.000000	5.057314
2152.000000	5.057925
2150.000000	5.058149
2148.000000	5.058443
2146.000000	5.059486
2144.000000	5.060604
2142.000000	5.060806
2140.000000	5.061035
2138.000000	5.060961
2136.000000	5.060533
2134.000000	5.062111
2132.000000	5.062547
2130.000000	5.062353
2128.000000	5.063666
2126.000000	5.064577
2124.000000	5.064615
2122.000000	5.063526
2120.000000	5.064369
2118.000000	5.065942
2116.000000	5.064700
2114.000000	5.064808
2112.000000	5.066949
2110.000000	5.067948
2108.000000	5.068859
2106.000000	5.069881
2104.000000	5.070824
2102.000000	5.070956
2100.000000	5.071157
2098.000000	5.071105
2096.000000	5.071762
2094.000000	5.073056
2092.000000	5.074879
2090.000000	5.075366
2088.000000	5.075231
2086.000000	5.074933
2084.000000	5.076050
2082.000000	5.078256
2080.000000	5.081152
2078.000000	5.082787
2076.000000	5.082373
2074.000000	5.082725
2072.000000	5.085376
2070.000000	5.086852
2068.000000	5.086420
2066.000000	5.086769
2064.000000	5.088845
2062.000000	5.091223
2060.000000	5.092178
2058.000000	5.093851
2056.000000	5.095000
2054.000000	5.094785
2052.000000	5.095833
2050.000000	5.096862
2048.000000	5.098152
2046.000000	5.099367
2044.000000	5.101745
2042.000000	5.103409
2040.000000	5.104029
2038.000000	5.104968
2036.000000	5.104673
2034.000000	5.106492
2032.000000	5.108255
2030.000000	5.106444
2028.000000	5.105979
2026.000000	5.109091
2024.000000	5.111074
2022.000000	5.111798
2020.000000	5.111651
2018.000000	5.110656
2016.000000	5.111595
2014.000000	5.113712
2012.000000	5.115100
2010.000000	5.118170
2008.000000	5.118318
2006.000000	5.115258
2004.000000	5.116028
2002.000000	5.118689
2000.000000	5.117999
1998.000000	5.116862
1996.000000	5.119005
1994.000000	5.118737
1992.000000	5.115857
1990.000000	5.116361
1988.000000	5.118623
1986.000000	5.121041
1984.000000	5.121882
1982.000000	5.120218
1980.000000	5.119926
1978.000000	5.119762
1976.000000	5.119422
1974.000000	5.118132
1972.000000	5.117142
1970.000000	5.115590
1968.000000	5.112281
1966.000000	5.111105
1964.000000	5.112271
1962.000000	5.110133
1960.000000	5.103950
1958.000000	5.099771
1956.000000	5.103042
1954.000000	5.105561
1952.000000	5.106640
1950.000000	5.106860
1948.000000	5.104388
1946.000000	5.101227
1944.000000	5.097027
1942.000000	5.091493
1940.000000	5.091948
1938.000000	5.094647
1936.000000	5.094535
1934.000000	5.093068
1932.000000	5.090942
1930.000000	5.090413
1928.000000	5.089923
1926.000000	5.086467
1924.000000	5.080363
1922.000000	5.075864
1920.000000	5.072580
1918.000000	5.062775
1916.000000	5.062845
1914.000000	5.071376
1912.000000	5.071045
1910.000000	5.064079
1908.000000	5.059973
1906.000000	5.059811
1904.000000	5.057877
1902.000000	5.055641
1900.000000	5.053440
1898.000000	5.051396
1896.000000	5.047138
1894.000000	5.044156
1892.000000	5.042659
1890.000000	5.035713
1888.000000	5.033794
1886.000000	5.040096
1884.000000	5.041333
1882.000000	5.039216
1880.000000	5.038323
1878.000000	5.037880
1876.000000	5.036433
1874.000000	5.035893
1872.000000	5.030598
1870.000000	5.013600
1868.000000	5.001563
1866.000000	5.012156
1864.000000	5.022205
1862.000000	5.023689
1860.000000	5.024256
1858.000000	5.022809
1856.000000	5.019940
1854.000000	5.019593
1852.000000	5.017935
1850.000000	5.014234
1848.000000	5.006519
1846.000000	4.990606
1844.000000	4.966149
1842.000000	4.974548
1840.000000	4.996831
1838.000000	4.998129
1836.000000	4.994419
1834.000000	4.991759
1832.000000	4.981403
1830.000000	4.961370
1828.000000	4.960152
1826.000000	4.963652
1824.000000	4.959331
1822.000000	4.966842
1820.000000	4.969385
1818.000000	4.964318
1816.000000	4.959426
1814.000000	4.957633
1812.000000	4.950129
1810.000000	4.940506
1808.000000	4.937914
1806.000000	4.938745
1804.000000	4.932825
1802.000000	4.917947
1800.000000	4.905646
1798.000000	4.906660
1796.000000	4.906108
1794.000000	4.884158
1792.000000	4.854693
1790.000000	4.864799
1788.000000	4.884275
1786.000000	4.878154
1784.000000	4.866330
1782.000000	4.863774
1780.000000	4.858601
1778.000000	4.855640
1776.000000	4.847500
1774.000000	4.813978
1772.000000	4.774046
1770.000000	4.785571
1768.000000	4.803226
1766.000000	4.813687
1764.000000	4.816446
1762.000000	4.793534
1760.000000	4.788898
1758.000000	4.791985
1756.000000	4.781071
1754.000000	4.777119
1752.000000	4.746766
1750.000000	4.718773
1748.000000	4.727593
1746.000000	4.737262
1744.000000	4.733783
1742.000000	4.717390
1740.000000	4.694891
1738.000000	4.691444
1736.000000	4.670396
1734.000000	4.602158
1732.000000	4.615620
1730.000000	4.674304
1728.000000	4.691814
1726.000000	4.694596
1724.000000	4.691052
1722.000000	4.686168
1720.000000	4.658971
1718.000000	4.589927
1716.000000	4.568259
1714.000000	4.614425
1712.000000	4.647328
1710.000000	4.654486
1708.000000	4.641891
1706.000000	4.620022
1704.000000	4.606141
1702.000000	4.570622
1700.000000	4.501578
1698.000000	4.509046
1696.000000	4.507880
1694.000000	4.534922
1692.000000	4.601476
1690.000000	4.608783
1688.000000	4.594921
1686.000000	4.534745
1684.000000	4.465228
1682.000000	4.513259
1680.000000	4.577646
1678.000000	4.582230
1676.000000	4.551604
1674.000000	4.533650
1672.000000	4.546559
1670.000000	4.527681
1668.000000	4.524784
1666.000000	4.548495
1664.000000	4.543452
1662.000000	4.524999
1660.000000	4.534767
1658.000000	4.539769
1656.000000	4.503610
1654.000000	4.385044
1652.000000	4.326124
1650.000000	4.423657
1648.000000	4.458123
1646.000000	4.423889
1644.000000	4.445921
1642.000000	4.479900
1640.000000	4.477773
1638.000000	4.446652
1636.000000	4.383208
1634.000000	4.378018
1632.000000	4.427739
1630.000000	4.434527
1628.000000	4.411988
1626.000000	4.392978
1624.000000	4.366531
1622.000000	4.343987
1620.000000	4.336042
1618.000000	4.286528
1616.000000	4.234184
1614.000000	4.250127
1612.000000	4.253702
1610.000000	4.221226
1608.000000	4.199026
1606.000000	4.194800
1604.000000	4.202494
1602.000000	4.213638
1600.000000	4.226844
1598.000000	4.236526
1596.000000	4.242553
1594.000000	4.247147
1592.000000	4.251925
1590.000000	4.253528
1588.000000	4.253413
1586.000000	4.251244
1584.000000	4.247533
1582.000000	4.242058
1580.000000	4.238979
1578.000000	4.207855
1576.000000	4.153631
1574.000000	4.176558
1572.000000	4.215050
1570.000000	4.191800
1568.000000	4.184842
1566.000000	4.194817
1564.000000	4.188002
1562.000000	4.146778
1560.000000	4.040587
1558.000000	3.991746
1556.000000	4.064075
1554.000000	4.118050
1552.000000	4.150089
1550.000000	4.171324
1548.000000	4.184259
1546.000000	4.181498
1544.000000	4.158278
1542.000000	4.120447
1540.000000	4.079926
1538.000000	4.119405
1536.000000	4.205699
1534.000000	4.219137
1532.000000	4.225359
1530.000000	4.249698
1528.000000	4.247192
1526.000000	4.229172
1524.000000	4.213750
1522.000000	4.175009
1520.000000	4.161509
1518.000000	4.189107
1516.000000	4.193524
1514.000000	4.196252
1512.000000	4.189572
1510.000000	4.170525
1508.000000	4.105590
1506.000000	4.040082
1504.000000	4.064879
1502.000000	4.075004
1500.000000	3.981769
1498.000000	3.821926
1496.000000	3.672685
1494.000000	3.628787
1492.000000	3.669835
1490.000000	3.739388
1488.000000	3.831582
1486.000000	3.920604
1484.000000	3.985351
1482.000000	4.017190
1480.000000	4.031052
1478.000000	4.031867
1476.000000	4.014214
1474.000000	3.979902
1472.000000	3.957206
1470.000000	3.980224
1468.000000	3.992590
1466.000000	3.963687
1464.000000	3.935976
1462.000000	3.930829
1460.000000	3.896977
1458.000000	3.804602
1456.000000	3.731448
1454.000000	3.732863
1452.000000	3.724450
1450.000000	3.715369
1448.000000	3.744847
1446.000000	3.794993
1444.000000	3.828546
1442.000000	3.839512
1440.000000	3.839044
1438.000000	3.814259
1436.000000	3.794780
1434.000000	3.824752
1432.000000	3.842370
1430.000000	3.836643
1428.000000	3.837233
1426.000000	3.841539
1424.000000	3.837182
1422.000000	3.827272
1420.000000	3.793845
1418.000000	3.779267
1416.000000	3.800008
1414.000000	3.804200
1412.000000	3.790009
1410.000000	3.767563
1408.000000	3.734705
1406.000000	3.692802
1404.000000	3.662807
1402.000000	3.659865
1400.000000	3.665666
1398.000000	3.679854
1396.000000	3.698890
1394.000000	3.713741
1392.000000	3.736799
1390.000000	3.746030
1388.000000	3.729827
1386.000000	3.714203
1384.000000	3.711964
1382.000000	3.716680
1380.000000	3.723840
1378.000000	3.722129
1376.000000	3.713072
1374.000000	3.702819
1372.000000	3.703525
1370.000000	3.703536
1368.000000	3.696234
1366.000000	3.689947
1364.000000	3.678539
1362.000000	3.664962
1360.000000	3.662196
1358.000000	3.660632
1356.000000	3.652629
1354.000000	3.642747
1352.000000	3.633732
1350.000000	3.623750
1348.000000	3.614207
1346.000000	3.604742
1344.000000	3.593351
1342.000000	3.577905
1340.000000	3.561622
1338.000000	3.554646
1336.000000	3.553841
1334.000000	3.550305
1332.000000	3.543999
1330.000000	3.535417
1328.000000	3.525591
1326.000000	3.515335
1324.000000	3.504414
1322.000000	3.491637
1320.000000	3.476465
1318.000000	3.461511
1316.000000	3.448689
1314.000000	3.434188
1312.000000	3.418936
1310.000000	3.405283
1308.000000	3.390661
1306.000000	3.375601
1304.000000	3.360432
1302.000000	3.343236
1300.000000	3.328041
1298.000000	3.311230
1296.000000	3.293213
1294.000000	3.276847
1292.000000	3.259786
1290.000000	3.240338
1288.000000	3.219854
1286.000000	3.200472
1284.000000	3.180993
1282.000000	3.159002
1280.000000	3.137598
1278.000000	3.114814
1276.000000	3.087598
1274.000000	3.056491
1272.000000	3.021358
1270.000000	2.975970
1268.000000	2.918153
1266.000000	2.847180
1264.000000	2.768771
1262.000000	2.697861
1260.000000	2.657686
1258.000000	2.655215
1256.000000	2.677218
1254.000000	2.700645
1252.000000	2.712301
1250.000000	2.707267
1248.000000	2.691185
1246.000000	2.670024
1244.000000	2.644889
1242.000000	2.619438
1240.000000	2.594258
1238.000000	2.568253
1236.000000	2.544679
1234.000000	2.521415
1232.000000	2.498197
1230.000000	2.474049
1228.000000	2.451340
1226.000000	2.429971
1224.000000	2.406546
1222.000000	2.382309
1220.000000	2.357881
1218.000000	2.331413
1216.000000	2.306604
1214.000000	2.281548
1212.000000	2.254967
1210.000000	2.231223
1208.000000	2.209261
1206.000000	2.188354
1204.000000	2.169100
1202.000000	2.149111
1200.000000	2.128730
1198.000000	2.109317
1196.000000	2.089765
1194.000000	2.069091
1192.000000	2.047886
1190.000000	2.026805
1188.000000	2.005040
1186.000000	1.981507
1184.000000	1.953978
1182.000000	1.919230
1180.000000	1.887433
1178.000000	1.869737
1176.000000	1.857234
1174.000000	1.842309
1172.000000	1.822533
1170.000000	1.798338
1168.000000	1.775484
1166.000000	1.752951
1164.000000	1.728986
1162.000000	1.705206
1160.000000	1.682594
1158.000000	1.660351
1156.000000	1.638501
1154.000000	1.618034
1152.000000	1.598952
1150.000000	1.578833
1148.000000	1.557810
1146.000000	1.536506
1144.000000	1.515486
1142.000000	1.494552
1140.000000	1.477966
1138.000000	1.463434
1136.000000	1.447508
1134.000000	1.428805
1132.000000	1.408202
1130.000000	1.388593
1128.000000	1.369868
1126.000000	1.349472
1124.000000	1.327642
1122.000000	1.305531
1120.000000	1.283999
1118.000000	1.262783
1116.000000	1.240796
1114.000000	1.218921
1112.000000	1.198156
1110.000000	1.174820
1108.000000	1.150386
1106.000000	1.129090
1104.000000	1.108913
1102.000000	1.088540
1100.000000	1.069335
1098.000000	1.050151
1096.000000	1.031900
1094.000000	1.013276
1092.000000	0.995241
1090.000000	0.980186
1088.000000	0.966649
1086.000000	0.952065
1084.000000	0.935950
1082.000000	0.919193
1080.000000	0.905343
1078.000000	0.892833
1076.000000	0.880631
1074.000000	0.869987
1072.000000	0.861112
1070.000000	0.852356
1068.000000	0.841842
1066.000000	0.830595
1064.000000	0.821555
1062.000000	0.812701
1060.000000	0.801851
1058.000000	0.789085
1056.000000	0.773855
1054.000000	0.751609
1052.000000	0.728095
1050.000000	0.712904
1048.000000	0.709750
1046.000000	0.714127
1044.000000	0.716404
1042.000000	0.712543
1040.000000	0.705502
1038.000000	0.695298
1036.000000	0.685298
1034.000000	0.676022
1032.000000	0.664952
1030.000000	0.653934
1028.000000	0.641905
1026.000000	0.629063
1024.000000	0.616726
1022.000000	0.605091
1020.000000	0.594016
1018.000000	0.584174
1016.000000	0.576117
1014.000000	0.567988
1012.000000	0.561300
1010.000000	0.556495
1008.000000	0.550633
1006.000000	0.544029
1004.000000	0.536533
1002.000000	0.527261
1000.000000	0.518938
