PE IR       SUBTECH     SPECTRUM    ASCII       PEDS        4.00        
   -1
TE110A_069_130K.ASC
20/05/14
15:01:05.00
20/05/14
15:01:05.00
Administrator
TE110A.Thursday, May 14 2020, 017.
1000.000000
#HDR
-1
-1
#GR
cm-1
A
1.0
0.0
6000.000000
-2.000000
2501
8
1.354743
1.292384
#DATA
6000.000000	1.305195
5998.000000	1.305319
5996.000000	1.306077
5994.000000	1.306567
5992.000000	1.306379
5990.000000	1.306254
5988.000000	1.306141
5986.000000	1.306124
5984.000000	1.306260
5982.000000	1.305940
5980.000000	1.305575
5978.000000	1.305153
5976.000000	1.305510
5974.000000	1.306172
5972.000000	1.305935
5970.000000	1.305615
5968.000000	1.305678
5966.000000	1.305775
5964.000000	1.305506
5962.000000	1.305092
5960.000000	1.305051
5958.000000	1.305480
5956.000000	1.305407
5954.000000	1.305018
5952.000000	1.304793
5950.000000	1.304924
5948.000000	1.305085
5946.000000	1.305465
5944.000000	1.305680
5942.000000	1.306058
5940.000000	1.306937
5938.000000	1.307084
5936.000000	1.306559
5934.000000	1.305769
5932.000000	1.305190
5930.000000	1.304940
5928.000000	1.304880
5926.000000	1.305037
5924.000000	1.305274
5922.000000	1.305051
5920.000000	1.304401
5918.000000	1.304150
5916.000000	1.304437
5914.000000	1.304705
5912.000000	1.304892
5910.000000	1.304984
5908.000000	1.305032
5906.000000	1.305233
5904.000000	1.305516
5902.000000	1.305896
5900.000000	1.305962
5898.000000	1.305741
5896.000000	1.305342
5894.000000	1.305266
5892.000000	1.305513
5890.000000	1.305783
5888.000000	1.305516
5886.000000	1.304848
5884.000000	1.304478
5882.000000	1.304842
5880.000000	1.305097
5878.000000	1.305228
5876.000000	1.305402
5874.000000	1.305369
5872.000000	1.304977
5870.000000	1.304380
5868.000000	1.304565
5866.000000	1.305010
5864.000000	1.305087
5862.000000	1.304716
5860.000000	1.304429
5858.000000	1.304471
5856.000000	1.304610
5854.000000	1.304841
5852.000000	1.304650
5850.000000	1.304374
5848.000000	1.304392
5846.000000	1.304462
5844.000000	1.304653
5842.000000	1.304612
5840.000000	1.304821
5838.000000	1.305008
5836.000000	1.305298
5834.000000	1.305623
5832.000000	1.305527
5830.000000	1.305055
5828.000000	1.304839
5826.000000	1.305468
5824.000000	1.306076
5822.000000	1.306054
5820.000000	1.305539
5818.000000	1.305339
5816.000000	1.305290
5814.000000	1.305107
5812.000000	1.304529
5810.000000	1.304383
5808.000000	1.304683
5806.000000	1.305262
5804.000000	1.305561
5802.000000	1.305562
5800.000000	1.305429
5798.000000	1.305102
5796.000000	1.304849
5794.000000	1.304671
5792.000000	1.304643
5790.000000	1.304780
5788.000000	1.304779
5786.000000	1.304687
5784.000000	1.304320
5782.000000	1.304441
5780.000000	1.305199
5778.000000	1.305638
5776.000000	1.305608
5774.000000	1.305340
5772.000000	1.305287
5770.000000	1.305200
5768.000000	1.304963
5766.000000	1.304702
5764.000000	1.304619
5762.000000	1.304689
5760.000000	1.304902
5758.000000	1.305104
5756.000000	1.305125
5754.000000	1.305014
5752.000000	1.304969
5750.000000	1.304896
5748.000000	1.304780
5746.000000	1.304877
5744.000000	1.305005
5742.000000	1.305109
5740.000000	1.305179
5738.000000	1.305170
5736.000000	1.305034
5734.000000	1.304890
5732.000000	1.305043
5730.000000	1.305420
5728.000000	1.305377
5726.000000	1.304759
5724.000000	1.304565
5722.000000	1.304771
5720.000000	1.304918
5718.000000	1.304661
5716.000000	1.304542
5714.000000	1.304763
5712.000000	1.304756
5710.000000	1.304761
5708.000000	1.304877
5706.000000	1.304900
5704.000000	1.304818
5702.000000	1.304987
5700.000000	1.305343
5698.000000	1.305487
5696.000000	1.305316
5694.000000	1.305187
5692.000000	1.304956
5690.000000	1.304730
5688.000000	1.304899
5686.000000	1.305162
5684.000000	1.305213
5682.000000	1.304706
5680.000000	1.304752
5678.000000	1.305104
5676.000000	1.305190
5674.000000	1.304687
5672.000000	1.304291
5670.000000	1.304656
5668.000000	1.304906
5666.000000	1.304487
5664.000000	1.304040
5662.000000	1.304228
5660.000000	1.304691
5658.000000	1.304711
5656.000000	1.304562
5654.000000	1.304654
5652.000000	1.304683
5650.000000	1.304481
5648.000000	1.304523
5646.000000	1.304687
5644.000000	1.304860
5642.000000	1.304819
5640.000000	1.304861
5638.000000	1.305198
5636.000000	1.305524
5634.000000	1.305569
5632.000000	1.305282
5630.000000	1.305129
5628.000000	1.305318
5626.000000	1.305752
5624.000000	1.306100
5622.000000	1.306205
5620.000000	1.305842
5618.000000	1.305399
5616.000000	1.305440
5614.000000	1.305816
5612.000000	1.306046
5610.000000	1.305778
5608.000000	1.305449
5606.000000	1.305000
5604.000000	1.304652
5602.000000	1.304496
5600.000000	1.304593
5598.000000	1.304937
5596.000000	1.305126
5594.000000	1.305069
5592.000000	1.304748
5590.000000	1.304325
5588.000000	1.304091
5586.000000	1.304162
5584.000000	1.304654
5582.000000	1.305105
5580.000000	1.305520
5578.000000	1.305523
5576.000000	1.305205
5574.000000	1.304559
5572.000000	1.303897
5570.000000	1.303636
5568.000000	1.303936
5566.000000	1.304425
5564.000000	1.304767
5562.000000	1.304579
5560.000000	1.304340
5558.000000	1.304397
5556.000000	1.304796
5554.000000	1.304976
5552.000000	1.304859
5550.000000	1.304406
5548.000000	1.303975
5546.000000	1.303919
5544.000000	1.304110
5542.000000	1.304590
5540.000000	1.304652
5538.000000	1.304433
5536.000000	1.304381
5534.000000	1.304490
5532.000000	1.304636
5530.000000	1.304467
5528.000000	1.304453
5526.000000	1.304737
5524.000000	1.305110
5522.000000	1.305222
5520.000000	1.304958
5518.000000	1.304660
5516.000000	1.304604
5514.000000	1.304581
5512.000000	1.304208
5510.000000	1.303839
5508.000000	1.304092
5506.000000	1.304792
5504.000000	1.305096
5502.000000	1.304779
5500.000000	1.304580
5498.000000	1.304669
5496.000000	1.304475
5494.000000	1.304218
5492.000000	1.304187
5490.000000	1.304734
5488.000000	1.305225
5486.000000	1.305293
5484.000000	1.305078
5482.000000	1.304935
5480.000000	1.304665
5478.000000	1.304324
5476.000000	1.304155
5474.000000	1.304399
5472.000000	1.304829
5470.000000	1.304672
5468.000000	1.304367
5466.000000	1.304056
5464.000000	1.303723
5462.000000	1.303532
5460.000000	1.303774
5458.000000	1.304359
5456.000000	1.304751
5454.000000	1.304480
5452.000000	1.304046
5450.000000	1.304058
5448.000000	1.304719
5446.000000	1.305084
5444.000000	1.304847
5442.000000	1.304437
5440.000000	1.304317
5438.000000	1.304341
5436.000000	1.304284
5434.000000	1.303995
5432.000000	1.303356
5430.000000	1.303073
5428.000000	1.303692
5426.000000	1.304650
5424.000000	1.304998
5422.000000	1.304699
5420.000000	1.304352
5418.000000	1.303966
5416.000000	1.303588
5414.000000	1.303400
5412.000000	1.303635
5410.000000	1.304213
5408.000000	1.304647
5406.000000	1.304655
5404.000000	1.304573
5402.000000	1.304548
5400.000000	1.304333
5398.000000	1.303939
5396.000000	1.303804
5394.000000	1.304111
5392.000000	1.304634
5390.000000	1.304868
5388.000000	1.304752
5386.000000	1.304482
5384.000000	1.304488
5382.000000	1.304665
5380.000000	1.304334
5378.000000	1.304091
5376.000000	1.304318
5374.000000	1.304844
5372.000000	1.304957
5370.000000	1.304686
5368.000000	1.304499
5366.000000	1.304365
5364.000000	1.304305
5362.000000	1.304215
5360.000000	1.304117
5358.000000	1.303966
5356.000000	1.303707
5354.000000	1.303852
5352.000000	1.304343
5350.000000	1.304472
5348.000000	1.303783
5346.000000	1.303095
5344.000000	1.303424
5342.000000	1.303828
5340.000000	1.303622
5338.000000	1.303763
5336.000000	1.304416
5334.000000	1.304891
5332.000000	1.304701
5330.000000	1.304535
5328.000000	1.304633
5326.000000	1.304704
5324.000000	1.304731
5322.000000	1.304612
5320.000000	1.304366
5318.000000	1.304538
5316.000000	1.304850
5314.000000	1.304982
5312.000000	1.304626
5310.000000	1.304254
5308.000000	1.304231
5306.000000	1.304456
5304.000000	1.304604
5302.000000	1.304521
5300.000000	1.304602
5298.000000	1.304650
5296.000000	1.304443
5294.000000	1.304078
5292.000000	1.304061
5290.000000	1.304178
5288.000000	1.304147
5286.000000	1.303921
5284.000000	1.303929
5282.000000	1.304079
5280.000000	1.304070
5278.000000	1.304119
5276.000000	1.304196
5274.000000	1.304436
5272.000000	1.304439
5270.000000	1.304433
5268.000000	1.304322
5266.000000	1.304085
5264.000000	1.304047
5262.000000	1.304384
5260.000000	1.304600
5258.000000	1.304282
5256.000000	1.303986
5254.000000	1.304294
5252.000000	1.304542
5250.000000	1.304204
5248.000000	1.303835
5246.000000	1.304061
5244.000000	1.304661
5242.000000	1.304940
5240.000000	1.304963
5238.000000	1.304919
5236.000000	1.304899
5234.000000	1.304673
5232.000000	1.304577
5230.000000	1.304661
5228.000000	1.304632
5226.000000	1.304487
5224.000000	1.304647
5222.000000	1.304994
5220.000000	1.305029
5218.000000	1.304892
5216.000000	1.304711
5214.000000	1.304620
5212.000000	1.304441
5210.000000	1.304353
5208.000000	1.304391
5206.000000	1.304755
5204.000000	1.305363
5202.000000	1.305556
5200.000000	1.305117
5198.000000	1.304482
5196.000000	1.304260
5194.000000	1.304514
5192.000000	1.304881
5190.000000	1.305038
5188.000000	1.304891
5186.000000	1.304733
5184.000000	1.304808
5182.000000	1.304980
5180.000000	1.305223
5178.000000	1.305420
5176.000000	1.305357
5174.000000	1.305162
5172.000000	1.305028
5170.000000	1.304991
5168.000000	1.304971
5166.000000	1.304870
5164.000000	1.304678
5162.000000	1.304449
5160.000000	1.304567
5158.000000	1.304793
5156.000000	1.304867
5154.000000	1.304869
5152.000000	1.304959
5150.000000	1.304904
5148.000000	1.304691
5146.000000	1.304581
5144.000000	1.304847
5142.000000	1.305128
5140.000000	1.305184
5138.000000	1.305024
5136.000000	1.305051
5134.000000	1.305173
5132.000000	1.305288
5130.000000	1.305215
5128.000000	1.305110
5126.000000	1.305073
5124.000000	1.305192
5122.000000	1.305293
5120.000000	1.305220
5118.000000	1.305139
5116.000000	1.305113
5114.000000	1.305102
5112.000000	1.304924
5110.000000	1.304970
5108.000000	1.305180
5106.000000	1.305452
5104.000000	1.305693
5102.000000	1.305643
5100.000000	1.305204
5098.000000	1.304739
5096.000000	1.304900
5094.000000	1.305426
5092.000000	1.305656
5090.000000	1.305614
5088.000000	1.305524
5086.000000	1.305554
5084.000000	1.305473
5082.000000	1.305334
5080.000000	1.305348
5078.000000	1.305401
5076.000000	1.305358
5074.000000	1.305119
5072.000000	1.304985
5070.000000	1.304972
5068.000000	1.305249
5066.000000	1.305389
5064.000000	1.305318
5062.000000	1.305288
5060.000000	1.305494
5058.000000	1.305742
5056.000000	1.305758
5054.000000	1.305630
5052.000000	1.305553
5050.000000	1.305612
5048.000000	1.305780
5046.000000	1.305953
5044.000000	1.306079
5042.000000	1.305951
5040.000000	1.305640
5038.000000	1.305493
5036.000000	1.305706
5034.000000	1.306044
5032.000000	1.306237
5030.000000	1.306236
5028.000000	1.306122
5026.000000	1.306136
5024.000000	1.306374
5022.000000	1.306522
5020.000000	1.306368
5018.000000	1.306137
5016.000000	1.306032
5014.000000	1.306077
5012.000000	1.306258
5010.000000	1.306314
5008.000000	1.305933
5006.000000	1.305630
5004.000000	1.305576
5002.000000	1.305784
5000.000000	1.305969
4998.000000	1.306182
4996.000000	1.306091
4994.000000	1.305902
4992.000000	1.305909
4990.000000	1.305990
4988.000000	1.305953
4986.000000	1.305910
4984.000000	1.306020
4982.000000	1.306077
4980.000000	1.305820
4978.000000	1.305532
4976.000000	1.305646
4974.000000	1.306013
4972.000000	1.305975
4970.000000	1.305658
4968.000000	1.305752
4966.000000	1.306201
4964.000000	1.306405
4962.000000	1.306319
4960.000000	1.306325
4958.000000	1.306482
4956.000000	1.306549
4954.000000	1.306561
4952.000000	1.306504
4950.000000	1.306498
4948.000000	1.306540
4946.000000	1.306625
4944.000000	1.306683
4942.000000	1.306755
4940.000000	1.306869
4938.000000	1.307059
4936.000000	1.307213
4934.000000	1.307040
4932.000000	1.306604
4930.000000	1.306315
4928.000000	1.306249
4926.000000	1.306255
4924.000000	1.306349
4922.000000	1.306548
4920.000000	1.306616
4918.000000	1.306578
4916.000000	1.306576
4914.000000	1.306597
4912.000000	1.306609
4910.000000	1.306798
4908.000000	1.306953
4906.000000	1.306963
4904.000000	1.307059
4902.000000	1.307188
4900.000000	1.307120
4898.000000	1.306950
4896.000000	1.306817
4894.000000	1.306718
4892.000000	1.306822
4890.000000	1.306893
4888.000000	1.306773
4886.000000	1.306684
4884.000000	1.306694
4882.000000	1.306548
4880.000000	1.306390
4878.000000	1.306434
4876.000000	1.306742
4874.000000	1.307235
4872.000000	1.307456
4870.000000	1.307170
4868.000000	1.306771
4866.000000	1.306778
4864.000000	1.307018
4862.000000	1.307123
4860.000000	1.306978
4858.000000	1.306823
4856.000000	1.306872
4854.000000	1.307113
4852.000000	1.307199
4850.000000	1.307192
4848.000000	1.307322
4846.000000	1.307476
4844.000000	1.307314
4842.000000	1.307176
4840.000000	1.307228
4838.000000	1.307292
4836.000000	1.307409
4834.000000	1.307595
4832.000000	1.307763
4830.000000	1.307641
4828.000000	1.307309
4826.000000	1.307086
4824.000000	1.307255
4822.000000	1.307541
4820.000000	1.307596
4818.000000	1.307555
4816.000000	1.307473
4814.000000	1.307254
4812.000000	1.306950
4810.000000	1.306892
4808.000000	1.307159
4806.000000	1.307427
4804.000000	1.307438
4802.000000	1.307233
4800.000000	1.307122
4798.000000	1.307257
4796.000000	1.307497
4794.000000	1.307742
4792.000000	1.307832
4790.000000	1.307628
4788.000000	1.307285
4786.000000	1.307147
4784.000000	1.307230
4782.000000	1.307255
4780.000000	1.307227
4778.000000	1.307229
4776.000000	1.307263
4774.000000	1.307306
4772.000000	1.307409
4770.000000	1.307512
4768.000000	1.307450
4766.000000	1.307370
4764.000000	1.307385
4762.000000	1.307588
4760.000000	1.307796
4758.000000	1.307819
4756.000000	1.307603
4754.000000	1.307396
4752.000000	1.307430
4750.000000	1.307512
4748.000000	1.307511
4746.000000	1.307560
4744.000000	1.307640
4742.000000	1.307639
4740.000000	1.307774
4738.000000	1.307947
4736.000000	1.307871
4734.000000	1.307778
4732.000000	1.307916
4730.000000	1.307995
4728.000000	1.307891
4726.000000	1.307761
4724.000000	1.307666
4722.000000	1.307652
4720.000000	1.307632
4718.000000	1.307565
4716.000000	1.307603
4714.000000	1.307756
4712.000000	1.307922
4710.000000	1.307997
4708.000000	1.307976
4706.000000	1.307772
4704.000000	1.307612
4702.000000	1.307680
4700.000000	1.307760
4698.000000	1.307595
4696.000000	1.307468
4694.000000	1.307632
4692.000000	1.307736
4690.000000	1.307617
4688.000000	1.307559
4686.000000	1.307765
4684.000000	1.308013
4682.000000	1.308077
4680.000000	1.308057
4678.000000	1.307991
4676.000000	1.307855
4674.000000	1.307848
4672.000000	1.307960
4670.000000	1.307968
4668.000000	1.307926
4666.000000	1.307931
4664.000000	1.307896
4662.000000	1.307953
4660.000000	1.308170
4658.000000	1.308288
4656.000000	1.308218
4654.000000	1.308209
4652.000000	1.308214
4650.000000	1.308194
4648.000000	1.308231
4646.000000	1.308318
4644.000000	1.308352
4642.000000	1.308365
4640.000000	1.308307
4638.000000	1.308151
4636.000000	1.307954
4634.000000	1.307790
4632.000000	1.307817
4630.000000	1.307962
4628.000000	1.308034
4626.000000	1.308052
4624.000000	1.308088
4622.000000	1.308076
4620.000000	1.308140
4618.000000	1.308312
4616.000000	1.308333
4614.000000	1.308175
4612.000000	1.308158
4610.000000	1.308345
4608.000000	1.308507
4606.000000	1.308469
4604.000000	1.308439
4602.000000	1.308535
4600.000000	1.308575
4598.000000	1.308479
4596.000000	1.308385
4594.000000	1.308257
4592.000000	1.308168
4590.000000	1.308186
4588.000000	1.308164
4586.000000	1.308101
4584.000000	1.308183
4582.000000	1.308256
4580.000000	1.308189
4578.000000	1.308230
4576.000000	1.308413
4574.000000	1.308521
4572.000000	1.308675
4570.000000	1.308845
4568.000000	1.308856
4566.000000	1.308773
4564.000000	1.308699
4562.000000	1.308561
4560.000000	1.308389
4558.000000	1.308255
4556.000000	1.308251
4554.000000	1.308384
4552.000000	1.308626
4550.000000	1.308776
4548.000000	1.308641
4546.000000	1.308487
4544.000000	1.308595
4542.000000	1.308727
4540.000000	1.308593
4538.000000	1.308449
4536.000000	1.308557
4534.000000	1.308756
4532.000000	1.308780
4530.000000	1.308717
4528.000000	1.308597
4526.000000	1.308513
4524.000000	1.308461
4522.000000	1.308460
4520.000000	1.308508
4518.000000	1.308588
4516.000000	1.308635
4514.000000	1.308670
4512.000000	1.308682
4510.000000	1.308663
4508.000000	1.308674
4506.000000	1.308755
4504.000000	1.308803
4502.000000	1.308796
4500.000000	1.308799
4498.000000	1.308781
4496.000000	1.308629
4494.000000	1.308566
4492.000000	1.308547
4490.000000	1.308579
4488.000000	1.308772
4486.000000	1.308977
4484.000000	1.308981
4482.000000	1.309010
4480.000000	1.309052
4478.000000	1.308979
4476.000000	1.308887
4474.000000	1.308846
4472.000000	1.308850
4470.000000	1.308912
4468.000000	1.308902
4466.000000	1.308891
4464.000000	1.308968
4462.000000	1.309042
4460.000000	1.309030
4458.000000	1.309053
4456.000000	1.309142
4454.000000	1.309138
4452.000000	1.309019
4450.000000	1.308966
4448.000000	1.308947
4446.000000	1.308795
4444.000000	1.308697
4442.000000	1.308779
4440.000000	1.308934
4438.000000	1.308973
4436.000000	1.308904
4434.000000	1.308906
4432.000000	1.309098
4430.000000	1.309148
4428.000000	1.308902
4426.000000	1.308862
4424.000000	1.309250
4422.000000	1.309479
4420.000000	1.309372
4418.000000	1.309211
4416.000000	1.309148
4414.000000	1.309185
4412.000000	1.309152
4410.000000	1.308889
4408.000000	1.308747
4406.000000	1.308908
4404.000000	1.309082
4402.000000	1.309147
4400.000000	1.309251
4398.000000	1.309354
4396.000000	1.309260
4394.000000	1.309101
4392.000000	1.309046
4390.000000	1.309039
4388.000000	1.308968
4386.000000	1.308949
4384.000000	1.309042
4382.000000	1.309243
4380.000000	1.309399
4378.000000	1.309361
4376.000000	1.309215
4374.000000	1.309287
4372.000000	1.309465
4370.000000	1.309452
4368.000000	1.309324
4366.000000	1.309331
4364.000000	1.309358
4362.000000	1.309419
4360.000000	1.309453
4358.000000	1.309306
4356.000000	1.309143
4354.000000	1.309263
4352.000000	1.309436
4350.000000	1.309439
4348.000000	1.309319
4346.000000	1.309219
4344.000000	1.309144
4342.000000	1.309147
4340.000000	1.309212
4338.000000	1.309234
4336.000000	1.309209
4334.000000	1.309283
4332.000000	1.309391
4330.000000	1.309414
4328.000000	1.309355
4326.000000	1.309398
4324.000000	1.309459
4322.000000	1.309325
4320.000000	1.309231
4318.000000	1.309359
4316.000000	1.309412
4314.000000	1.309268
4312.000000	1.309127
4310.000000	1.309034
4308.000000	1.308970
4306.000000	1.309029
4304.000000	1.309285
4302.000000	1.309420
4300.000000	1.309272
4298.000000	1.309169
4296.000000	1.309190
4294.000000	1.309202
4292.000000	1.309253
4290.000000	1.309241
4288.000000	1.309111
4286.000000	1.309072
4284.000000	1.309142
4282.000000	1.309193
4280.000000	1.309241
4278.000000	1.309312
4276.000000	1.309305
4274.000000	1.309295
4272.000000	1.309308
4270.000000	1.309258
4268.000000	1.309240
4266.000000	1.309265
4264.000000	1.309218
4262.000000	1.309269
4260.000000	1.309429
4258.000000	1.309507
4256.000000	1.309488
4254.000000	1.309405
4252.000000	1.309277
4250.000000	1.309215
4248.000000	1.309261
4246.000000	1.309307
4244.000000	1.309310
4242.000000	1.309268
4240.000000	1.309131
4238.000000	1.309098
4236.000000	1.309156
4234.000000	1.309089
4232.000000	1.309023
4230.000000	1.309007
4228.000000	1.308939
4226.000000	1.309002
4224.000000	1.309215
4222.000000	1.309296
4220.000000	1.309135
4218.000000	1.308939
4216.000000	1.308844
4214.000000	1.308878
4212.000000	1.309032
4210.000000	1.309096
4208.000000	1.308992
4206.000000	1.308910
4204.000000	1.308881
4202.000000	1.308889
4200.000000	1.308952
4198.000000	1.309009
4196.000000	1.309071
4194.000000	1.309149
4192.000000	1.309088
4190.000000	1.309024
4188.000000	1.309088
4186.000000	1.309180
4184.000000	1.309171
4182.000000	1.309043
4180.000000	1.308929
4178.000000	1.309011
4176.000000	1.309091
4174.000000	1.309041
4172.000000	1.309001
4170.000000	1.309086
4168.000000	1.309169
4166.000000	1.309137
4164.000000	1.309058
4162.000000	1.309025
4160.000000	1.308965
4158.000000	1.308847
4156.000000	1.308710
4154.000000	1.308668
4152.000000	1.308742
4150.000000	1.308806
4148.000000	1.308740
4146.000000	1.308683
4144.000000	1.308713
4142.000000	1.308752
4140.000000	1.308693
4138.000000	1.308620
4136.000000	1.308714
4134.000000	1.308862
4132.000000	1.308784
4130.000000	1.308645
4128.000000	1.308593
4126.000000	1.308675
4124.000000	1.308793
4122.000000	1.308762
4120.000000	1.308585
4118.000000	1.308431
4116.000000	1.308455
4114.000000	1.308631
4112.000000	1.308706
4110.000000	1.308614
4108.000000	1.308405
4106.000000	1.308297
4104.000000	1.308477
4102.000000	1.308666
4100.000000	1.308624
4098.000000	1.308649
4096.000000	1.308729
4094.000000	1.308590
4092.000000	1.308465
4090.000000	1.308486
4088.000000	1.308436
4086.000000	1.308394
4084.000000	1.308446
4082.000000	1.308495
4080.000000	1.308560
4078.000000	1.308584
4076.000000	1.308475
4074.000000	1.308401
4072.000000	1.308505
4070.000000	1.308542
4068.000000	1.308295
4066.000000	1.308135
4064.000000	1.308269
4062.000000	1.308299
4060.000000	1.308150
4058.000000	1.308119
4056.000000	1.308218
4054.000000	1.308286
4052.000000	1.308270
4050.000000	1.308200
4048.000000	1.308097
4046.000000	1.307974
4044.000000	1.307892
4042.000000	1.307900
4040.000000	1.307937
4038.000000	1.307960
4036.000000	1.307914
4034.000000	1.307825
4032.000000	1.307813
4030.000000	1.307847
4028.000000	1.307772
4026.000000	1.307670
4024.000000	1.307702
4022.000000	1.307729
4020.000000	1.307614
4018.000000	1.307592
4016.000000	1.307703
4014.000000	1.307798
4012.000000	1.307832
4010.000000	1.307801
4008.000000	1.307696
4006.000000	1.307599
4004.000000	1.307515
4002.000000	1.307508
4000.000000	1.307551
3998.000000	1.307455
3996.000000	1.307380
3994.000000	1.307495
3992.000000	1.307589
3990.000000	1.307660
3988.000000	1.307640
3986.000000	1.307454
3984.000000	1.307367
3982.000000	1.307497
3980.000000	1.307640
3978.000000	1.307658
3976.000000	1.307544
3974.000000	1.307437
3972.000000	1.307351
3970.000000	1.307253
3968.000000	1.307220
3966.000000	1.307123
3964.000000	1.306936
3962.000000	1.306942
3960.000000	1.307085
3958.000000	1.307170
3956.000000	1.307215
3954.000000	1.307082
3952.000000	1.306686
3950.000000	1.306449
3948.000000	1.306541
3946.000000	1.306429
3944.000000	1.306170
3942.000000	1.306565
3940.000000	1.307064
3938.000000	1.306923
3936.000000	1.306386
3934.000000	1.305757
3932.000000	1.305822
3930.000000	1.306408
3928.000000	1.306240
3926.000000	1.305841
3924.000000	1.306084
3922.000000	1.306070
3920.000000	1.305381
3918.000000	1.305296
3916.000000	1.306279
3914.000000	1.306970
3912.000000	1.306721
3910.000000	1.306162
3908.000000	1.304861
3906.000000	1.302824
3904.000000	1.302164
3902.000000	1.303347
3900.000000	1.305067
3898.000000	1.306661
3896.000000	1.306660
3894.000000	1.304728
3892.000000	1.303846
3890.000000	1.304759
3888.000000	1.303889
3886.000000	1.303083
3884.000000	1.304675
3882.000000	1.304993
3880.000000	1.305142
3878.000000	1.305936
3876.000000	1.304837
3874.000000	1.303254
3872.000000	1.301761
3870.000000	1.302179
3868.000000	1.304279
3866.000000	1.304042
3864.000000	1.303917
3862.000000	1.305384
3860.000000	1.305395
3858.000000	1.301427
3856.000000	1.294073
3854.000000	1.293728
3852.000000	1.303268
3850.000000	1.308954
3848.000000	1.307123
3846.000000	1.304453
3844.000000	1.303115
3842.000000	1.301640
3840.000000	1.299074
3838.000000	1.299498
3836.000000	1.303529
3834.000000	1.305039
3832.000000	1.304479
3830.000000	1.304785
3828.000000	1.304647
3826.000000	1.303836
3824.000000	1.301616
3822.000000	1.300314
3820.000000	1.301896
3818.000000	1.301219
3816.000000	1.301579
3814.000000	1.305792
3812.000000	1.306233
3810.000000	1.302736
3808.000000	1.300896
3806.000000	1.302304
3804.000000	1.301421
3802.000000	1.299929
3800.000000	1.303487
3798.000000	1.305559
3796.000000	1.304944
3794.000000	1.305447
3792.000000	1.305431
3790.000000	1.304921
3788.000000	1.304493
3786.000000	1.304132
3784.000000	1.304174
3782.000000	1.303781
3780.000000	1.303554
3778.000000	1.304666
3776.000000	1.305308
3774.000000	1.304362
3772.000000	1.302779
3770.000000	1.302588
3768.000000	1.303601
3766.000000	1.304057
3764.000000	1.304168
3762.000000	1.303261
3760.000000	1.302376
3758.000000	1.302879
3756.000000	1.301400
3754.000000	1.296650
3752.000000	1.294496
3750.000000	1.298093
3748.000000	1.299546
3746.000000	1.295743
3744.000000	1.298436
3742.000000	1.305028
3740.000000	1.303154
3738.000000	1.298425
3736.000000	1.298074
3734.000000	1.299994
3732.000000	1.301980
3730.000000	1.303308
3728.000000	1.302397
3726.000000	1.301641
3724.000000	1.302095
3722.000000	1.302381
3720.000000	1.302778
3718.000000	1.302868
3716.000000	1.301319
3714.000000	1.298274
3712.000000	1.298058
3710.000000	1.301402
3708.000000	1.303610
3706.000000	1.303147
3704.000000	1.301409
3702.000000	1.300974
3700.000000	1.302309
3698.000000	1.302799
3696.000000	1.302083
3694.000000	1.300536
3692.000000	1.297625
3690.000000	1.295814
3688.000000	1.299184
3686.000000	1.303465
3684.000000	1.302972
3682.000000	1.300899
3680.000000	1.298803
3678.000000	1.295176
3676.000000	1.294608
3674.000000	1.297855
3672.000000	1.297310
3670.000000	1.297678
3668.000000	1.301700
3666.000000	1.302398
3664.000000	1.301096
3662.000000	1.300525
3660.000000	1.299276
3658.000000	1.297364
3656.000000	1.297884
3654.000000	1.298422
3652.000000	1.294840
3650.000000	1.293205
3648.000000	1.297189
3646.000000	1.300710
3644.000000	1.300669
3642.000000	1.299639
3640.000000	1.299233
3638.000000	1.299069
3636.000000	1.298693
3634.000000	1.297722
3632.000000	1.294685
3630.000000	1.292384
3628.000000	1.296207
3626.000000	1.300104
3624.000000	1.298865
3622.000000	1.296119
3620.000000	1.295131
3618.000000	1.296688
3616.000000	1.297397
3614.000000	1.296338
3612.000000	1.295697
3610.000000	1.295594
3608.000000	1.296764
3606.000000	1.298165
3604.000000	1.297799
3602.000000	1.296999
3600.000000	1.296878
3598.000000	1.296770
3596.000000	1.296552
3594.000000	1.296829
3592.000000	1.296596
3590.000000	1.294979
3588.000000	1.294682
3586.000000	1.296645
3584.000000	1.297693
3582.000000	1.297232
3580.000000	1.296903
3578.000000	1.296872
3576.000000	1.296807
3574.000000	1.296773
3572.000000	1.296207
3570.000000	1.294793
3568.000000	1.294334
3566.000000	1.295989
3564.000000	1.297287
3562.000000	1.297050
3560.000000	1.296799
3558.000000	1.296906
3556.000000	1.296822
3554.000000	1.296662
3552.000000	1.296821
3550.000000	1.296926
3548.000000	1.296601
3546.000000	1.296629
3544.000000	1.297204
3542.000000	1.297560
3540.000000	1.297415
3538.000000	1.297269
3536.000000	1.297513
3534.000000	1.297782
3532.000000	1.297613
3530.000000	1.297356
3528.000000	1.297460
3526.000000	1.297765
3524.000000	1.297981
3522.000000	1.298293
3520.000000	1.298584
3518.000000	1.298717
3516.000000	1.298966
3514.000000	1.299150
3512.000000	1.299020
3510.000000	1.299091
3508.000000	1.299553
3506.000000	1.299643
3504.000000	1.299563
3502.000000	1.300107
3500.000000	1.300552
3498.000000	1.300524
3496.000000	1.300665
3494.000000	1.300979
3492.000000	1.301265
3490.000000	1.301492
3488.000000	1.301713
3486.000000	1.301979
3484.000000	1.302164
3482.000000	1.302547
3480.000000	1.303139
3478.000000	1.303469
3476.000000	1.303635
3474.000000	1.303982
3472.000000	1.304305
3470.000000	1.304554
3468.000000	1.304910
3466.000000	1.305356
3464.000000	1.305884
3462.000000	1.306372
3460.000000	1.306787
3458.000000	1.307235
3456.000000	1.307623
3454.000000	1.307955
3452.000000	1.308299
3450.000000	1.308632
3448.000000	1.308929
3446.000000	1.309377
3444.000000	1.309880
3442.000000	1.310264
3440.000000	1.310676
3438.000000	1.311189
3436.000000	1.311719
3434.000000	1.312224
3432.000000	1.312739
3430.000000	1.313239
3428.000000	1.313625
3426.000000	1.313903
3424.000000	1.314099
3422.000000	1.314295
3420.000000	1.314671
3418.000000	1.315096
3416.000000	1.315389
3414.000000	1.315548
3412.000000	1.315765
3410.000000	1.316093
3408.000000	1.316366
3406.000000	1.316541
3404.000000	1.316668
3402.000000	1.316875
3400.000000	1.317186
3398.000000	1.317502
3396.000000	1.317720
3394.000000	1.317798
3392.000000	1.317938
3390.000000	1.318116
3388.000000	1.318214
3386.000000	1.318363
3384.000000	1.318644
3382.000000	1.318781
3380.000000	1.318785
3378.000000	1.318884
3376.000000	1.319015
3374.000000	1.319175
3372.000000	1.319184
3370.000000	1.319112
3368.000000	1.319231
3366.000000	1.319515
3364.000000	1.319792
3362.000000	1.319895
3360.000000	1.319830
3358.000000	1.319864
3356.000000	1.320017
3354.000000	1.320014
3352.000000	1.320008
3350.000000	1.320196
3348.000000	1.320474
3346.000000	1.320597
3344.000000	1.320526
3342.000000	1.320452
3340.000000	1.320534
3338.000000	1.320616
3336.000000	1.320728
3334.000000	1.320875
3332.000000	1.320950
3330.000000	1.320960
3328.000000	1.320959
3326.000000	1.321059
3324.000000	1.321264
3322.000000	1.321408
3320.000000	1.321444
3318.000000	1.321441
3316.000000	1.321502
3314.000000	1.321639
3312.000000	1.321707
3310.000000	1.321697
3308.000000	1.321655
3306.000000	1.321648
3304.000000	1.321704
3302.000000	1.321845
3300.000000	1.321910
3298.000000	1.321851
3296.000000	1.321899
3294.000000	1.322019
3292.000000	1.322072
3290.000000	1.322144
3288.000000	1.322301
3286.000000	1.322391
3284.000000	1.322437
3282.000000	1.322547
3280.000000	1.322594
3278.000000	1.322584
3276.000000	1.322585
3274.000000	1.322657
3272.000000	1.322712
3270.000000	1.322730
3268.000000	1.322788
3266.000000	1.322874
3264.000000	1.322974
3262.000000	1.323021
3260.000000	1.322976
3258.000000	1.323026
3256.000000	1.323205
3254.000000	1.323330
3252.000000	1.323308
3250.000000	1.323327
3248.000000	1.323377
3246.000000	1.323290
3244.000000	1.323318
3242.000000	1.323601
3240.000000	1.323884
3238.000000	1.323919
3236.000000	1.323825
3234.000000	1.323814
3232.000000	1.323907
3230.000000	1.324064
3228.000000	1.324193
3226.000000	1.324188
3224.000000	1.324140
3222.000000	1.324207
3220.000000	1.324273
3218.000000	1.324365
3216.000000	1.324513
3214.000000	1.324581
3212.000000	1.324555
3210.000000	1.324556
3208.000000	1.324632
3206.000000	1.324617
3204.000000	1.324655
3202.000000	1.324761
3200.000000	1.324851
3198.000000	1.324898
3196.000000	1.324909
3194.000000	1.324915
3192.000000	1.324874
3190.000000	1.324888
3188.000000	1.324909
3186.000000	1.324954
3184.000000	1.325128
3182.000000	1.325265
3180.000000	1.325248
3178.000000	1.325293
3176.000000	1.325413
3174.000000	1.325492
3172.000000	1.325546
3170.000000	1.325520
3168.000000	1.325542
3166.000000	1.325561
3164.000000	1.325553
3162.000000	1.325597
3160.000000	1.325657
3158.000000	1.325729
3156.000000	1.325780
3154.000000	1.325772
3152.000000	1.325821
3150.000000	1.326011
3148.000000	1.326107
3146.000000	1.326120
3144.000000	1.326210
3142.000000	1.326254
3140.000000	1.326270
3138.000000	1.326329
3136.000000	1.326335
3134.000000	1.326399
3132.000000	1.326559
3130.000000	1.326684
3128.000000	1.326783
3126.000000	1.326848
3124.000000	1.326784
3122.000000	1.326617
3120.000000	1.326489
3118.000000	1.326447
3116.000000	1.326589
3114.000000	1.326840
3112.000000	1.326932
3110.000000	1.326768
3108.000000	1.326702
3106.000000	1.326816
3104.000000	1.326812
3102.000000	1.326745
3100.000000	1.326704
3098.000000	1.326595
3096.000000	1.326526
3094.000000	1.326499
3092.000000	1.326470
3090.000000	1.326430
3088.000000	1.326431
3086.000000	1.326440
3084.000000	1.326331
3082.000000	1.326162
3080.000000	1.326133
3078.000000	1.326122
3076.000000	1.326091
3074.000000	1.326097
3072.000000	1.326031
3070.000000	1.325901
3068.000000	1.325761
3066.000000	1.325775
3064.000000	1.325855
3062.000000	1.325812
3060.000000	1.325840
3058.000000	1.325827
3056.000000	1.325800
3054.000000	1.325785
3052.000000	1.325632
3050.000000	1.325556
3048.000000	1.325562
3046.000000	1.325549
3044.000000	1.325483
3042.000000	1.325390
3040.000000	1.325432
3038.000000	1.325510
3036.000000	1.325429
3034.000000	1.325313
3032.000000	1.325255
3030.000000	1.325188
3028.000000	1.324979
3026.000000	1.324785
3024.000000	1.324752
3022.000000	1.324865
3020.000000	1.325170
3018.000000	1.325520
3016.000000	1.325777
3014.000000	1.325911
3012.000000	1.325961
3010.000000	1.325886
3008.000000	1.325719
3006.000000	1.325523
3004.000000	1.325407
3002.000000	1.325310
3000.000000	1.325114
2998.000000	1.324944
2996.000000	1.324893
2994.000000	1.324896
2992.000000	1.324854
2990.000000	1.324795
2988.000000	1.324756
2986.000000	1.324685
2984.000000	1.324534
2982.000000	1.324542
2980.000000	1.324595
2978.000000	1.324618
2976.000000	1.324586
2974.000000	1.324377
2972.000000	1.324166
2970.000000	1.324211
2968.000000	1.324498
2966.000000	1.325032
2964.000000	1.325810
2962.000000	1.326574
2960.000000	1.327067
2958.000000	1.327121
2956.000000	1.326798
2954.000000	1.326333
2952.000000	1.325852
2950.000000	1.325330
2948.000000	1.324683
2946.000000	1.324009
2944.000000	1.323535
2942.000000	1.323228
2940.000000	1.322930
2938.000000	1.322813
2936.000000	1.323012
2934.000000	1.323204
2932.000000	1.323253
2930.000000	1.323307
2928.000000	1.323593
2926.000000	1.324228
2924.000000	1.325127
2922.000000	1.326065
2920.000000	1.326786
2918.000000	1.327144
2916.000000	1.327132
2914.000000	1.326826
2912.000000	1.326407
2910.000000	1.326021
2908.000000	1.325657
2906.000000	1.325411
2904.000000	1.325302
2902.000000	1.325143
2900.000000	1.324976
2898.000000	1.324847
2896.000000	1.324674
2894.000000	1.324602
2892.000000	1.324645
2890.000000	1.324568
2888.000000	1.324296
2886.000000	1.324044
2884.000000	1.323966
2882.000000	1.323847
2880.000000	1.323674
2878.000000	1.323492
2876.000000	1.323286
2874.000000	1.323014
2872.000000	1.322648
2870.000000	1.322278
2868.000000	1.321928
2866.000000	1.321615
2864.000000	1.321706
2862.000000	1.322425
2860.000000	1.323323
2858.000000	1.324008
2856.000000	1.324323
2854.000000	1.324328
2852.000000	1.324459
2850.000000	1.324875
2848.000000	1.325151
2846.000000	1.325050
2844.000000	1.324682
2842.000000	1.324288
2840.000000	1.324003
2838.000000	1.323867
2836.000000	1.323736
2834.000000	1.323582
2832.000000	1.323497
2830.000000	1.323468
2828.000000	1.323439
2826.000000	1.323329
2824.000000	1.323306
2822.000000	1.323293
2820.000000	1.323278
2818.000000	1.323308
2816.000000	1.323277
2814.000000	1.323211
2812.000000	1.323120
2810.000000	1.323019
2808.000000	1.323037
2806.000000	1.323113
2804.000000	1.323032
2802.000000	1.322937
2800.000000	1.322884
2798.000000	1.322818
2796.000000	1.322825
2794.000000	1.322905
2792.000000	1.322918
2790.000000	1.322847
2788.000000	1.322799
2786.000000	1.322842
2784.000000	1.322920
2782.000000	1.322920
2780.000000	1.322847
2778.000000	1.322770
2776.000000	1.322719
2774.000000	1.322780
2772.000000	1.322860
2770.000000	1.322846
2768.000000	1.322806
2766.000000	1.322813
2764.000000	1.322821
2762.000000	1.322844
2760.000000	1.322868
2758.000000	1.322809
2756.000000	1.322803
2754.000000	1.322820
2752.000000	1.322801
2750.000000	1.322795
2748.000000	1.322781
2746.000000	1.322817
2744.000000	1.322850
2742.000000	1.322816
2740.000000	1.322853
2738.000000	1.322906
2736.000000	1.322960
2734.000000	1.323051
2732.000000	1.323075
2730.000000	1.323038
2728.000000	1.323026
2726.000000	1.323045
2724.000000	1.323054
2722.000000	1.323118
2720.000000	1.323311
2718.000000	1.323353
2716.000000	1.323359
2714.000000	1.323416
2712.000000	1.323464
2710.000000	1.323567
2708.000000	1.323686
2706.000000	1.323785
2704.000000	1.323905
2702.000000	1.324004
2700.000000	1.324101
2698.000000	1.324117
2696.000000	1.324086
2694.000000	1.324179
2692.000000	1.324414
2690.000000	1.324576
2688.000000	1.324573
2686.000000	1.324655
2684.000000	1.324831
2682.000000	1.324924
2680.000000	1.324992
2678.000000	1.325013
2676.000000	1.325058
2674.000000	1.325157
2672.000000	1.325257
2670.000000	1.325344
2668.000000	1.325403
2666.000000	1.325545
2664.000000	1.325661
2662.000000	1.325729
2660.000000	1.325804
2658.000000	1.325878
2656.000000	1.325938
2654.000000	1.326052
2652.000000	1.326164
2650.000000	1.326222
2648.000000	1.326289
2646.000000	1.326298
2644.000000	1.326328
2642.000000	1.326415
2640.000000	1.326439
2638.000000	1.326509
2636.000000	1.326663
2634.000000	1.326592
2632.000000	1.326518
2630.000000	1.326619
2628.000000	1.326655
2626.000000	1.326589
2624.000000	1.326588
2622.000000	1.326608
2620.000000	1.326604
2618.000000	1.326560
2616.000000	1.326580
2614.000000	1.326678
2612.000000	1.326688
2610.000000	1.326695
2608.000000	1.326741
2606.000000	1.326749
2604.000000	1.326763
2602.000000	1.326814
2600.000000	1.326840
2598.000000	1.326810
2596.000000	1.326848
2594.000000	1.326918
2592.000000	1.326933
2590.000000	1.326940
2588.000000	1.326960
2586.000000	1.327028
2584.000000	1.327176
2582.000000	1.327292
2580.000000	1.327224
2578.000000	1.327125
2576.000000	1.327165
2574.000000	1.327212
2572.000000	1.327207
2570.000000	1.327180
2568.000000	1.327224
2566.000000	1.327265
2564.000000	1.327226
2562.000000	1.327224
2560.000000	1.327279
2558.000000	1.327322
2556.000000	1.327334
2554.000000	1.327366
2552.000000	1.327431
2550.000000	1.327465
2548.000000	1.327418
2546.000000	1.327370
2544.000000	1.327402
2542.000000	1.327459
2540.000000	1.327361
2538.000000	1.327266
2536.000000	1.327300
2534.000000	1.327311
2532.000000	1.327382
2530.000000	1.327460
2528.000000	1.327465
2526.000000	1.327389
2524.000000	1.327313
2522.000000	1.327350
2520.000000	1.327510
2518.000000	1.327628
2516.000000	1.327657
2514.000000	1.327526
2512.000000	1.327421
2510.000000	1.327427
2508.000000	1.327433
2506.000000	1.327500
2504.000000	1.327558
2502.000000	1.327515
2500.000000	1.327507
2498.000000	1.327531
2496.000000	1.327498
2494.000000	1.327501
2492.000000	1.327513
2490.000000	1.327484
2488.000000	1.327501
2486.000000	1.327479
2484.000000	1.327468
2482.000000	1.327449
2480.000000	1.327408
2478.000000	1.327417
2476.000000	1.327484
2474.000000	1.327486
2472.000000	1.327536
2470.000000	1.327623
2468.000000	1.327589
2466.000000	1.327570
2464.000000	1.327614
2462.000000	1.327598
2460.000000	1.327545
2458.000000	1.327504
2456.000000	1.327495
2454.000000	1.327528
2452.000000	1.327558
2450.000000	1.327540
2448.000000	1.327579
2446.000000	1.327653
2444.000000	1.327719
2442.000000	1.327769
2440.000000	1.327747
2438.000000	1.327633
2436.000000	1.327587
2434.000000	1.327652
2432.000000	1.327629
2430.000000	1.327527
2428.000000	1.327505
2426.000000	1.327589
2424.000000	1.327648
2422.000000	1.327638
2420.000000	1.327674
2418.000000	1.327691
2416.000000	1.327663
2414.000000	1.327637
2412.000000	1.327604
2410.000000	1.327602
2408.000000	1.327689
2406.000000	1.327731
2404.000000	1.327667
2402.000000	1.327561
2400.000000	1.327526
2398.000000	1.327529
2396.000000	1.327550
2394.000000	1.327582
2392.000000	1.327644
2390.000000	1.327598
2388.000000	1.327501
2386.000000	1.327494
2384.000000	1.327449
2382.000000	1.327268
2380.000000	1.327056
2378.000000	1.326801
2376.000000	1.326536
2374.000000	1.326192
2372.000000	1.325780
2370.000000	1.325344
2368.000000	1.325140
2366.000000	1.325009
2364.000000	1.324952
2362.000000	1.325233
2360.000000	1.325634
2358.000000	1.325917
2356.000000	1.326315
2354.000000	1.326818
2352.000000	1.327238
2350.000000	1.327207
2348.000000	1.326461
2346.000000	1.325881
2344.000000	1.325974
2342.000000	1.326562
2340.000000	1.327350
2338.000000	1.327617
2336.000000	1.327243
2334.000000	1.326786
2332.000000	1.326572
2330.000000	1.326540
2328.000000	1.326674
2326.000000	1.326792
2324.000000	1.326870
2322.000000	1.326997
2320.000000	1.327114
2318.000000	1.327193
2316.000000	1.327355
2314.000000	1.327514
2312.000000	1.327646
2310.000000	1.327687
2308.000000	1.327673
2306.000000	1.327758
2304.000000	1.327847
2302.000000	1.327821
2300.000000	1.327795
2298.000000	1.327822
2296.000000	1.327828
2294.000000	1.327828
2292.000000	1.327882
2290.000000	1.327852
2288.000000	1.327804
2286.000000	1.327843
2284.000000	1.327855
2282.000000	1.327802
2280.000000	1.327800
2278.000000	1.327859
2276.000000	1.327972
2274.000000	1.328043
2272.000000	1.328118
2270.000000	1.328153
2268.000000	1.328170
2266.000000	1.328076
2264.000000	1.327946
2262.000000	1.327912
2260.000000	1.327954
2258.000000	1.328009
2256.000000	1.327972
2254.000000	1.327866
2252.000000	1.327839
2250.000000	1.327881
2248.000000	1.327959
2246.000000	1.327881
2244.000000	1.327894
2242.000000	1.327980
2240.000000	1.328011
2238.000000	1.327935
2236.000000	1.327979
2234.000000	1.328022
2232.000000	1.327832
2230.000000	1.327718
2228.000000	1.327777
2226.000000	1.327771
2224.000000	1.327803
2222.000000	1.327780
2220.000000	1.327727
2218.000000	1.327666
2216.000000	1.327590
2214.000000	1.327541
2212.000000	1.327522
2210.000000	1.327519
2208.000000	1.327507
2206.000000	1.327411
2204.000000	1.327351
2202.000000	1.327350
2200.000000	1.327375
2198.000000	1.327334
2196.000000	1.327362
2194.000000	1.327357
2192.000000	1.327368
2190.000000	1.327334
2188.000000	1.327297
2186.000000	1.327238
2184.000000	1.327136
2182.000000	1.327103
2180.000000	1.327142
2178.000000	1.327174
2176.000000	1.327091
2174.000000	1.326953
2172.000000	1.326889
2170.000000	1.326842
2168.000000	1.326888
2166.000000	1.326829
2164.000000	1.326687
2162.000000	1.326511
2160.000000	1.326491
2158.000000	1.326516
2156.000000	1.326456
2154.000000	1.326427
2152.000000	1.326447
2150.000000	1.326443
2148.000000	1.326450
2146.000000	1.326312
2144.000000	1.326168
2142.000000	1.326142
2140.000000	1.326079
2138.000000	1.326020
2136.000000	1.326079
2134.000000	1.326100
2132.000000	1.326059
2130.000000	1.326005
2128.000000	1.325981
2126.000000	1.325875
2124.000000	1.325809
2122.000000	1.325702
2120.000000	1.325632
2118.000000	1.325574
2116.000000	1.325496
2114.000000	1.325471
2112.000000	1.325483
2110.000000	1.325441
2108.000000	1.325454
2106.000000	1.325479
2104.000000	1.325478
2102.000000	1.325455
2100.000000	1.325439
2098.000000	1.325404
2096.000000	1.325327
2094.000000	1.325298
2092.000000	1.325313
2090.000000	1.325349
2088.000000	1.325375
2086.000000	1.325279
2084.000000	1.325222
2082.000000	1.325208
2080.000000	1.325131
2078.000000	1.324978
2076.000000	1.324946
2074.000000	1.324962
2072.000000	1.324966
2070.000000	1.324912
2068.000000	1.324837
2066.000000	1.324732
2064.000000	1.324808
2062.000000	1.324776
2060.000000	1.324687
2058.000000	1.324655
2056.000000	1.324712
2054.000000	1.324733
2052.000000	1.324668
2050.000000	1.324584
2048.000000	1.324563
2046.000000	1.324537
2044.000000	1.324510
2042.000000	1.324404
2040.000000	1.324364
2038.000000	1.324302
2036.000000	1.324252
2034.000000	1.324198
2032.000000	1.324193
2030.000000	1.324198
2028.000000	1.324256
2026.000000	1.324218
2024.000000	1.324211
2022.000000	1.324190
2020.000000	1.324075
2018.000000	1.323979
2016.000000	1.324111
2014.000000	1.324115
2012.000000	1.324052
2010.000000	1.324014
2008.000000	1.324025
2006.000000	1.324026
2004.000000	1.323967
2002.000000	1.323889
2000.000000	1.323950
1998.000000	1.323980
1996.000000	1.323974
1994.000000	1.323745
1992.000000	1.323684
1990.000000	1.323801
1988.000000	1.323763
1986.000000	1.323704
1984.000000	1.323714
1982.000000	1.323849
1980.000000	1.323892
1978.000000	1.323738
1976.000000	1.323702
1974.000000	1.323764
1972.000000	1.323758
1970.000000	1.323631
1968.000000	1.323521
1966.000000	1.323645
1964.000000	1.323722
1962.000000	1.323586
1960.000000	1.323506
1958.000000	1.323765
1956.000000	1.323862
1954.000000	1.323762
1952.000000	1.323796
1950.000000	1.323764
1948.000000	1.323712
1946.000000	1.323527
1944.000000	1.323135
1942.000000	1.323340
1940.000000	1.323897
1938.000000	1.323901
1936.000000	1.323844
1934.000000	1.323780
1932.000000	1.323847
1930.000000	1.323846
1928.000000	1.323870
1926.000000	1.323696
1924.000000	1.323492
1922.000000	1.323687
1920.000000	1.323268
1918.000000	1.323079
1916.000000	1.324031
1914.000000	1.324169
1912.000000	1.323902
1910.000000	1.323715
1908.000000	1.323920
1906.000000	1.324082
1904.000000	1.324223
1902.000000	1.324191
1900.000000	1.324132
1898.000000	1.323958
1896.000000	1.323941
1894.000000	1.324172
1892.000000	1.324042
1890.000000	1.323792
1888.000000	1.324286
1886.000000	1.324384
1884.000000	1.324361
1882.000000	1.324320
1880.000000	1.324448
1878.000000	1.324460
1876.000000	1.324341
1874.000000	1.324150
1872.000000	1.323506
1870.000000	1.322563
1868.000000	1.323439
1866.000000	1.324365
1864.000000	1.324499
1862.000000	1.324408
1860.000000	1.324434
1858.000000	1.324357
1856.000000	1.324328
1854.000000	1.324183
1852.000000	1.324219
1850.000000	1.324051
1848.000000	1.323548
1846.000000	1.321825
1844.000000	1.322215
1842.000000	1.324504
1840.000000	1.324595
1838.000000	1.324273
1836.000000	1.324419
1834.000000	1.324164
1832.000000	1.323037
1830.000000	1.322907
1828.000000	1.323829
1826.000000	1.323430
1824.000000	1.324176
1822.000000	1.324827
1820.000000	1.324649
1818.000000	1.324564
1816.000000	1.324770
1814.000000	1.324585
1812.000000	1.324215
1810.000000	1.324290
1808.000000	1.324685
1806.000000	1.324596
1804.000000	1.324142
1802.000000	1.323508
1800.000000	1.323912
1798.000000	1.324442
1796.000000	1.323833
1794.000000	1.321789
1792.000000	1.322268
1790.000000	1.324411
1788.000000	1.324473
1786.000000	1.323773
1784.000000	1.324240
1782.000000	1.324245
1780.000000	1.324379
1778.000000	1.324533
1776.000000	1.323262
1774.000000	1.320626
1772.000000	1.321491
1770.000000	1.323611
1768.000000	1.323990
1766.000000	1.325036
1764.000000	1.323912
1762.000000	1.323418
1760.000000	1.324528
1758.000000	1.324019
1756.000000	1.324368
1754.000000	1.323685
1752.000000	1.321573
1750.000000	1.322880
1748.000000	1.324394
1746.000000	1.324791
1744.000000	1.324617
1742.000000	1.323750
1740.000000	1.323486
1738.000000	1.324080
1736.000000	1.319686
1734.000000	1.319336
1732.000000	1.324970
1730.000000	1.326070
1728.000000	1.326224
1726.000000	1.326107
1724.000000	1.326017
1722.000000	1.325411
1720.000000	1.321626
1718.000000	1.319063
1716.000000	1.323111
1714.000000	1.325808
1712.000000	1.326511
1710.000000	1.325971
1708.000000	1.324996
1706.000000	1.324234
1704.000000	1.324143
1702.000000	1.319029
1700.000000	1.319300
1698.000000	1.321297
1696.000000	1.321052
1694.000000	1.326785
1692.000000	1.327536
1690.000000	1.326350
1688.000000	1.324191
1686.000000	1.318536
1684.000000	1.320978
1682.000000	1.327162
1680.000000	1.327277
1678.000000	1.325635
1676.000000	1.323710
1674.000000	1.325700
1672.000000	1.325237
1670.000000	1.324339
1668.000000	1.327010
1666.000000	1.327685
1664.000000	1.325927
1662.000000	1.326963
1660.000000	1.328406
1658.000000	1.327479
1656.000000	1.321331
1654.000000	1.314430
1652.000000	1.322214
1650.000000	1.327730
1648.000000	1.323718
1646.000000	1.324829
1644.000000	1.328701
1642.000000	1.328912
1640.000000	1.327737
1638.000000	1.324334
1636.000000	1.322815
1634.000000	1.327738
1632.000000	1.329553
1630.000000	1.328199
1628.000000	1.327692
1626.000000	1.327257
1624.000000	1.326447
1622.000000	1.327911
1620.000000	1.327192
1618.000000	1.323443
1616.000000	1.325659
1614.000000	1.329273
1612.000000	1.328777
1610.000000	1.328875
1608.000000	1.329535
1606.000000	1.330268
1604.000000	1.330407
1602.000000	1.330664
1600.000000	1.330763
1598.000000	1.330692
1596.000000	1.330459
1594.000000	1.330553
1592.000000	1.330526
1590.000000	1.330492
1588.000000	1.330506
1586.000000	1.330477
1584.000000	1.330561
1582.000000	1.330706
1580.000000	1.329689
1578.000000	1.325523
1576.000000	1.325720
1574.000000	1.330461
1572.000000	1.328936
1570.000000	1.327601
1568.000000	1.329345
1566.000000	1.329574
1564.000000	1.328590
1562.000000	1.323220
1560.000000	1.317131
1558.000000	1.322973
1556.000000	1.327996
1554.000000	1.328849
1552.000000	1.330067
1550.000000	1.330022
1548.000000	1.329745
1546.000000	1.327817
1544.000000	1.325321
1542.000000	1.321584
1540.000000	1.321564
1538.000000	1.328343
1536.000000	1.329556
1534.000000	1.327723
1532.000000	1.329627
1530.000000	1.329701
1528.000000	1.328163
1526.000000	1.327320
1524.000000	1.325509
1522.000000	1.323353
1520.000000	1.326427
1518.000000	1.327626
1516.000000	1.328208
1514.000000	1.328953
1512.000000	1.328467
1510.000000	1.325898
1508.000000	1.320567
1506.000000	1.322640
1504.000000	1.328512
1502.000000	1.327601
1500.000000	1.323928
1498.000000	1.321316
1496.000000	1.324240
1494.000000	1.330214
1492.000000	1.331577
1490.000000	1.331442
1488.000000	1.332122
1486.000000	1.332391
1484.000000	1.332030
1482.000000	1.331182
1480.000000	1.330769
1478.000000	1.329403
1476.000000	1.327572
1474.000000	1.325597
1472.000000	1.327308
1470.000000	1.330190
1468.000000	1.329526
1466.000000	1.327818
1464.000000	1.328761
1462.000000	1.329348
1460.000000	1.325547
1458.000000	1.320935
1456.000000	1.324281
1454.000000	1.328729
1452.000000	1.329446
1450.000000	1.330502
1448.000000	1.331109
1446.000000	1.331356
1444.000000	1.330674
1442.000000	1.330264
1440.000000	1.328963
1438.000000	1.326271
1436.000000	1.327702
1434.000000	1.330279
1432.000000	1.329444
1430.000000	1.329270
1428.000000	1.329837
1426.000000	1.329686
1424.000000	1.329119
1422.000000	1.327669
1420.000000	1.325587
1418.000000	1.328023
1416.000000	1.329922
1414.000000	1.329826
1412.000000	1.329411
1410.000000	1.329225
1408.000000	1.328632
1406.000000	1.328230
1404.000000	1.329050
1402.000000	1.329802
1400.000000	1.329363
1398.000000	1.329611
1396.000000	1.328928
1394.000000	1.329274
1392.000000	1.330074
1390.000000	1.329092
1388.000000	1.328011
1386.000000	1.328919
1384.000000	1.329792
1382.000000	1.330086
1380.000000	1.329813
1378.000000	1.329364
1376.000000	1.328762
1374.000000	1.328802
1372.000000	1.329312
1370.000000	1.329267
1368.000000	1.329304
1366.000000	1.329081
1364.000000	1.328220
1362.000000	1.328255
1360.000000	1.328806
1358.000000	1.328956
1356.000000	1.328899
1354.000000	1.328935
1352.000000	1.328901
1350.000000	1.328839
1348.000000	1.328881
1346.000000	1.328941
1344.000000	1.328687
1342.000000	1.328333
1340.000000	1.328136
1338.000000	1.328567
1336.000000	1.328926
1334.000000	1.328924
1332.000000	1.328810
1330.000000	1.328670
1328.000000	1.328444
1326.000000	1.328489
1324.000000	1.328449
1322.000000	1.328295
1320.000000	1.328063
1318.000000	1.327969
1316.000000	1.327814
1314.000000	1.327747
1312.000000	1.327830
1310.000000	1.327919
1308.000000	1.327781
1306.000000	1.327712
1304.000000	1.327640
1302.000000	1.327702
1300.000000	1.327724
1298.000000	1.327509
1296.000000	1.327278
1294.000000	1.327363
1292.000000	1.327414
1290.000000	1.327414
1288.000000	1.327316
1286.000000	1.327370
1284.000000	1.327381
1282.000000	1.327298
1280.000000	1.327260
1278.000000	1.327386
1276.000000	1.327391
1274.000000	1.327370
1272.000000	1.327453
1270.000000	1.327796
1268.000000	1.328308
1266.000000	1.329382
1264.000000	1.331286
1262.000000	1.334010
1260.000000	1.336522
1258.000000	1.337440
1256.000000	1.336354
1254.000000	1.334156
1252.000000	1.332187
1250.000000	1.331153
1248.000000	1.330669
1246.000000	1.330512
1244.000000	1.330667
1242.000000	1.330893
1240.000000	1.331129
1238.000000	1.331483
1236.000000	1.331825
1234.000000	1.332238
1232.000000	1.332462
1230.000000	1.332708
1228.000000	1.332933
1226.000000	1.333130
1224.000000	1.333335
1222.000000	1.333526
1220.000000	1.333529
1218.000000	1.333591
1216.000000	1.333843
1214.000000	1.334236
1212.000000	1.334586
1210.000000	1.334903
1208.000000	1.335109
1206.000000	1.335451
1204.000000	1.335716
1202.000000	1.335862
1200.000000	1.336163
1198.000000	1.336558
1196.000000	1.336843
1194.000000	1.337073
1192.000000	1.337279
1190.000000	1.337733
1188.000000	1.337918
1186.000000	1.338087
1184.000000	1.338237
1182.000000	1.338405
1180.000000	1.339415
1178.000000	1.340309
1176.000000	1.340367
1174.000000	1.340589
1172.000000	1.340815
1170.000000	1.341099
1168.000000	1.341662
1166.000000	1.342163
1164.000000	1.342363
1162.000000	1.342657
1160.000000	1.342981
1158.000000	1.343472
1156.000000	1.343793
1154.000000	1.343938
1152.000000	1.344213
1150.000000	1.344827
1148.000000	1.345290
1146.000000	1.345581
1144.000000	1.345766
1142.000000	1.346408
1140.000000	1.346936
1138.000000	1.347070
1136.000000	1.346733
1134.000000	1.346797
1132.000000	1.347069
1130.000000	1.347488
1128.000000	1.347861
1126.000000	1.347821
1124.000000	1.347856
1122.000000	1.348432
1120.000000	1.348769
1118.000000	1.349326
1116.000000	1.349853
1114.000000	1.350291
1112.000000	1.350543
1110.000000	1.350766
1108.000000	1.351288
1106.000000	1.352202
1104.000000	1.352750
1102.000000	1.352974
1100.000000	1.353446
1098.000000	1.353940
1096.000000	1.354112
1094.000000	1.354489
1092.000000	1.354715
1090.000000	1.354529
1088.000000	1.354455
1086.000000	1.354743
1084.000000	1.354371
1082.000000	1.354301
1080.000000	1.354459
1078.000000	1.353949
1076.000000	1.353564
1074.000000	1.353530
1072.000000	1.353516
1070.000000	1.353555
1068.000000	1.353006
1066.000000	1.352360
1064.000000	1.351502
1062.000000	1.350652
1060.000000	1.349877
1058.000000	1.349591
1056.000000	1.349031
1054.000000	1.348182
1052.000000	1.348456
1050.000000	1.349825
1048.000000	1.350568
1046.000000	1.349676
1044.000000	1.347903
1042.000000	1.347188
1040.000000	1.346925
1038.000000	1.346882
1036.000000	1.347351
1034.000000	1.347279
1032.000000	1.345701
1030.000000	1.344566
1028.000000	1.343836
1026.000000	1.342946
1024.000000	1.342950
1022.000000	1.343877
1020.000000	1.343980
1018.000000	1.343033
1016.000000	1.342117
1014.000000	1.340707
1012.000000	1.338599
1010.000000	1.337772
1008.000000	1.336415
1006.000000	1.334758
1004.000000	1.333298
1002.000000	1.330191
1000.000000	1.327478
