PE IR       SUBTECH     SPECTRUM    ASCII       PEDS        4.00        
   -1
TE110A_087_150K_SB.ASC
20/05/14
16:19:49.00
20/05/14
16:19:49.00
Administrator
TE110A.Thursday, May 14 2020, 018.
1000.000000
#HDR
-1
-1
#GR
cm-1
EGY
1.0
0.0
6000.000000
-2.000000
2501
8
5.521078
0.561232
#DATA
6000.000000	0.913419
5998.000000	0.916437
5996.000000	0.918399
5994.000000	0.919961
5992.000000	0.921764
5990.000000	0.922781
5988.000000	0.923340
5986.000000	0.923940
5984.000000	0.926115
5982.000000	0.929147
5980.000000	0.931260
5978.000000	0.932517
5976.000000	0.933101
5974.000000	0.935108
5972.000000	0.937741
5970.000000	0.939399
5968.000000	0.940872
5966.000000	0.941909
5964.000000	0.944011
5962.000000	0.947123
5960.000000	0.949955
5958.000000	0.952935
5956.000000	0.955646
5954.000000	0.957331
5952.000000	0.959229
5950.000000	0.961084
5948.000000	0.963386
5946.000000	0.964904
5944.000000	0.965819
5942.000000	0.967294
5940.000000	0.969194
5938.000000	0.970620
5936.000000	0.971634
5934.000000	0.973464
5932.000000	0.976202
5930.000000	0.978417
5928.000000	0.980012
5926.000000	0.981336
5924.000000	0.983170
5922.000000	0.985741
5920.000000	0.988387
5918.000000	0.990788
5916.000000	0.992720
5914.000000	0.994613
5912.000000	0.995756
5910.000000	0.997065
5908.000000	0.998910
5906.000000	1.001314
5904.000000	1.003066
5902.000000	1.004703
5900.000000	1.007438
5898.000000	1.010916
5896.000000	1.013931
5894.000000	1.015387
5892.000000	1.016204
5890.000000	1.016830
5888.000000	1.017333
5886.000000	1.018748
5884.000000	1.021223
5882.000000	1.024967
5880.000000	1.028701
5878.000000	1.030802
5876.000000	1.031714
5874.000000	1.032771
5872.000000	1.034838
5870.000000	1.037861
5868.000000	1.041000
5866.000000	1.043679
5864.000000	1.045196
5862.000000	1.046271
5860.000000	1.048302
5858.000000	1.050408
5856.000000	1.052196
5854.000000	1.054272
5852.000000	1.056730
5850.000000	1.059426
5848.000000	1.061663
5846.000000	1.063218
5844.000000	1.065666
5842.000000	1.067824
5840.000000	1.069536
5838.000000	1.071252
5836.000000	1.073705
5834.000000	1.075698
5832.000000	1.077939
5830.000000	1.079296
5828.000000	1.081610
5826.000000	1.084212
5824.000000	1.086245
5822.000000	1.088660
5820.000000	1.091294
5818.000000	1.094130
5816.000000	1.097376
5814.000000	1.100304
5812.000000	1.102665
5810.000000	1.104129
5808.000000	1.104990
5806.000000	1.106670
5804.000000	1.108883
5802.000000	1.111386
5800.000000	1.113248
5798.000000	1.115666
5796.000000	1.118354
5794.000000	1.120179
5792.000000	1.121844
5790.000000	1.123365
5788.000000	1.125779
5786.000000	1.128195
5784.000000	1.130963
5782.000000	1.133928
5780.000000	1.136566
5778.000000	1.138552
5776.000000	1.141043
5774.000000	1.143317
5772.000000	1.145041
5770.000000	1.146968
5768.000000	1.148861
5766.000000	1.151879
5764.000000	1.154972
5762.000000	1.158191
5760.000000	1.160714
5758.000000	1.162022
5756.000000	1.163292
5754.000000	1.165422
5752.000000	1.167986
5750.000000	1.170859
5748.000000	1.172881
5746.000000	1.174937
5744.000000	1.176762
5742.000000	1.178993
5740.000000	1.181413
5738.000000	1.183686
5736.000000	1.186624
5734.000000	1.189425
5732.000000	1.191040
5730.000000	1.191175
5728.000000	1.192338
5726.000000	1.196061
5724.000000	1.200147
5722.000000	1.201835
5720.000000	1.203129
5718.000000	1.205584
5716.000000	1.209143
5714.000000	1.211871
5712.000000	1.213912
5710.000000	1.216473
5708.000000	1.219677
5706.000000	1.221874
5704.000000	1.224351
5702.000000	1.226497
5700.000000	1.228846
5698.000000	1.230834
5696.000000	1.232903
5694.000000	1.236417
5692.000000	1.239948
5690.000000	1.243187
5688.000000	1.246007
5686.000000	1.247801
5684.000000	1.249207
5682.000000	1.249803
5680.000000	1.251266
5678.000000	1.253921
5676.000000	1.256753
5674.000000	1.260174
5672.000000	1.263108
5670.000000	1.266030
5668.000000	1.268899
5666.000000	1.271473
5664.000000	1.274088
5662.000000	1.276529
5660.000000	1.278627
5658.000000	1.280481
5656.000000	1.282678
5654.000000	1.284865
5652.000000	1.287574
5650.000000	1.290725
5648.000000	1.293244
5646.000000	1.295862
5644.000000	1.298132
5642.000000	1.300312
5640.000000	1.302288
5638.000000	1.303232
5636.000000	1.304867
5634.000000	1.307724
5632.000000	1.311146
5630.000000	1.314173
5628.000000	1.315370
5626.000000	1.316646
5624.000000	1.319181
5622.000000	1.322856
5620.000000	1.326254
5618.000000	1.328869
5616.000000	1.331317
5614.000000	1.334463
5612.000000	1.337309
5610.000000	1.339518
5608.000000	1.341793
5606.000000	1.345030
5604.000000	1.348891
5602.000000	1.351186
5600.000000	1.352140
5598.000000	1.353174
5596.000000	1.355392
5594.000000	1.358107
5592.000000	1.361462
5590.000000	1.364639
5588.000000	1.367394
5586.000000	1.370108
5584.000000	1.373179
5582.000000	1.376025
5580.000000	1.377506
5578.000000	1.379545
5576.000000	1.383178
5574.000000	1.386864
5572.000000	1.389945
5570.000000	1.392877
5568.000000	1.396096
5566.000000	1.398661
5564.000000	1.400358
5562.000000	1.402080
5560.000000	1.403839
5558.000000	1.405961
5556.000000	1.408472
5554.000000	1.411386
5552.000000	1.414428
5550.000000	1.417465
5548.000000	1.420982
5546.000000	1.423838
5544.000000	1.426260
5542.000000	1.428386
5540.000000	1.430073
5538.000000	1.432094
5536.000000	1.434082
5534.000000	1.436710
5532.000000	1.439468
5530.000000	1.441902
5528.000000	1.444545
5526.000000	1.447701
5524.000000	1.451167
5522.000000	1.453829
5520.000000	1.455513
5518.000000	1.457168
5516.000000	1.459983
5514.000000	1.462984
5512.000000	1.466000
5510.000000	1.469244
5508.000000	1.472532
5506.000000	1.474465
5504.000000	1.474707
5502.000000	1.476150
5500.000000	1.479834
5498.000000	1.484318
5496.000000	1.487347
5494.000000	1.489606
5492.000000	1.492216
5490.000000	1.494433
5488.000000	1.496740
5486.000000	1.499256
5484.000000	1.502451
5482.000000	1.505972
5480.000000	1.509153
5478.000000	1.512032
5476.000000	1.514372
5474.000000	1.516129
5472.000000	1.518255
5470.000000	1.520732
5468.000000	1.524196
5466.000000	1.526823
5464.000000	1.529426
5462.000000	1.532236
5460.000000	1.535066
5458.000000	1.537739
5456.000000	1.540508
5454.000000	1.542983
5452.000000	1.544614
5450.000000	1.545899
5448.000000	1.547961
5446.000000	1.550323
5444.000000	1.553977
5442.000000	1.557780
5440.000000	1.560151
5438.000000	1.561707
5436.000000	1.564366
5434.000000	1.568526
5432.000000	1.572251
5430.000000	1.574652
5428.000000	1.576319
5426.000000	1.578951
5424.000000	1.582910
5422.000000	1.586708
5420.000000	1.589200
5418.000000	1.592074
5416.000000	1.595267
5414.000000	1.596930
5412.000000	1.596584
5410.000000	1.597554
5408.000000	1.601494
5406.000000	1.606230
5404.000000	1.610024
5402.000000	1.612702
5400.000000	1.615981
5398.000000	1.618898
5396.000000	1.621164
5394.000000	1.622749
5392.000000	1.625277
5390.000000	1.629430
5388.000000	1.633407
5386.000000	1.636064
5384.000000	1.637674
5382.000000	1.640074
5380.000000	1.644256
5378.000000	1.647773
5376.000000	1.649407
5374.000000	1.650483
5372.000000	1.653647
5370.000000	1.657558
5368.000000	1.660219
5366.000000	1.662878
5364.000000	1.666141
5362.000000	1.668817
5360.000000	1.670505
5358.000000	1.673076
5356.000000	1.675717
5354.000000	1.678227
5352.000000	1.680327
5350.000000	1.683419
5348.000000	1.686739
5346.000000	1.689746
5344.000000	1.692086
5342.000000	1.693800
5340.000000	1.695759
5338.000000	1.698030
5336.000000	1.700777
5334.000000	1.704138
5332.000000	1.707887
5330.000000	1.710954
5328.000000	1.713610
5326.000000	1.716748
5324.000000	1.720378
5322.000000	1.723986
5320.000000	1.727146
5318.000000	1.730568
5316.000000	1.733806
5314.000000	1.735879
5312.000000	1.737921
5310.000000	1.740986
5308.000000	1.743271
5306.000000	1.744368
5304.000000	1.745960
5302.000000	1.749396
5300.000000	1.753366
5298.000000	1.756518
5296.000000	1.759803
5294.000000	1.762552
5292.000000	1.764480
5290.000000	1.766680
5288.000000	1.769862
5286.000000	1.773218
5284.000000	1.776286
5282.000000	1.779561
5280.000000	1.783252
5278.000000	1.785945
5276.000000	1.788181
5274.000000	1.790720
5272.000000	1.794038
5270.000000	1.797063
5268.000000	1.799675
5266.000000	1.802551
5264.000000	1.805058
5262.000000	1.807401
5260.000000	1.809857
5258.000000	1.813358
5256.000000	1.815884
5254.000000	1.817590
5252.000000	1.819984
5250.000000	1.823642
5248.000000	1.825963
5246.000000	1.828013
5244.000000	1.830983
5242.000000	1.834629
5240.000000	1.837720
5238.000000	1.840555
5236.000000	1.843352
5234.000000	1.846818
5232.000000	1.849745
5230.000000	1.852186
5228.000000	1.854021
5226.000000	1.856573
5224.000000	1.859396
5222.000000	1.862996
5220.000000	1.867106
5218.000000	1.870496
5216.000000	1.872672
5214.000000	1.875187
5212.000000	1.878253
5210.000000	1.880955
5208.000000	1.882547
5206.000000	1.884364
5204.000000	1.886828
5202.000000	1.891108
5200.000000	1.895880
5198.000000	1.899516
5196.000000	1.901459
5194.000000	1.903281
5192.000000	1.906244
5190.000000	1.909460
5188.000000	1.912690
5186.000000	1.915496
5184.000000	1.918079
5182.000000	1.921000
5180.000000	1.924905
5178.000000	1.929136
5176.000000	1.932018
5174.000000	1.934037
5172.000000	1.935897
5170.000000	1.938601
5168.000000	1.942126
5166.000000	1.945577
5164.000000	1.947886
5162.000000	1.950725
5160.000000	1.954696
5158.000000	1.958031
5156.000000	1.959960
5154.000000	1.962454
5152.000000	1.965623
5150.000000	1.968844
5148.000000	1.972089
5146.000000	1.975831
5144.000000	1.979148
5142.000000	1.981452
5140.000000	1.983270
5138.000000	1.985252
5136.000000	1.987686
5134.000000	1.990393
5132.000000	1.993355
5130.000000	1.996538
5128.000000	2.000612
5126.000000	2.004807
5124.000000	2.007912
5122.000000	2.010332
5120.000000	2.013241
5118.000000	2.016471
5116.000000	2.019953
5114.000000	2.023971
5112.000000	2.026978
5110.000000	2.028923
5108.000000	2.031090
5106.000000	2.033463
5104.000000	2.035932
5102.000000	2.038964
5100.000000	2.042118
5098.000000	2.045107
5096.000000	2.048201
5094.000000	2.052003
5092.000000	2.055546
5090.000000	2.058124
5088.000000	2.060967
5086.000000	2.064331
5084.000000	2.067468
5082.000000	2.069935
5080.000000	2.072612
5078.000000	2.076440
5076.000000	2.080569
5074.000000	2.084255
5072.000000	2.086754
5070.000000	2.089344
5068.000000	2.092409
5066.000000	2.095391
5064.000000	2.098021
5062.000000	2.100508
5060.000000	2.102764
5058.000000	2.105438
5056.000000	2.108742
5054.000000	2.112150
5052.000000	2.114273
5050.000000	2.116384
5048.000000	2.119886
5046.000000	2.124561
5044.000000	2.128497
5042.000000	2.130835
5040.000000	2.133079
5038.000000	2.136316
5036.000000	2.140105
5034.000000	2.143257
5032.000000	2.146222
5030.000000	2.149249
5028.000000	2.151500
5026.000000	2.153657
5024.000000	2.156979
5022.000000	2.160357
5020.000000	2.162558
5018.000000	2.164238
5016.000000	2.166977
5014.000000	2.171631
5012.000000	2.176492
5010.000000	2.180120
5008.000000	2.182678
5006.000000	2.185789
5004.000000	2.189068
5002.000000	2.192098
5000.000000	2.194681
4998.000000	2.196730
4996.000000	2.198683
4994.000000	2.201236
4992.000000	2.204986
4990.000000	2.209095
4988.000000	2.212855
4986.000000	2.215712
4984.000000	2.218144
4982.000000	2.220573
4980.000000	2.223923
4978.000000	2.227500
4976.000000	2.231028
4974.000000	2.234659
4972.000000	2.238049
4970.000000	2.240932
4968.000000	2.243651
4966.000000	2.246888
4964.000000	2.250046
4962.000000	2.252612
4960.000000	2.255739
4958.000000	2.258198
4956.000000	2.260011
4954.000000	2.261785
4952.000000	2.265338
4950.000000	2.269718
4948.000000	2.272815
4946.000000	2.274354
4944.000000	2.275695
4942.000000	2.279422
4940.000000	2.283694
4938.000000	2.286125
4936.000000	2.288431
4934.000000	2.291996
4932.000000	2.295761
4930.000000	2.298935
4928.000000	2.302495
4926.000000	2.306159
4924.000000	2.309743
4922.000000	2.312997
4920.000000	2.315566
4918.000000	2.318613
4916.000000	2.322126
4914.000000	2.325119
4912.000000	2.327800
4910.000000	2.330967
4908.000000	2.334107
4906.000000	2.336981
4904.000000	2.340258
4902.000000	2.343501
4900.000000	2.346011
4898.000000	2.348502
4896.000000	2.351737
4894.000000	2.355156
4892.000000	2.359412
4890.000000	2.364175
4888.000000	2.367264
4886.000000	2.368782
4884.000000	2.371215
4882.000000	2.375078
4880.000000	2.379163
4878.000000	2.383388
4876.000000	2.386318
4874.000000	2.388160
4872.000000	2.390188
4870.000000	2.392925
4868.000000	2.395789
4866.000000	2.399216
4864.000000	2.403388
4862.000000	2.406917
4860.000000	2.409259
4858.000000	2.411572
4856.000000	2.414799
4854.000000	2.417844
4852.000000	2.420545
4850.000000	2.423668
4848.000000	2.426858
4846.000000	2.429268
4844.000000	2.432555
4842.000000	2.437247
4840.000000	2.441214
4838.000000	2.444014
4836.000000	2.447128
4834.000000	2.450584
4832.000000	2.453411
4830.000000	2.456298
4828.000000	2.458979
4826.000000	2.460874
4824.000000	2.463936
4822.000000	2.468626
4820.000000	2.473038
4818.000000	2.476549
4816.000000	2.479803
4814.000000	2.482102
4812.000000	2.484205
4810.000000	2.487830
4808.000000	2.491667
4806.000000	2.494561
4804.000000	2.496682
4802.000000	2.498671
4800.000000	2.501452
4798.000000	2.505842
4796.000000	2.510464
4794.000000	2.513565
4792.000000	2.515112
4790.000000	2.517807
4788.000000	2.522327
4786.000000	2.526233
4784.000000	2.528069
4782.000000	2.530289
4780.000000	2.534094
4778.000000	2.538040
4776.000000	2.541394
4774.000000	2.544533
4772.000000	2.547965
4770.000000	2.551940
4768.000000	2.555739
4766.000000	2.557919
4764.000000	2.559820
4762.000000	2.562608
4760.000000	2.565867
4758.000000	2.568314
4756.000000	2.570867
4754.000000	2.573866
4752.000000	2.577199
4750.000000	2.580392
4748.000000	2.584124
4746.000000	2.588357
4744.000000	2.592031
4742.000000	2.595282
4740.000000	2.598135
4738.000000	2.600408
4736.000000	2.603715
4734.000000	2.608024
4732.000000	2.611295
4730.000000	2.613853
4728.000000	2.616576
4726.000000	2.618999
4724.000000	2.622173
4722.000000	2.626904
4720.000000	2.630895
4718.000000	2.633439
4716.000000	2.636302
4714.000000	2.640185
4712.000000	2.644771
4710.000000	2.648213
4708.000000	2.650192
4706.000000	2.652345
4704.000000	2.655418
4702.000000	2.658781
4700.000000	2.662992
4698.000000	2.667812
4696.000000	2.671595
4694.000000	2.673969
4692.000000	2.676278
4690.000000	2.678983
4688.000000	2.681758
4686.000000	2.684627
4684.000000	2.688426
4682.000000	2.692751
4680.000000	2.696036
4678.000000	2.698947
4676.000000	2.702792
4674.000000	2.706809
4672.000000	2.709409
4670.000000	2.711937
4668.000000	2.715075
4666.000000	2.718230
4664.000000	2.721481
4662.000000	2.725624
4660.000000	2.729817
4658.000000	2.733286
4656.000000	2.736556
4654.000000	2.739804
4652.000000	2.742191
4650.000000	2.744640
4648.000000	2.747927
4646.000000	2.750833
4644.000000	2.753041
4642.000000	2.756024
4640.000000	2.760531
4638.000000	2.764903
4636.000000	2.767920
4634.000000	2.770367
4632.000000	2.774380
4630.000000	2.779261
4628.000000	2.783295
4626.000000	2.786223
4624.000000	2.789218
4622.000000	2.792092
4620.000000	2.794724
4618.000000	2.797796
4616.000000	2.801611
4614.000000	2.805166
4612.000000	2.807954
4610.000000	2.810810
4608.000000	2.814790
4606.000000	2.819018
4604.000000	2.822179
4602.000000	2.824992
4600.000000	2.829073
4598.000000	2.833245
4596.000000	2.836330
4594.000000	2.839118
4592.000000	2.842461
4590.000000	2.845981
4588.000000	2.848985
4586.000000	2.851641
4584.000000	2.855386
4582.000000	2.860225
4580.000000	2.864220
4578.000000	2.867159
4576.000000	2.870240
4574.000000	2.874119
4572.000000	2.877877
4570.000000	2.880627
4568.000000	2.883140
4566.000000	2.886186
4564.000000	2.889884
4562.000000	2.893823
4560.000000	2.896641
4558.000000	2.898834
4556.000000	2.902074
4554.000000	2.905729
4552.000000	2.909137
4550.000000	2.912911
4548.000000	2.916674
4546.000000	2.920312
4544.000000	2.924369
4542.000000	2.927862
4540.000000	2.930747
4538.000000	2.934203
4536.000000	2.937898
4534.000000	2.940891
4532.000000	2.943859
4530.000000	2.947460
4528.000000	2.951296
4526.000000	2.954233
4524.000000	2.956851
4522.000000	2.960295
4520.000000	2.964050
4518.000000	2.967666
4516.000000	2.972175
4514.000000	2.976124
4512.000000	2.978722
4510.000000	2.981235
4508.000000	2.984960
4506.000000	2.989144
4504.000000	2.992709
4502.000000	2.996021
4500.000000	2.999909
4498.000000	3.003496
4496.000000	3.006756
4494.000000	3.010739
4492.000000	3.013769
4490.000000	3.015429
4488.000000	3.018435
4486.000000	3.022723
4484.000000	3.026310
4482.000000	3.029429
4480.000000	3.033147
4478.000000	3.037115
4476.000000	3.040882
4474.000000	3.043881
4472.000000	3.046292
4470.000000	3.048806
4468.000000	3.052050
4466.000000	3.055586
4464.000000	3.059254
4462.000000	3.063627
4460.000000	3.067467
4458.000000	3.070237
4456.000000	3.073727
4454.000000	3.078187
4452.000000	3.081532
4450.000000	3.084144
4448.000000	3.086871
4446.000000	3.089836
4444.000000	3.093237
4442.000000	3.097199
4440.000000	3.100630
4438.000000	3.103711
4436.000000	3.106669
4434.000000	3.110385
4432.000000	3.114240
4430.000000	3.118091
4428.000000	3.121468
4426.000000	3.124659
4424.000000	3.127195
4422.000000	3.129267
4420.000000	3.132159
4418.000000	3.136863
4416.000000	3.141564
4414.000000	3.145125
4412.000000	3.148235
4410.000000	3.151266
4408.000000	3.154517
4406.000000	3.158735
4404.000000	3.163758
4402.000000	3.167665
4400.000000	3.170336
4398.000000	3.173458
4396.000000	3.176749
4394.000000	3.179554
4392.000000	3.182810
4390.000000	3.185763
4388.000000	3.187554
4386.000000	3.189756
4384.000000	3.193484
4382.000000	3.198287
4380.000000	3.203172
4378.000000	3.206912
4376.000000	3.209110
4374.000000	3.211378
4372.000000	3.214147
4370.000000	3.216543
4368.000000	3.219694
4366.000000	3.224516
4364.000000	3.228559
4362.000000	3.231823
4360.000000	3.235319
4358.000000	3.238346
4356.000000	3.241750
4354.000000	3.245643
4352.000000	3.247778
4350.000000	3.249765
4348.000000	3.254306
4346.000000	3.258799
4344.000000	3.261662
4342.000000	3.265155
4340.000000	3.269690
4338.000000	3.273965
4336.000000	3.277353
4334.000000	3.279808
4332.000000	3.282526
4330.000000	3.285827
4328.000000	3.288919
4326.000000	3.292241
4324.000000	3.296168
4322.000000	3.300575
4320.000000	3.304802
4318.000000	3.308559
4316.000000	3.312287
4314.000000	3.316025
4312.000000	3.319474
4310.000000	3.323076
4308.000000	3.326399
4306.000000	3.329095
4304.000000	3.332226
4302.000000	3.336596
4300.000000	3.341398
4298.000000	3.345778
4296.000000	3.349114
4294.000000	3.351167
4292.000000	3.353139
4290.000000	3.356348
4288.000000	3.360121
4286.000000	3.363800
4284.000000	3.367284
4282.000000	3.370241
4280.000000	3.372880
4278.000000	3.375636
4276.000000	3.378435
4274.000000	3.381820
4272.000000	3.386255
4270.000000	3.390682
4268.000000	3.394258
4266.000000	3.396797
4264.000000	3.399137
4262.000000	3.402001
4260.000000	3.405761
4258.000000	3.409656
4256.000000	3.412618
4254.000000	3.415396
4252.000000	3.419991
4250.000000	3.425282
4248.000000	3.428691
4246.000000	3.431122
4244.000000	3.434840
4242.000000	3.438911
4240.000000	3.442187
4238.000000	3.446001
4236.000000	3.449381
4234.000000	3.451250
4232.000000	3.453234
4230.000000	3.457669
4228.000000	3.463141
4226.000000	3.467485
4224.000000	3.470768
4222.000000	3.473840
4220.000000	3.477079
4218.000000	3.481456
4216.000000	3.485970
4214.000000	3.489500
4212.000000	3.492675
4210.000000	3.496378
4208.000000	3.500367
4206.000000	3.504451
4204.000000	3.507487
4202.000000	3.509751
4200.000000	3.512963
4198.000000	3.517203
4196.000000	3.521151
4194.000000	3.524851
4192.000000	3.528256
4190.000000	3.531843
4188.000000	3.535612
4186.000000	3.539046
4184.000000	3.542668
4182.000000	3.546934
4180.000000	3.550174
4178.000000	3.553068
4176.000000	3.557078
4174.000000	3.560216
4172.000000	3.561789
4170.000000	3.564514
4168.000000	3.568871
4166.000000	3.573715
4164.000000	3.578612
4162.000000	3.582761
4160.000000	3.586138
4158.000000	3.589959
4156.000000	3.593983
4154.000000	3.597498
4152.000000	3.600815
4150.000000	3.604745
4148.000000	3.608860
4146.000000	3.612046
4144.000000	3.614951
4142.000000	3.618770
4140.000000	3.623100
4138.000000	3.626906
4136.000000	3.630044
4134.000000	3.633428
4132.000000	3.637493
4130.000000	3.642363
4128.000000	3.646963
4126.000000	3.649822
4124.000000	3.652342
4122.000000	3.655910
4120.000000	3.659716
4118.000000	3.663515
4116.000000	3.667615
4114.000000	3.671311
4112.000000	3.674533
4110.000000	3.678386
4108.000000	3.682959
4106.000000	3.686605
4104.000000	3.689681
4102.000000	3.693488
4100.000000	3.696793
4098.000000	3.699153
4096.000000	3.702697
4094.000000	3.706126
4092.000000	3.708861
4090.000000	3.713256
4088.000000	3.718106
4086.000000	3.721076
4084.000000	3.723031
4082.000000	3.726193
4080.000000	3.731486
4078.000000	3.736614
4076.000000	3.740538
4074.000000	3.744033
4072.000000	3.747634
4070.000000	3.751781
4068.000000	3.756014
4066.000000	3.760005
4064.000000	3.764430
4062.000000	3.768760
4060.000000	3.771957
4058.000000	3.774499
4056.000000	3.777586
4054.000000	3.780898
4052.000000	3.784102
4050.000000	3.787946
4048.000000	3.791891
4046.000000	3.794547
4044.000000	3.797240
4042.000000	3.801899
4040.000000	3.807597
4038.000000	3.812201
4036.000000	3.815348
4034.000000	3.818490
4032.000000	3.822327
4030.000000	3.826307
4028.000000	3.830530
4026.000000	3.835031
4024.000000	3.839317
4022.000000	3.842525
4020.000000	3.845451
4018.000000	3.849714
4016.000000	3.854146
4014.000000	3.857888
4012.000000	3.861613
4010.000000	3.865410
4008.000000	3.869227
4006.000000	3.873061
4004.000000	3.876786
4002.000000	3.879607
4000.000000	3.882516
3998.000000	3.887433
3996.000000	3.892392
3994.000000	3.895462
3992.000000	3.898327
3990.000000	3.901764
3988.000000	3.905279
3986.000000	3.909724
3984.000000	3.914458
3982.000000	3.917854
3980.000000	3.921198
3978.000000	3.925381
3976.000000	3.929578
3974.000000	3.932833
3972.000000	3.934929
3970.000000	3.937537
3968.000000	3.941266
3966.000000	3.945812
3964.000000	3.950578
3962.000000	3.954116
3960.000000	3.956923
3958.000000	3.960045
3956.000000	3.963427
3954.000000	3.966800
3952.000000	3.969792
3950.000000	3.972232
3948.000000	3.973974
3946.000000	3.976851
3944.000000	3.981159
3942.000000	3.984920
3940.000000	3.989383
3938.000000	3.995094
3936.000000	4.000539
3934.000000	4.003205
3932.000000	4.001882
3930.000000	4.002169
3928.000000	4.008353
3926.000000	4.015011
3924.000000	4.017563
3922.000000	4.019717
3920.000000	4.022441
3918.000000	4.022590
3916.000000	4.024792
3914.000000	4.034310
3912.000000	4.045325
3910.000000	4.051715
3908.000000	4.053601
3906.000000	4.047521
3904.000000	4.032432
3902.000000	4.021499
3900.000000	4.024903
3898.000000	4.039097
3896.000000	4.058353
3894.000000	4.070034
3892.000000	4.065228
3890.000000	4.060828
3888.000000	4.067263
3886.000000	4.065275
3884.000000	4.059984
3882.000000	4.070255
3880.000000	4.080941
3878.000000	4.088153
3876.000000	4.097888
3874.000000	4.099476
3872.000000	4.092348
3870.000000	4.079064
3868.000000	4.074724
3866.000000	4.088455
3864.000000	4.098380
3862.000000	4.105145
3860.000000	4.119584
3858.000000	4.128360
3856.000000	4.107739
3854.000000	4.050509
3852.000000	4.019051
3850.000000	4.065296
3848.000000	4.132405
3846.000000	4.160538
3844.000000	4.159340
3842.000000	4.150852
3840.000000	4.137869
3838.000000	4.115858
3836.000000	4.108202
3834.000000	4.133145
3832.000000	4.160539
3830.000000	4.173827
3828.000000	4.184152
3826.000000	4.190798
3824.000000	4.191276
3822.000000	4.178197
3820.000000	4.161673
3818.000000	4.162441
3816.000000	4.161823
3814.000000	4.167338
3812.000000	4.201096
3810.000000	4.225653
3808.000000	4.216063
3806.000000	4.198220
3804.000000	4.197724
3802.000000	4.193782
3800.000000	4.184128
3798.000000	4.204602
3796.000000	4.233710
3794.000000	4.247074
3792.000000	4.258809
3790.000000	4.268248
3788.000000	4.271701
3786.000000	4.272316
3784.000000	4.273245
3782.000000	4.276461
3780.000000	4.276761
3778.000000	4.275579
3776.000000	4.283106
3774.000000	4.293879
3772.000000	4.295073
3770.000000	4.286085
3768.000000	4.281684
3766.000000	4.288738
3764.000000	4.297953
3762.000000	4.305301
3760.000000	4.305073
3758.000000	4.301457
3756.000000	4.305062
3754.000000	4.297914
3752.000000	4.262099
3750.000000	4.228773
3748.000000	4.235571
3746.000000	4.249592
3744.000000	4.234990
3742.000000	4.250637
3740.000000	4.308068
3738.000000	4.328454
3736.000000	4.307965
3734.000000	4.296806
3732.000000	4.308124
3730.000000	4.332090
3728.000000	4.355934
3726.000000	4.364269
3724.000000	4.364685
3722.000000	4.369283
3720.000000	4.376265
3718.000000	4.385995
3716.000000	4.394206
3714.000000	4.388032
3712.000000	4.365193
3710.000000	4.354698
3708.000000	4.374356
3706.000000	4.402453
3704.000000	4.415807
3702.000000	4.413397
3700.000000	4.413137
3698.000000	4.424020
3696.000000	4.434069
3694.000000	4.435924
3692.000000	4.425912
3690.000000	4.400465
3688.000000	4.377942
3686.000000	4.393298
3684.000000	4.434989
3682.000000	4.456551
3680.000000	4.454279
3678.000000	4.438225
3676.000000	4.404621
3674.000000	4.385299
3672.000000	4.400935
3670.000000	4.408100
3668.000000	4.416087
3666.000000	4.452681
3664.000000	4.482375
3662.000000	4.491101
3660.000000	4.492810
3658.000000	4.486025
3656.000000	4.470859
3654.000000	4.467925
3652.000000	4.468679
3650.000000	4.443720
3648.000000	4.422405
3646.000000	4.443947
3644.000000	4.484178
3642.000000	4.507028
3640.000000	4.513297
3638.000000	4.515090
3636.000000	4.515609
3634.000000	4.514415
3632.000000	4.506668
3630.000000	4.480424
3628.000000	4.453827
3626.000000	4.471389
3624.000000	4.511039
3622.000000	4.522570
3620.000000	4.508256
3618.000000	4.496144
3616.000000	4.502293
3614.000000	4.510377
3612.000000	4.507804
3610.000000	4.502330
3608.000000	4.500256
3606.000000	4.511054
3604.000000	4.528106
3602.000000	4.534573
3600.000000	4.533445
3598.000000	4.532278
3596.000000	4.530195
3594.000000	4.528064
3592.000000	4.530163
3590.000000	4.529379
3588.000000	4.517700
3586.000000	4.511237
3584.000000	4.523488
3582.000000	4.537773
3580.000000	4.541383
3578.000000	4.541307
3576.000000	4.542375
3574.000000	4.543169
3572.000000	4.542815
3570.000000	4.537513
3568.000000	4.523624
3566.000000	4.512915
3564.000000	4.519625
3562.000000	4.531579
3560.000000	4.535531
3558.000000	4.536870
3556.000000	4.538648
3554.000000	4.537321
3552.000000	4.533156
3550.000000	4.531246
3548.000000	4.529998
3546.000000	4.525661
3544.000000	4.524202
3542.000000	4.527351
3540.000000	4.529078
3538.000000	4.527823
3536.000000	4.525365
3534.000000	4.523298
3532.000000	4.522431
3530.000000	4.520231
3528.000000	4.515657
3526.000000	4.511076
3524.000000	4.507908
3522.000000	4.505399
3520.000000	4.502838
3518.000000	4.500221
3516.000000	4.497846
3514.000000	4.495224
3512.000000	4.490449
3510.000000	4.483646
3508.000000	4.478984
3506.000000	4.476287
3504.000000	4.470763
3502.000000	4.464589
3500.000000	4.461549
3498.000000	4.459475
3496.000000	4.455478
3494.000000	4.449430
3492.000000	4.443737
3490.000000	4.437946
3488.000000	4.431611
3486.000000	4.426881
3484.000000	4.423855
3482.000000	4.419285
3480.000000	4.413508
3478.000000	4.410264
3476.000000	4.408254
3474.000000	4.405403
3472.000000	4.403584
3470.000000	4.401639
3468.000000	4.398261
3466.000000	4.395946
3464.000000	4.395041
3462.000000	4.393656
3460.000000	4.391536
3458.000000	4.389801
3456.000000	4.387678
3454.000000	4.385320
3452.000000	4.383647
3450.000000	4.381468
3448.000000	4.377489
3446.000000	4.373253
3444.000000	4.371486
3442.000000	4.370452
3440.000000	4.370262
3438.000000	4.372160
3436.000000	4.373378
3434.000000	4.374604
3432.000000	4.378333
3430.000000	4.382672
3428.000000	4.386068
3426.000000	4.389457
3424.000000	4.392858
3422.000000	4.395956
3420.000000	4.398779
3418.000000	4.401858
3416.000000	4.405115
3414.000000	4.406260
3412.000000	4.406816
3410.000000	4.408739
3408.000000	4.409856
3406.000000	4.410243
3404.000000	4.410607
3402.000000	4.411375
3400.000000	4.413319
3398.000000	4.414600
3396.000000	4.415537
3394.000000	4.418174
3392.000000	4.420717
3390.000000	4.422306
3388.000000	4.424727
3386.000000	4.427362
3384.000000	4.428548
3382.000000	4.429972
3380.000000	4.432916
3378.000000	4.434825
3376.000000	4.436010
3374.000000	4.438690
3372.000000	4.441285
3370.000000	4.441250
3368.000000	4.440920
3366.000000	4.441652
3364.000000	4.442954
3362.000000	4.445342
3360.000000	4.447311
3358.000000	4.448140
3356.000000	4.449373
3354.000000	4.450844
3352.000000	4.452677
3350.000000	4.454330
3348.000000	4.456147
3346.000000	4.458444
3344.000000	4.459121
3342.000000	4.459405
3340.000000	4.461804
3338.000000	4.462914
3336.000000	4.462527
3334.000000	4.464012
3332.000000	4.467031
3330.000000	4.468489
3328.000000	4.468539
3326.000000	4.469609
3324.000000	4.471186
3322.000000	4.472386
3320.000000	4.473397
3318.000000	4.473699
3316.000000	4.474371
3314.000000	4.475223
3312.000000	4.476472
3310.000000	4.478219
3308.000000	4.478382
3306.000000	4.477997
3304.000000	4.478411
3302.000000	4.479526
3300.000000	4.481747
3298.000000	4.483342
3296.000000	4.483568
3294.000000	4.484044
3292.000000	4.484708
3290.000000	4.485902
3288.000000	4.487631
3286.000000	4.488934
3284.000000	4.490390
3282.000000	4.492737
3280.000000	4.494720
3278.000000	4.496049
3276.000000	4.497707
3274.000000	4.499522
3272.000000	4.500252
3270.000000	4.500694
3268.000000	4.502463
3266.000000	4.505411
3264.000000	4.507714
3262.000000	4.508117
3260.000000	4.509116
3258.000000	4.511716
3256.000000	4.513898
3254.000000	4.514837
3252.000000	4.515663
3250.000000	4.517430
3248.000000	4.520170
3246.000000	4.523141
3244.000000	4.525539
3242.000000	4.527399
3240.000000	4.529287
3238.000000	4.531471
3236.000000	4.533438
3234.000000	4.534588
3232.000000	4.535449
3230.000000	4.537673
3228.000000	4.540811
3226.000000	4.543370
3224.000000	4.545342
3222.000000	4.546543
3220.000000	4.547961
3218.000000	4.550313
3216.000000	4.552660
3214.000000	4.554415
3212.000000	4.557110
3210.000000	4.560734
3208.000000	4.564193
3206.000000	4.566896
3204.000000	4.569415
3202.000000	4.572078
3200.000000	4.575263
3198.000000	4.578336
3196.000000	4.582068
3194.000000	4.586909
3192.000000	4.591598
3190.000000	4.595582
3188.000000	4.598068
3186.000000	4.600009
3184.000000	4.603792
3182.000000	4.607991
3180.000000	4.610834
3178.000000	4.613415
3176.000000	4.617491
3174.000000	4.622756
3172.000000	4.626464
3170.000000	4.629057
3168.000000	4.632187
3166.000000	4.635062
3164.000000	4.637960
3162.000000	4.641459
3160.000000	4.645841
3158.000000	4.649766
3156.000000	4.652329
3154.000000	4.654562
3152.000000	4.657667
3150.000000	4.660879
3148.000000	4.664674
3146.000000	4.668763
3144.000000	4.672315
3142.000000	4.674656
3140.000000	4.676335
3138.000000	4.679181
3136.000000	4.683435
3134.000000	4.687676
3132.000000	4.690241
3130.000000	4.693084
3128.000000	4.696451
3126.000000	4.699417
3124.000000	4.701755
3122.000000	4.703391
3120.000000	4.705118
3118.000000	4.707608
3116.000000	4.710978
3114.000000	4.714109
3112.000000	4.717127
3110.000000	4.719108
3108.000000	4.720652
3106.000000	4.723481
3104.000000	4.726086
3102.000000	4.728376
3100.000000	4.732036
3098.000000	4.736661
3096.000000	4.740959
3094.000000	4.744042
3092.000000	4.747610
3090.000000	4.750583
3088.000000	4.753931
3086.000000	4.758400
3084.000000	4.762664
3082.000000	4.765679
3080.000000	4.767192
3078.000000	4.768679
3076.000000	4.771579
3074.000000	4.774684
3072.000000	4.777085
3070.000000	4.777512
3068.000000	4.776526
3066.000000	4.777017
3064.000000	4.779468
3062.000000	4.782120
3060.000000	4.784413
3058.000000	4.787798
3056.000000	4.791118
3054.000000	4.794375
3052.000000	4.798850
3050.000000	4.801956
3048.000000	4.804348
3046.000000	4.808036
3044.000000	4.811385
3042.000000	4.812679
3040.000000	4.813860
3038.000000	4.814574
3036.000000	4.814942
3034.000000	4.816488
3032.000000	4.817854
3030.000000	4.817435
3028.000000	4.814916
3026.000000	4.810392
3024.000000	4.803795
3022.000000	4.796671
3020.000000	4.791955
3018.000000	4.790458
3016.000000	4.794026
3014.000000	4.803214
3012.000000	4.817451
3010.000000	4.833023
3008.000000	4.846684
3006.000000	4.858279
3004.000000	4.866639
3002.000000	4.871103
3000.000000	4.874145
2998.000000	4.877508
2996.000000	4.880753
2994.000000	4.882613
2992.000000	4.883321
2990.000000	4.883554
2988.000000	4.884088
2986.000000	4.883487
2984.000000	4.880165
2982.000000	4.875323
2980.000000	4.869571
2978.000000	4.861641
2976.000000	4.850796
2974.000000	4.835384
2972.000000	4.814100
2970.000000	4.788152
2968.000000	4.758364
2966.000000	4.726382
2964.000000	4.698418
2962.000000	4.681096
2960.000000	4.677526
2958.000000	4.685848
2956.000000	4.700534
2954.000000	4.716189
2952.000000	4.728666
2950.000000	4.736653
2948.000000	4.740764
2946.000000	4.739224
2944.000000	4.729367
2942.000000	4.711309
2940.000000	4.687668
2938.000000	4.660963
2936.000000	4.635669
2934.000000	4.612313
2932.000000	4.590207
2930.000000	4.570146
2928.000000	4.550897
2926.000000	4.535559
2924.000000	4.532168
2922.000000	4.544562
2920.000000	4.572286
2918.000000	4.610751
2916.000000	4.655640
2914.000000	4.702376
2912.000000	4.743299
2910.000000	4.776018
2908.000000	4.801529
2906.000000	4.822693
2904.000000	4.840737
2902.000000	4.855158
2900.000000	4.870301
2898.000000	4.885022
2896.000000	4.896702
2894.000000	4.907066
2892.000000	4.919084
2890.000000	4.931397
2888.000000	4.942829
2886.000000	4.952587
2884.000000	4.959311
2882.000000	4.962971
2880.000000	4.963254
2878.000000	4.962339
2876.000000	4.960497
2874.000000	4.954374
2872.000000	4.943473
2870.000000	4.928870
2868.000000	4.908700
2866.000000	4.881997
2864.000000	4.851802
2862.000000	4.825757
2860.000000	4.812188
2858.000000	4.812308
2856.000000	4.825116
2854.000000	4.844409
2852.000000	4.864398
2850.000000	4.887397
2848.000000	4.917208
2846.000000	4.950394
2844.000000	4.980604
2842.000000	5.006177
2840.000000	5.027040
2838.000000	5.044163
2836.000000	5.059075
2834.000000	5.070236
2832.000000	5.078296
2830.000000	5.086910
2828.000000	5.095458
2826.000000	5.101893
2824.000000	5.107135
2822.000000	5.112276
2820.000000	5.118121
2818.000000	5.122992
2816.000000	5.126004
2814.000000	5.129364
2812.000000	5.133843
2810.000000	5.137263
2808.000000	5.139808
2806.000000	5.142018
2804.000000	5.145105
2802.000000	5.148360
2800.000000	5.150706
2798.000000	5.153326
2796.000000	5.156350
2794.000000	5.158620
2792.000000	5.161096
2790.000000	5.163700
2788.000000	5.166984
2786.000000	5.171469
2784.000000	5.176402
2782.000000	5.181691
2780.000000	5.186024
2778.000000	5.188212
2776.000000	5.190792
2774.000000	5.193995
2772.000000	5.197499
2770.000000	5.201065
2768.000000	5.203407
2766.000000	5.204988
2764.000000	5.207938
2762.000000	5.211458
2760.000000	5.214462
2758.000000	5.217280
2756.000000	5.219954
2754.000000	5.222029
2752.000000	5.224130
2750.000000	5.226743
2748.000000	5.228395
2746.000000	5.229973
2744.000000	5.231163
2742.000000	5.232117
2740.000000	5.234201
2738.000000	5.236256
2736.000000	5.237885
2734.000000	5.239422
2732.000000	5.240455
2730.000000	5.241488
2728.000000	5.243398
2726.000000	5.244696
2724.000000	5.246235
2722.000000	5.247688
2720.000000	5.247934
2718.000000	5.248139
2716.000000	5.249574
2714.000000	5.250246
2712.000000	5.249691
2710.000000	5.250006
2708.000000	5.251637
2706.000000	5.252443
2704.000000	5.252528
2702.000000	5.252421
2700.000000	5.253060
2698.000000	5.255148
2696.000000	5.256675
2694.000000	5.257583
2692.000000	5.258980
2690.000000	5.260275
2688.000000	5.261544
2686.000000	5.262932
2684.000000	5.263986
2682.000000	5.265197
2680.000000	5.266041
2678.000000	5.265781
2676.000000	5.265929
2674.000000	5.266006
2672.000000	5.266408
2670.000000	5.266963
2668.000000	5.267895
2666.000000	5.269070
2664.000000	5.269373
2662.000000	5.268646
2660.000000	5.269704
2658.000000	5.271143
2656.000000	5.271593
2654.000000	5.271674
2652.000000	5.271815
2650.000000	5.272294
2648.000000	5.273106
2646.000000	5.275169
2644.000000	5.277595
2642.000000	5.278700
2640.000000	5.279808
2638.000000	5.281407
2636.000000	5.282121
2634.000000	5.282844
2632.000000	5.284358
2630.000000	5.286228
2628.000000	5.287701
2626.000000	5.288508
2624.000000	5.289994
2622.000000	5.290827
2620.000000	5.290408
2618.000000	5.290717
2616.000000	5.292184
2614.000000	5.292875
2612.000000	5.293604
2610.000000	5.294571
2608.000000	5.295025
2606.000000	5.294760
2604.000000	5.294496
2602.000000	5.294828
2600.000000	5.295253
2598.000000	5.294662
2596.000000	5.294455
2594.000000	5.295278
2592.000000	5.296343
2590.000000	5.296779
2588.000000	5.297486
2586.000000	5.299480
2584.000000	5.302106
2582.000000	5.304608
2580.000000	5.308454
2578.000000	5.311488
2576.000000	5.313397
2574.000000	5.316046
2572.000000	5.318096
2570.000000	5.319345
2568.000000	5.320849
2566.000000	5.322730
2564.000000	5.324882
2562.000000	5.325810
2560.000000	5.325576
2558.000000	5.326368
2556.000000	5.328151
2554.000000	5.329118
2552.000000	5.330343
2550.000000	5.331968
2548.000000	5.333456
2546.000000	5.333923
2544.000000	5.334880
2542.000000	5.336084
2540.000000	5.337887
2538.000000	5.339238
2536.000000	5.340361
2534.000000	5.342571
2532.000000	5.344668
2530.000000	5.345756
2528.000000	5.346566
2526.000000	5.347499
2524.000000	5.348549
2522.000000	5.349605
2520.000000	5.351350
2518.000000	5.352777
2516.000000	5.353230
2514.000000	5.354017
2512.000000	5.355338
2510.000000	5.356108
2508.000000	5.356806
2506.000000	5.358562
2504.000000	5.360094
2502.000000	5.361051
2500.000000	5.362316
2498.000000	5.363178
2496.000000	5.364321
2494.000000	5.365508
2492.000000	5.365735
2490.000000	5.366439
2488.000000	5.367983
2486.000000	5.368752
2484.000000	5.370062
2482.000000	5.372294
2480.000000	5.373981
2478.000000	5.375206
2476.000000	5.376433
2474.000000	5.377827
2472.000000	5.378511
2470.000000	5.378741
2468.000000	5.379700
2466.000000	5.381394
2464.000000	5.381944
2462.000000	5.381127
2460.000000	5.380535
2458.000000	5.380617
2456.000000	5.381861
2454.000000	5.381931
2452.000000	5.381641
2450.000000	5.383911
2448.000000	5.386642
2446.000000	5.387030
2444.000000	5.386360
2442.000000	5.385707
2440.000000	5.385369
2438.000000	5.386447
2436.000000	5.388139
2434.000000	5.388362
2432.000000	5.387210
2430.000000	5.386260
2428.000000	5.386147
2426.000000	5.385610
2424.000000	5.385924
2422.000000	5.386141
2420.000000	5.386277
2418.000000	5.386937
2416.000000	5.388123
2414.000000	5.389498
2412.000000	5.391010
2410.000000	5.392440
2408.000000	5.392558
2406.000000	5.393631
2404.000000	5.394328
2402.000000	5.393606
2400.000000	5.393987
2398.000000	5.396339
2396.000000	5.399138
2394.000000	5.401285
2392.000000	5.402847
2390.000000	5.403211
2388.000000	5.404423
2386.000000	5.405224
2384.000000	5.404646
2382.000000	5.402955
2380.000000	5.399626
2378.000000	5.394474
2376.000000	5.387316
2374.000000	5.377102
2372.000000	5.365308
2370.000000	5.352218
2368.000000	5.338173
2366.000000	5.325784
2364.000000	5.317605
2362.000000	5.312371
2360.000000	5.311517
2358.000000	5.317718
2356.000000	5.330213
2354.000000	5.347669
2352.000000	5.367337
2350.000000	5.383934
2348.000000	5.389856
2346.000000	5.381951
2344.000000	5.367780
2342.000000	5.355552
2340.000000	5.347279
2338.000000	5.342012
2336.000000	5.340837
2334.000000	5.342895
2332.000000	5.345968
2330.000000	5.350164
2328.000000	5.356987
2326.000000	5.363636
2324.000000	5.369119
2322.000000	5.375699
2320.000000	5.381629
2318.000000	5.386055
2316.000000	5.391813
2314.000000	5.398005
2312.000000	5.402281
2310.000000	5.406025
2308.000000	5.409438
2306.000000	5.412522
2304.000000	5.413982
2302.000000	5.414848
2300.000000	5.416701
2298.000000	5.417481
2296.000000	5.416852
2294.000000	5.416618
2292.000000	5.416918
2290.000000	5.418003
2288.000000	5.420061
2286.000000	5.419521
2284.000000	5.418000
2282.000000	5.418036
2280.000000	5.416998
2278.000000	5.416391
2276.000000	5.416898
2274.000000	5.417240
2272.000000	5.418371
2270.000000	5.417971
2268.000000	5.416501
2266.000000	5.415614
2264.000000	5.416529
2262.000000	5.417390
2260.000000	5.416577
2258.000000	5.416295
2256.000000	5.417208
2254.000000	5.415821
2252.000000	5.415720
2250.000000	5.415342
2248.000000	5.412625
2246.000000	5.415067
2244.000000	5.419159
2242.000000	5.420889
2240.000000	5.420282
2238.000000	5.417797
2236.000000	5.419806
2234.000000	5.423888
2232.000000	5.422949
2230.000000	5.420133
2228.000000	5.422373
2226.000000	5.424512
2224.000000	5.423291
2222.000000	5.423094
2220.000000	5.425652
2218.000000	5.427095
2216.000000	5.427887
2214.000000	5.428703
2212.000000	5.429670
2210.000000	5.431187
2208.000000	5.432152
2206.000000	5.431043
2204.000000	5.428968
2202.000000	5.430032
2200.000000	5.432817
2198.000000	5.432935
2196.000000	5.431073
2194.000000	5.431429
2192.000000	5.431221
2190.000000	5.431097
2188.000000	5.435362
2186.000000	5.438609
2184.000000	5.439116
2182.000000	5.435699
2180.000000	5.433685
2178.000000	5.434863
2176.000000	5.436108
2174.000000	5.438792
2172.000000	5.437433
2170.000000	5.434871
2168.000000	5.437020
2166.000000	5.440153
2164.000000	5.440476
2162.000000	5.438585
2160.000000	5.435915
2158.000000	5.436114
2156.000000	5.439270
2154.000000	5.440995
2152.000000	5.442181
2150.000000	5.443768
2148.000000	5.443612
2146.000000	5.442552
2144.000000	5.443378
2142.000000	5.442773
2140.000000	5.442802
2138.000000	5.443925
2136.000000	5.443291
2134.000000	5.444374
2132.000000	5.444848
2130.000000	5.444635
2128.000000	5.445861
2126.000000	5.446346
2124.000000	5.447183
2122.000000	5.447827
2120.000000	5.448451
2118.000000	5.448954
2116.000000	5.448779
2114.000000	5.448944
2112.000000	5.450884
2110.000000	5.453497
2108.000000	5.454986
2106.000000	5.455827
2104.000000	5.456891
2102.000000	5.457328
2100.000000	5.459669
2098.000000	5.461504
2096.000000	5.461897
2094.000000	5.462304
2092.000000	5.461824
2090.000000	5.461113
2088.000000	5.462391
2086.000000	5.465927
2084.000000	5.467820
2082.000000	5.468945
2080.000000	5.471071
2078.000000	5.472581
2076.000000	5.472923
2074.000000	5.473552
2072.000000	5.474349
2070.000000	5.475583
2068.000000	5.478490
2066.000000	5.480425
2064.000000	5.482005
2062.000000	5.483731
2060.000000	5.486133
2058.000000	5.487899
2056.000000	5.488956
2054.000000	5.490554
2052.000000	5.490997
2050.000000	5.493139
2048.000000	5.497012
2046.000000	5.498415
2044.000000	5.498097
2042.000000	5.498215
2040.000000	5.500266
2038.000000	5.502330
2036.000000	5.503195
2034.000000	5.503950
2032.000000	5.504993
2030.000000	5.504313
2028.000000	5.503747
2026.000000	5.505582
2024.000000	5.507584
2022.000000	5.509081
2020.000000	5.509232
2018.000000	5.508057
2016.000000	5.508635
2014.000000	5.512049
2012.000000	5.513850
2010.000000	5.514164
2008.000000	5.515260
2006.000000	5.518186
2004.000000	5.519967
2002.000000	5.519814
2000.000000	5.519503
1998.000000	5.519272
1996.000000	5.519599
1994.000000	5.518320
1992.000000	5.514680
1990.000000	5.515063
1988.000000	5.518990
1986.000000	5.520702
1984.000000	5.520920
1982.000000	5.521078
1980.000000	5.520596
1978.000000	5.520364
1976.000000	5.520230
1974.000000	5.519278
1972.000000	5.518620
1970.000000	5.517749
1968.000000	5.514519
1966.000000	5.511192
1964.000000	5.511468
1962.000000	5.509880
1960.000000	5.504528
1958.000000	5.500232
1956.000000	5.503513
1954.000000	5.505946
1952.000000	5.505419
1950.000000	5.504541
1948.000000	5.503655
1946.000000	5.500828
1944.000000	5.494082
1942.000000	5.488062
1940.000000	5.492072
1938.000000	5.496856
1936.000000	5.496092
1934.000000	5.493642
1932.000000	5.491099
1930.000000	5.489056
1928.000000	5.487455
1926.000000	5.485151
1924.000000	5.479817
1922.000000	5.474207
1920.000000	5.469680
1918.000000	5.459865
1916.000000	5.461538
1914.000000	5.469934
1912.000000	5.468246
1910.000000	5.461916
1908.000000	5.458480
1906.000000	5.457125
1904.000000	5.455060
1902.000000	5.453367
1900.000000	5.450897
1898.000000	5.448304
1896.000000	5.443806
1894.000000	5.439473
1892.000000	5.437746
1890.000000	5.431611
1888.000000	5.429329
1886.000000	5.434498
1884.000000	5.436025
1882.000000	5.435952
1880.000000	5.435118
1878.000000	5.432822
1876.000000	5.430766
1874.000000	5.430083
1872.000000	5.425348
1870.000000	5.408725
1868.000000	5.398085
1866.000000	5.408998
1864.000000	5.417894
1862.000000	5.418770
1860.000000	5.417584
1858.000000	5.416377
1856.000000	5.416110
1854.000000	5.415671
1852.000000	5.411782
1850.000000	5.407468
1848.000000	5.400544
1846.000000	5.381756
1844.000000	5.354705
1842.000000	5.365839
1840.000000	5.391344
1838.000000	5.392906
1836.000000	5.388841
1834.000000	5.386497
1832.000000	5.375855
1830.000000	5.354741
1828.000000	5.352423
1826.000000	5.355029
1824.000000	5.350354
1822.000000	5.357829
1820.000000	5.361966
1818.000000	5.358366
1816.000000	5.353143
1814.000000	5.348892
1812.000000	5.339182
1810.000000	5.330911
1808.000000	5.329720
1806.000000	5.328126
1804.000000	5.320000
1802.000000	5.305685
1800.000000	5.293983
1798.000000	5.293907
1796.000000	5.292468
1794.000000	5.269590
1792.000000	5.239161
1790.000000	5.250339
1788.000000	5.271376
1786.000000	5.265027
1784.000000	5.253145
1782.000000	5.249767
1780.000000	5.242674
1778.000000	5.240340
1776.000000	5.231930
1774.000000	5.194610
1772.000000	5.153214
1770.000000	5.165546
1768.000000	5.183611
1766.000000	5.195367
1764.000000	5.199247
1762.000000	5.175023
1760.000000	5.168657
1758.000000	5.172100
1756.000000	5.162264
1754.000000	5.157846
1752.000000	5.125576
1750.000000	5.094983
1748.000000	5.103712
1746.000000	5.114016
1744.000000	5.109629
1742.000000	5.093790
1740.000000	5.072133
1738.000000	5.067636
1736.000000	5.044427
1734.000000	4.973396
1732.000000	4.988224
1730.000000	5.049177
1728.000000	5.068199
1726.000000	5.071662
1724.000000	5.067096
1722.000000	5.060782
1720.000000	5.030366
1718.000000	4.957939
1716.000000	4.935586
1714.000000	4.984541
1712.000000	5.020493
1710.000000	5.027441
1708.000000	5.012020
1706.000000	4.987932
1704.000000	4.974067
1702.000000	4.935954
1700.000000	4.861963
1698.000000	4.870122
1696.000000	4.869021
1694.000000	4.898256
1692.000000	4.969192
1690.000000	4.977724
1688.000000	4.963573
1686.000000	4.898350
1684.000000	4.825625
1682.000000	4.877290
1680.000000	4.943609
1678.000000	4.947917
1676.000000	4.915175
1674.000000	4.897383
1672.000000	4.911035
1670.000000	4.890437
1668.000000	4.888329
1666.000000	4.914744
1664.000000	4.908251
1662.000000	4.888178
1660.000000	4.899636
1658.000000	4.904303
1656.000000	4.864693
1654.000000	4.738277
1652.000000	4.677670
1650.000000	4.781507
1648.000000	4.816678
1646.000000	4.779431
1644.000000	4.802704
1642.000000	4.838965
1640.000000	4.836225
1638.000000	4.802060
1636.000000	4.735840
1634.000000	4.730081
1632.000000	4.781882
1630.000000	4.790509
1628.000000	4.767756
1626.000000	4.746458
1624.000000	4.715143
1622.000000	4.689821
1620.000000	4.682148
1618.000000	4.628727
1616.000000	4.574049
1614.000000	4.592032
1612.000000	4.593443
1610.000000	4.558005
1608.000000	4.534917
1606.000000	4.531110
1604.000000	4.539901
1602.000000	4.551982
1600.000000	4.565107
1598.000000	4.575043
1596.000000	4.582775
1594.000000	4.588459
1592.000000	4.593753
1590.000000	4.595037
1588.000000	4.593638
1586.000000	4.590250
1584.000000	4.585924
1582.000000	4.581352
1580.000000	4.576550
1578.000000	4.541589
1576.000000	4.485818
1574.000000	4.512004
1572.000000	4.552455
1570.000000	4.529111
1568.000000	4.522810
1566.000000	4.532496
1564.000000	4.522550
1562.000000	4.477132
1560.000000	4.364379
1558.000000	4.314917
1556.000000	4.393251
1554.000000	4.449845
1552.000000	4.485306
1550.000000	4.509592
1548.000000	4.522309
1546.000000	4.518934
1544.000000	4.494495
1542.000000	4.452983
1540.000000	4.408138
1538.000000	4.449970
1536.000000	4.543856
1534.000000	4.560060
1532.000000	4.567282
1530.000000	4.592722
1528.000000	4.588540
1526.000000	4.567970
1524.000000	4.551759
1522.000000	4.512292
1520.000000	4.499465
1518.000000	4.529767
1516.000000	4.534245
1514.000000	4.536663
1512.000000	4.529116
1510.000000	4.507980
1508.000000	4.438321
1506.000000	4.368481
1504.000000	4.395124
1502.000000	4.405110
1500.000000	4.301982
1498.000000	4.128943
1496.000000	3.968885
1494.000000	3.922873
1492.000000	3.968095
1490.000000	4.045086
1488.000000	4.145474
1486.000000	4.240791
1484.000000	4.309391
1482.000000	4.344002
1480.000000	4.359806
1478.000000	4.360185
1476.000000	4.339782
1474.000000	4.304624
1472.000000	4.280225
1470.000000	4.302276
1468.000000	4.314202
1466.000000	4.282476
1464.000000	4.252823
1462.000000	4.246664
1460.000000	4.208951
1458.000000	4.110150
1456.000000	4.033102
1454.000000	4.034426
1452.000000	4.024460
1450.000000	4.015587
1448.000000	4.046205
1446.000000	4.100689
1444.000000	4.138635
1442.000000	4.149474
1440.000000	4.147249
1438.000000	4.120674
1436.000000	4.100345
1434.000000	4.132291
1432.000000	4.151409
1430.000000	4.146020
1428.000000	4.148081
1426.000000	4.152894
1424.000000	4.145848
1422.000000	4.134139
1420.000000	4.099060
1418.000000	4.082367
1416.000000	4.104771
1414.000000	4.109946
1412.000000	4.094853
1410.000000	4.070811
1408.000000	4.036242
1406.000000	3.990603
1404.000000	3.957082
1402.000000	3.952730
1400.000000	3.958144
1398.000000	3.975019
1396.000000	3.996837
1394.000000	4.012200
1392.000000	4.037325
1390.000000	4.046815
1388.000000	4.029811
1386.000000	4.012579
1384.000000	4.009732
1382.000000	4.014035
1380.000000	4.020870
1378.000000	4.020622
1376.000000	4.012208
1374.000000	4.000727
1372.000000	3.999783
1370.000000	3.999005
1368.000000	3.992297
1366.000000	3.985967
1364.000000	3.973134
1362.000000	3.959234
1360.000000	3.955445
1358.000000	3.953411
1356.000000	3.945426
1354.000000	3.934204
1352.000000	3.925001
1350.000000	3.915106
1348.000000	3.904314
1346.000000	3.892319
1344.000000	3.879257
1342.000000	3.864070
1340.000000	3.848276
1338.000000	3.839397
1336.000000	3.838365
1334.000000	3.837133
1332.000000	3.831567
1330.000000	3.821704
1328.000000	3.810850
1326.000000	3.798735
1324.000000	3.786420
1322.000000	3.771931
1320.000000	3.755887
1318.000000	3.739506
1316.000000	3.724204
1314.000000	3.708752
1312.000000	3.693900
1310.000000	3.679364
1308.000000	3.663679
1306.000000	3.646143
1304.000000	3.629083
1302.000000	3.612251
1300.000000	3.594035
1298.000000	3.575837
1296.000000	3.558065
1294.000000	3.540650
1292.000000	3.521950
1290.000000	3.500670
1288.000000	3.480326
1286.000000	3.460075
1284.000000	3.439131
1282.000000	3.416127
1280.000000	3.391978
1278.000000	3.366722
1276.000000	3.339301
1274.000000	3.307713
1272.000000	3.269534
1270.000000	3.221186
1268.000000	3.158810
1266.000000	3.081150
1264.000000	2.995611
1262.000000	2.919788
1260.000000	2.876429
1258.000000	2.873070
1256.000000	2.895391
1254.000000	2.921959
1252.000000	2.935205
1250.000000	2.929776
1248.000000	2.912837
1246.000000	2.888845
1244.000000	2.860246
1242.000000	2.831884
1240.000000	2.804637
1238.000000	2.777924
1236.000000	2.752150
1234.000000	2.726656
1232.000000	2.702029
1230.000000	2.676270
1228.000000	2.650825
1226.000000	2.626374
1224.000000	2.601429
1222.000000	2.575489
1220.000000	2.549014
1218.000000	2.521184
1216.000000	2.492562
1214.000000	2.464837
1212.000000	2.436982
1210.000000	2.411015
1208.000000	2.389965
1206.000000	2.368710
1204.000000	2.346210
1202.000000	2.323842
1200.000000	2.302446
1198.000000	2.281105
1196.000000	2.259417
1194.000000	2.236193
1192.000000	2.212387
1190.000000	2.188682
1188.000000	2.164831
1186.000000	2.139001
1184.000000	2.109578
1182.000000	2.072764
1180.000000	2.038999
1178.000000	2.022323
1176.000000	2.010968
1174.000000	1.992521
1172.000000	1.969162
1170.000000	1.944349
1168.000000	1.919146
1166.000000	1.892570
1164.000000	1.866352
1162.000000	1.841264
1160.000000	1.817044
1158.000000	1.793706
1156.000000	1.771021
1154.000000	1.748149
1152.000000	1.725870
1150.000000	1.703550
1148.000000	1.681166
1146.000000	1.658126
1144.000000	1.635559
1142.000000	1.614704
1140.000000	1.596416
1138.000000	1.579315
1136.000000	1.561999
1134.000000	1.542029
1132.000000	1.521570
1130.000000	1.499947
1128.000000	1.477287
1126.000000	1.455799
1124.000000	1.433421
1122.000000	1.408964
1120.000000	1.385951
1118.000000	1.362744
1116.000000	1.339241
1114.000000	1.315307
1112.000000	1.291519
1110.000000	1.267041
1108.000000	1.243313
1106.000000	1.220214
1104.000000	1.197222
1102.000000	1.175206
1100.000000	1.153992
1098.000000	1.133018
1096.000000	1.112830
1094.000000	1.093119
1092.000000	1.074400
1090.000000	1.057129
1088.000000	1.041103
1086.000000	1.025084
1084.000000	1.008685
1082.000000	0.991604
1080.000000	0.975585
1078.000000	0.960159
1076.000000	0.946236
1074.000000	0.935631
1072.000000	0.926438
1070.000000	0.916168
1068.000000	0.906433
1066.000000	0.897105
1064.000000	0.886382
1062.000000	0.874258
1060.000000	0.862903
1058.000000	0.851327
1056.000000	0.833488
1054.000000	0.809489
1052.000000	0.785380
1050.000000	0.768929
1048.000000	0.765727
1046.000000	0.769491
1044.000000	0.771597
1042.000000	0.767554
1040.000000	0.759519
1038.000000	0.750372
1036.000000	0.740657
1034.000000	0.728463
1032.000000	0.715614
1030.000000	0.704225
1028.000000	0.692365
1026.000000	0.678430
1024.000000	0.664988
1022.000000	0.652542
1020.000000	0.641021
1018.000000	0.630620
1016.000000	0.621094
1014.000000	0.611270
1012.000000	0.603964
1010.000000	0.597958
1008.000000	0.593556
1006.000000	0.587951
1004.000000	0.579849
1002.000000	0.570771
1000.000000	0.561232
