PE IR       SUBTECH     SPECTRUM    ASCII       PEDS        4.00        
   -1
TE110A_085_150K.ASC
20/05/14
16:15:11.00
20/05/14
16:15:12.00
Administrator
TE110A.Thursday, May 14 2020, 016.
1000.000000
#HDR
-1
-1
#GR
cm-1
A
1.0
0.0
6000.000000
-2.000000
2501
8
1.312466
1.251689
#DATA
6000.000000	1.265833
5998.000000	1.265665
5996.000000	1.265744
5994.000000	1.265775
5992.000000	1.265757
5990.000000	1.265576
5988.000000	1.265530
5986.000000	1.265447
5984.000000	1.265043
5982.000000	1.264738
5980.000000	1.264787
5978.000000	1.265406
5976.000000	1.265837
5974.000000	1.265881
5972.000000	1.265698
5970.000000	1.265434
5968.000000	1.265232
5966.000000	1.265129
5964.000000	1.264835
5962.000000	1.264718
5960.000000	1.265114
5958.000000	1.265590
5956.000000	1.266226
5954.000000	1.265782
5952.000000	1.265322
5950.000000	1.265060
5948.000000	1.265297
5946.000000	1.265570
5944.000000	1.265492
5942.000000	1.264984
5940.000000	1.264350
5938.000000	1.263990
5936.000000	1.264087
5934.000000	1.264579
5932.000000	1.264785
5930.000000	1.264673
5928.000000	1.264575
5926.000000	1.264760
5924.000000	1.265174
5922.000000	1.265593
5920.000000	1.265770
5918.000000	1.265916
5916.000000	1.265970
5914.000000	1.265718
5912.000000	1.265285
5910.000000	1.265232
5908.000000	1.265382
5906.000000	1.265242
5904.000000	1.264789
5902.000000	1.264393
5900.000000	1.265045
5898.000000	1.265650
5896.000000	1.265751
5894.000000	1.265340
5892.000000	1.264721
5890.000000	1.264856
5888.000000	1.265344
5886.000000	1.265603
5884.000000	1.265183
5882.000000	1.264547
5880.000000	1.264245
5878.000000	1.264262
5876.000000	1.264501
5874.000000	1.264783
5872.000000	1.264914
5870.000000	1.264823
5868.000000	1.264597
5866.000000	1.264271
5864.000000	1.264055
5862.000000	1.263888
5860.000000	1.264263
5858.000000	1.264772
5856.000000	1.265248
5854.000000	1.265441
5852.000000	1.265072
5850.000000	1.264925
5848.000000	1.265003
5846.000000	1.265157
5844.000000	1.265060
5842.000000	1.264650
5840.000000	1.264471
5838.000000	1.264451
5836.000000	1.264605
5834.000000	1.265206
5832.000000	1.265647
5830.000000	1.265535
5828.000000	1.264840
5826.000000	1.264610
5824.000000	1.264977
5822.000000	1.265246
5820.000000	1.265078
5818.000000	1.264794
5816.000000	1.265022
5814.000000	1.265434
5812.000000	1.265561
5810.000000	1.265186
5808.000000	1.264878
5806.000000	1.264846
5804.000000	1.265126
5802.000000	1.265561
5800.000000	1.265628
5798.000000	1.265498
5796.000000	1.265291
5794.000000	1.265160
5792.000000	1.265002
5790.000000	1.264788
5788.000000	1.264671
5786.000000	1.264824
5784.000000	1.264808
5782.000000	1.264793
5780.000000	1.265076
5778.000000	1.265688
5776.000000	1.265807
5774.000000	1.265329
5772.000000	1.264720
5770.000000	1.264668
5768.000000	1.264941
5766.000000	1.265051
5764.000000	1.265260
5762.000000	1.265313
5760.000000	1.265337
5758.000000	1.265201
5756.000000	1.265334
5754.000000	1.265246
5752.000000	1.265087
5750.000000	1.264922
5748.000000	1.265115
5746.000000	1.265125
5744.000000	1.264753
5742.000000	1.264396
5740.000000	1.264619
5738.000000	1.264837
5736.000000	1.265079
5734.000000	1.265190
5732.000000	1.265121
5730.000000	1.265131
5728.000000	1.264966
5726.000000	1.264959
5724.000000	1.265186
5722.000000	1.265450
5720.000000	1.265558
5718.000000	1.265477
5716.000000	1.265388
5714.000000	1.265398
5712.000000	1.265396
5710.000000	1.265171
5708.000000	1.265061
5706.000000	1.264924
5704.000000	1.265229
5702.000000	1.265384
5700.000000	1.265213
5698.000000	1.264724
5696.000000	1.264562
5694.000000	1.265016
5692.000000	1.265293
5690.000000	1.265120
5688.000000	1.264947
5686.000000	1.265039
5684.000000	1.265153
5682.000000	1.265104
5680.000000	1.264973
5678.000000	1.265013
5676.000000	1.265013
5674.000000	1.265031
5672.000000	1.265100
5670.000000	1.264959
5668.000000	1.264698
5666.000000	1.264639
5664.000000	1.264502
5662.000000	1.264478
5660.000000	1.264544
5658.000000	1.264813
5656.000000	1.265013
5654.000000	1.264745
5652.000000	1.264501
5650.000000	1.264528
5648.000000	1.264950
5646.000000	1.265327
5644.000000	1.265613
5642.000000	1.265668
5640.000000	1.265608
5638.000000	1.265395
5636.000000	1.265241
5634.000000	1.265250
5632.000000	1.265328
5630.000000	1.265030
5628.000000	1.264839
5626.000000	1.264945
5624.000000	1.265192
5622.000000	1.265245
5620.000000	1.265065
5618.000000	1.265033
5616.000000	1.265008
5614.000000	1.265058
5612.000000	1.265136
5610.000000	1.265376
5608.000000	1.265522
5606.000000	1.265464
5604.000000	1.265277
5602.000000	1.265143
5600.000000	1.265185
5598.000000	1.265277
5596.000000	1.265142
5594.000000	1.264920
5592.000000	1.265075
5590.000000	1.265260
5588.000000	1.265472
5586.000000	1.265393
5584.000000	1.264930
5582.000000	1.264752
5580.000000	1.264776
5578.000000	1.265112
5576.000000	1.265245
5574.000000	1.265147
5572.000000	1.265072
5570.000000	1.264947
5568.000000	1.264956
5566.000000	1.265264
5564.000000	1.265147
5562.000000	1.265045
5560.000000	1.265028
5558.000000	1.265132
5556.000000	1.264825
5554.000000	1.264443
5552.000000	1.264552
5550.000000	1.264680
5548.000000	1.264589
5546.000000	1.264724
5544.000000	1.265175
5542.000000	1.265413
5540.000000	1.265104
5538.000000	1.264816
5536.000000	1.264979
5534.000000	1.265255
5532.000000	1.265201
5530.000000	1.264804
5528.000000	1.264525
5526.000000	1.264727
5524.000000	1.264996
5522.000000	1.265339
5520.000000	1.265308
5518.000000	1.265180
5516.000000	1.264898
5514.000000	1.264825
5512.000000	1.264984
5510.000000	1.264875
5508.000000	1.264587
5506.000000	1.264554
5504.000000	1.264815
5502.000000	1.265087
5500.000000	1.264992
5498.000000	1.264833
5496.000000	1.264858
5494.000000	1.264901
5492.000000	1.264888
5490.000000	1.264794
5488.000000	1.264939
5486.000000	1.265229
5484.000000	1.265166
5482.000000	1.264847
5480.000000	1.264251
5478.000000	1.263721
5476.000000	1.263572
5474.000000	1.263964
5472.000000	1.264398
5470.000000	1.264474
5468.000000	1.264349
5466.000000	1.264246
5464.000000	1.264220
5462.000000	1.264261
5460.000000	1.264541
5458.000000	1.264803
5456.000000	1.264872
5454.000000	1.264477
5452.000000	1.264081
5450.000000	1.263902
5448.000000	1.263789
5446.000000	1.263806
5444.000000	1.264186
5442.000000	1.264921
5440.000000	1.265172
5438.000000	1.264732
5436.000000	1.264453
5434.000000	1.264469
5432.000000	1.264515
5430.000000	1.264520
5428.000000	1.264744
5426.000000	1.265015
5424.000000	1.265018
5422.000000	1.264967
5420.000000	1.264773
5418.000000	1.264083
5416.000000	1.263492
5414.000000	1.263782
5412.000000	1.264732
5410.000000	1.265313
5408.000000	1.265302
5406.000000	1.264986
5404.000000	1.264763
5402.000000	1.264564
5400.000000	1.264276
5398.000000	1.264017
5396.000000	1.264016
5394.000000	1.264247
5392.000000	1.264502
5390.000000	1.264560
5388.000000	1.264498
5386.000000	1.264498
5384.000000	1.264667
5382.000000	1.264673
5380.000000	1.264344
5378.000000	1.264141
5376.000000	1.264490
5374.000000	1.265010
5372.000000	1.265162
5370.000000	1.264858
5368.000000	1.264486
5366.000000	1.264365
5364.000000	1.264485
5362.000000	1.264521
5360.000000	1.264350
5358.000000	1.264090
5356.000000	1.263987
5354.000000	1.264139
5352.000000	1.264312
5350.000000	1.264414
5348.000000	1.264169
5346.000000	1.264006
5344.000000	1.264250
5342.000000	1.264262
5340.000000	1.263980
5338.000000	1.263971
5336.000000	1.264477
5334.000000	1.264615
5332.000000	1.264385
5330.000000	1.264190
5328.000000	1.264255
5326.000000	1.264430
5324.000000	1.264932
5322.000000	1.265349
5320.000000	1.265322
5318.000000	1.265094
5316.000000	1.265023
5314.000000	1.264849
5312.000000	1.264631
5310.000000	1.264313
5308.000000	1.264329
5306.000000	1.264694
5304.000000	1.265117
5302.000000	1.265200
5300.000000	1.265069
5298.000000	1.264986
5296.000000	1.264893
5294.000000	1.264631
5292.000000	1.264310
5290.000000	1.264381
5288.000000	1.264692
5286.000000	1.265127
5284.000000	1.265248
5282.000000	1.265119
5280.000000	1.264973
5278.000000	1.264947
5276.000000	1.264986
5274.000000	1.264881
5272.000000	1.264718
5270.000000	1.264596
5268.000000	1.264426
5266.000000	1.264191
5264.000000	1.264106
5262.000000	1.264367
5260.000000	1.264772
5258.000000	1.264747
5256.000000	1.264485
5254.000000	1.264419
5252.000000	1.264415
5250.000000	1.264211
5248.000000	1.264245
5246.000000	1.264596
5244.000000	1.264815
5242.000000	1.264772
5240.000000	1.264950
5238.000000	1.265227
5236.000000	1.265141
5234.000000	1.264719
5232.000000	1.264407
5230.000000	1.264373
5228.000000	1.264496
5226.000000	1.264597
5224.000000	1.264714
5222.000000	1.264783
5220.000000	1.264778
5218.000000	1.264838
5216.000000	1.265063
5214.000000	1.265282
5212.000000	1.265128
5210.000000	1.264676
5208.000000	1.264366
5206.000000	1.264653
5204.000000	1.265230
5202.000000	1.265492
5200.000000	1.265151
5198.000000	1.264661
5196.000000	1.264664
5194.000000	1.264876
5192.000000	1.264843
5190.000000	1.264704
5188.000000	1.264747
5186.000000	1.264918
5184.000000	1.264952
5182.000000	1.264925
5180.000000	1.264949
5178.000000	1.265049
5176.000000	1.265016
5174.000000	1.264799
5172.000000	1.264811
5170.000000	1.265001
5168.000000	1.264959
5166.000000	1.264774
5164.000000	1.264881
5162.000000	1.265085
5160.000000	1.265181
5158.000000	1.265333
5156.000000	1.265471
5154.000000	1.265266
5152.000000	1.265148
5150.000000	1.265297
5148.000000	1.265422
5146.000000	1.265223
5144.000000	1.265051
5142.000000	1.265105
5140.000000	1.265226
5138.000000	1.265300
5136.000000	1.265288
5134.000000	1.265289
5132.000000	1.265339
5130.000000	1.265469
5128.000000	1.265453
5126.000000	1.265370
5124.000000	1.265390
5122.000000	1.265452
5120.000000	1.265296
5118.000000	1.265082
5116.000000	1.265030
5114.000000	1.265115
5112.000000	1.265157
5110.000000	1.265221
5108.000000	1.265295
5106.000000	1.265408
5104.000000	1.265455
5102.000000	1.265337
5100.000000	1.265096
5098.000000	1.264976
5096.000000	1.264985
5094.000000	1.265172
5092.000000	1.265450
5090.000000	1.265673
5088.000000	1.265747
5086.000000	1.265655
5084.000000	1.265519
5082.000000	1.265406
5080.000000	1.265458
5078.000000	1.265662
5076.000000	1.265740
5074.000000	1.265664
5072.000000	1.265581
5070.000000	1.265546
5068.000000	1.265455
5066.000000	1.265374
5064.000000	1.265463
5062.000000	1.265614
5060.000000	1.265620
5058.000000	1.265477
5056.000000	1.265335
5054.000000	1.265377
5052.000000	1.265617
5050.000000	1.265918
5048.000000	1.265895
5046.000000	1.265666
5044.000000	1.265596
5042.000000	1.265934
5040.000000	1.266097
5038.000000	1.265912
5036.000000	1.265756
5034.000000	1.265920
5032.000000	1.266039
5030.000000	1.265928
5028.000000	1.265792
5026.000000	1.265793
5024.000000	1.265801
5022.000000	1.265801
5020.000000	1.265775
5018.000000	1.265748
5016.000000	1.265780
5014.000000	1.265955
5012.000000	1.266174
5010.000000	1.266198
5008.000000	1.266167
5006.000000	1.266317
5004.000000	1.266392
5002.000000	1.266142
5000.000000	1.265761
4998.000000	1.265605
4996.000000	1.265679
4994.000000	1.265734
4992.000000	1.265605
4990.000000	1.265606
4988.000000	1.265929
4986.000000	1.266119
4984.000000	1.266035
4982.000000	1.265942
4980.000000	1.265885
4978.000000	1.265762
4976.000000	1.265696
4974.000000	1.265873
4972.000000	1.266114
4970.000000	1.266239
4968.000000	1.266222
4966.000000	1.266358
4964.000000	1.266506
4962.000000	1.266480
4960.000000	1.266335
4958.000000	1.266355
4956.000000	1.266435
4954.000000	1.266249
4952.000000	1.266068
4950.000000	1.266191
4948.000000	1.266327
4946.000000	1.266167
4944.000000	1.266112
4942.000000	1.266343
4940.000000	1.266508
4938.000000	1.266459
4936.000000	1.266374
4934.000000	1.266366
4932.000000	1.266428
4930.000000	1.266515
4928.000000	1.266610
4926.000000	1.266680
4924.000000	1.266548
4922.000000	1.266339
4920.000000	1.266216
4918.000000	1.266287
4916.000000	1.266549
4914.000000	1.266783
4912.000000	1.266726
4910.000000	1.266532
4908.000000	1.266546
4906.000000	1.266713
4904.000000	1.266639
4902.000000	1.266472
4900.000000	1.266420
4898.000000	1.266521
4896.000000	1.266541
4894.000000	1.266434
4892.000000	1.266452
4890.000000	1.266618
4888.000000	1.266783
4886.000000	1.266871
4884.000000	1.266937
4882.000000	1.266893
4880.000000	1.266705
4878.000000	1.266597
4876.000000	1.266532
4874.000000	1.266439
4872.000000	1.266461
4870.000000	1.266638
4868.000000	1.266795
4866.000000	1.266742
4864.000000	1.266721
4862.000000	1.266828
4860.000000	1.267029
4858.000000	1.267062
4856.000000	1.266956
4854.000000	1.267072
4852.000000	1.267384
4850.000000	1.267461
4848.000000	1.267194
4846.000000	1.267040
4844.000000	1.266981
4842.000000	1.266849
4840.000000	1.266882
4838.000000	1.267109
4836.000000	1.267131
4834.000000	1.266878
4832.000000	1.266824
4830.000000	1.266955
4828.000000	1.267024
4826.000000	1.267057
4824.000000	1.267094
4822.000000	1.267056
4820.000000	1.267007
4818.000000	1.267106
4816.000000	1.267192
4814.000000	1.267120
4812.000000	1.267020
4810.000000	1.267011
4808.000000	1.267070
4806.000000	1.267117
4804.000000	1.267256
4802.000000	1.267376
4800.000000	1.267270
4798.000000	1.267092
4796.000000	1.267094
4794.000000	1.267250
4792.000000	1.267380
4790.000000	1.267419
4788.000000	1.267288
4786.000000	1.267113
4784.000000	1.267084
4782.000000	1.267161
4780.000000	1.267180
4778.000000	1.267138
4776.000000	1.267150
4774.000000	1.267264
4772.000000	1.267363
4770.000000	1.267395
4768.000000	1.267534
4766.000000	1.267684
4764.000000	1.267601
4762.000000	1.267425
4760.000000	1.267370
4758.000000	1.267389
4756.000000	1.267405
4754.000000	1.267400
4752.000000	1.267367
4750.000000	1.267363
4748.000000	1.267481
4746.000000	1.267528
4744.000000	1.267497
4742.000000	1.267316
4740.000000	1.267109
4738.000000	1.267137
4736.000000	1.267481
4734.000000	1.267715
4732.000000	1.267546
4730.000000	1.267265
4728.000000	1.267162
4726.000000	1.267199
4724.000000	1.267177
4722.000000	1.267190
4720.000000	1.267294
4718.000000	1.267363
4716.000000	1.267330
4714.000000	1.267329
4712.000000	1.267342
4710.000000	1.267314
4708.000000	1.267402
4706.000000	1.267585
4704.000000	1.267627
4702.000000	1.267486
4700.000000	1.267384
4698.000000	1.267438
4696.000000	1.267550
4694.000000	1.267575
4692.000000	1.267455
4690.000000	1.267337
4688.000000	1.267305
4686.000000	1.267338
4684.000000	1.267400
4682.000000	1.267481
4680.000000	1.267469
4678.000000	1.267461
4676.000000	1.267471
4674.000000	1.267503
4672.000000	1.267536
4670.000000	1.267550
4668.000000	1.267451
4666.000000	1.267395
4664.000000	1.267452
4662.000000	1.267523
4660.000000	1.267598
4658.000000	1.267673
4656.000000	1.267684
4654.000000	1.267684
4652.000000	1.267733
4650.000000	1.267743
4648.000000	1.267799
4646.000000	1.267891
4644.000000	1.267855
4642.000000	1.267636
4640.000000	1.267549
4638.000000	1.267647
4636.000000	1.267814
4634.000000	1.267858
4632.000000	1.267829
4630.000000	1.267777
4628.000000	1.267675
4626.000000	1.267763
4624.000000	1.267948
4622.000000	1.267894
4620.000000	1.267762
4618.000000	1.267754
4616.000000	1.267630
4614.000000	1.267480
4612.000000	1.267479
4610.000000	1.267598
4608.000000	1.267866
4606.000000	1.268044
4604.000000	1.267944
4602.000000	1.267765
4600.000000	1.267689
4598.000000	1.267816
4596.000000	1.268090
4594.000000	1.268183
4592.000000	1.268010
4590.000000	1.267831
4588.000000	1.267831
4586.000000	1.267947
4584.000000	1.267988
4582.000000	1.267921
4580.000000	1.268077
4578.000000	1.268401
4576.000000	1.268495
4574.000000	1.268282
4572.000000	1.268055
4570.000000	1.268022
4568.000000	1.268160
4566.000000	1.268254
4564.000000	1.268247
4562.000000	1.268197
4560.000000	1.268138
4558.000000	1.268072
4556.000000	1.268017
4554.000000	1.268012
4552.000000	1.268085
4550.000000	1.268145
4548.000000	1.268230
4546.000000	1.268317
4544.000000	1.268427
4542.000000	1.268529
4540.000000	1.268366
4538.000000	1.268118
4536.000000	1.268173
4534.000000	1.268312
4532.000000	1.268274
4530.000000	1.268221
4528.000000	1.268233
4526.000000	1.268234
4524.000000	1.268210
4522.000000	1.268216
4520.000000	1.268246
4518.000000	1.268159
4516.000000	1.268052
4514.000000	1.268072
4512.000000	1.268231
4510.000000	1.268376
4508.000000	1.268288
4506.000000	1.268058
4504.000000	1.268000
4502.000000	1.268124
4500.000000	1.268161
4498.000000	1.268045
4496.000000	1.268057
4494.000000	1.268281
4492.000000	1.268330
4490.000000	1.268179
4488.000000	1.268157
4486.000000	1.268340
4484.000000	1.268451
4482.000000	1.268397
4480.000000	1.268347
4478.000000	1.268443
4476.000000	1.268512
4474.000000	1.268523
4472.000000	1.268459
4470.000000	1.268401
4468.000000	1.268507
4466.000000	1.268519
4464.000000	1.268387
4462.000000	1.268432
4460.000000	1.268520
4458.000000	1.268431
4456.000000	1.268467
4454.000000	1.268554
4452.000000	1.268416
4450.000000	1.268296
4448.000000	1.268406
4446.000000	1.268491
4444.000000	1.268523
4442.000000	1.268605
4440.000000	1.268556
4438.000000	1.268462
4436.000000	1.268467
4434.000000	1.268450
4432.000000	1.268451
4430.000000	1.268533
4428.000000	1.268504
4426.000000	1.268420
4424.000000	1.268409
4422.000000	1.268413
4420.000000	1.268387
4418.000000	1.268448
4416.000000	1.268549
4414.000000	1.268564
4412.000000	1.268567
4410.000000	1.268677
4408.000000	1.268681
4406.000000	1.268585
4404.000000	1.268536
4402.000000	1.268531
4400.000000	1.268511
4398.000000	1.268544
4396.000000	1.268644
4394.000000	1.268651
4392.000000	1.268546
4390.000000	1.268567
4388.000000	1.268700
4386.000000	1.268789
4384.000000	1.268738
4382.000000	1.268615
4380.000000	1.268610
4378.000000	1.268732
4376.000000	1.268729
4374.000000	1.268690
4372.000000	1.268714
4370.000000	1.268813
4368.000000	1.269023
4366.000000	1.269168
4364.000000	1.269049
4362.000000	1.268929
4360.000000	1.268873
4358.000000	1.268676
4356.000000	1.268481
4354.000000	1.268481
4352.000000	1.268521
4350.000000	1.268504
4348.000000	1.268507
4346.000000	1.268591
4344.000000	1.268625
4342.000000	1.268645
4340.000000	1.268737
4338.000000	1.268736
4336.000000	1.268500
4334.000000	1.268333
4332.000000	1.268548
4330.000000	1.268807
4328.000000	1.268780
4326.000000	1.268724
4324.000000	1.268655
4322.000000	1.268518
4320.000000	1.268526
4318.000000	1.268585
4316.000000	1.268538
4314.000000	1.268517
4312.000000	1.268534
4310.000000	1.268549
4308.000000	1.268605
4306.000000	1.268691
4304.000000	1.268696
4302.000000	1.268583
4300.000000	1.268458
4298.000000	1.268434
4296.000000	1.268427
4294.000000	1.268435
4292.000000	1.268677
4290.000000	1.268964
4288.000000	1.268973
4286.000000	1.268840
4284.000000	1.268761
4282.000000	1.268800
4280.000000	1.268794
4278.000000	1.268665
4276.000000	1.268557
4274.000000	1.268518
4272.000000	1.268494
4270.000000	1.268586
4268.000000	1.268701
4266.000000	1.268746
4264.000000	1.268748
4262.000000	1.268669
4260.000000	1.268533
4258.000000	1.268488
4256.000000	1.268555
4254.000000	1.268649
4252.000000	1.268612
4250.000000	1.268491
4248.000000	1.268453
4246.000000	1.268365
4244.000000	1.268293
4242.000000	1.268389
4240.000000	1.268501
4238.000000	1.268513
4236.000000	1.268561
4234.000000	1.268547
4232.000000	1.268395
4230.000000	1.268364
4228.000000	1.268475
4226.000000	1.268533
4224.000000	1.268573
4222.000000	1.268623
4220.000000	1.268606
4218.000000	1.268462
4216.000000	1.268295
4214.000000	1.268300
4212.000000	1.268340
4210.000000	1.268320
4208.000000	1.268298
4206.000000	1.268346
4204.000000	1.268419
4202.000000	1.268477
4200.000000	1.268526
4198.000000	1.268465
4196.000000	1.268345
4194.000000	1.268384
4192.000000	1.268419
4190.000000	1.268385
4188.000000	1.268449
4186.000000	1.268531
4184.000000	1.268520
4182.000000	1.268436
4180.000000	1.268316
4178.000000	1.268226
4176.000000	1.268201
4174.000000	1.268246
4172.000000	1.268286
4170.000000	1.268309
4168.000000	1.268392
4166.000000	1.268435
4164.000000	1.268334
4162.000000	1.268263
4160.000000	1.268262
4158.000000	1.268232
4156.000000	1.268147
4154.000000	1.268101
4152.000000	1.268186
4150.000000	1.268326
4148.000000	1.268353
4146.000000	1.268322
4144.000000	1.268331
4142.000000	1.268303
4140.000000	1.268181
4138.000000	1.268101
4136.000000	1.268089
4134.000000	1.268092
4132.000000	1.268023
4130.000000	1.267900
4128.000000	1.267888
4126.000000	1.267952
4124.000000	1.267948
4122.000000	1.267953
4120.000000	1.267942
4118.000000	1.267863
4116.000000	1.267837
4114.000000	1.267862
4112.000000	1.267805
4110.000000	1.267712
4108.000000	1.267675
4106.000000	1.267736
4104.000000	1.267865
4102.000000	1.268035
4100.000000	1.268130
4098.000000	1.268048
4096.000000	1.267862
4094.000000	1.267715
4092.000000	1.267650
4090.000000	1.267672
4088.000000	1.267657
4086.000000	1.267589
4084.000000	1.267631
4082.000000	1.267727
4080.000000	1.267759
4078.000000	1.267840
4076.000000	1.267798
4074.000000	1.267629
4072.000000	1.267600
4070.000000	1.267643
4068.000000	1.267688
4066.000000	1.267765
4064.000000	1.267735
4062.000000	1.267619
4060.000000	1.267508
4058.000000	1.267382
4056.000000	1.267243
4054.000000	1.267264
4052.000000	1.267380
4050.000000	1.267302
4048.000000	1.267100
4046.000000	1.267039
4044.000000	1.267097
4042.000000	1.267157
4040.000000	1.267157
4038.000000	1.267119
4036.000000	1.267110
4034.000000	1.267172
4032.000000	1.267205
4030.000000	1.267196
4028.000000	1.267129
4026.000000	1.267064
4024.000000	1.267106
4022.000000	1.267150
4020.000000	1.267060
4018.000000	1.266948
4016.000000	1.266866
4014.000000	1.266768
4012.000000	1.266676
4010.000000	1.266675
4008.000000	1.266738
4006.000000	1.266848
4004.000000	1.266906
4002.000000	1.266876
4000.000000	1.266830
3998.000000	1.266794
3996.000000	1.266767
3994.000000	1.266779
3992.000000	1.266827
3990.000000	1.266919
3988.000000	1.266872
3986.000000	1.266708
3984.000000	1.266614
3982.000000	1.266583
3980.000000	1.266558
3978.000000	1.266478
3976.000000	1.266441
3974.000000	1.266600
3972.000000	1.266680
3970.000000	1.266569
3968.000000	1.266492
3966.000000	1.266435
3964.000000	1.266240
3962.000000	1.266109
3960.000000	1.266153
3958.000000	1.266179
3956.000000	1.266074
3954.000000	1.265924
3952.000000	1.265709
3950.000000	1.265498
3948.000000	1.265580
3946.000000	1.265738
3944.000000	1.265697
3942.000000	1.265955
3940.000000	1.266265
3938.000000	1.266088
3936.000000	1.265504
3934.000000	1.264923
3932.000000	1.265137
3930.000000	1.265823
3928.000000	1.265796
3926.000000	1.265390
3924.000000	1.265395
3922.000000	1.265243
3920.000000	1.264535
3918.000000	1.264397
3916.000000	1.265333
3914.000000	1.266024
3912.000000	1.265824
3910.000000	1.265339
3908.000000	1.264106
3906.000000	1.262165
3904.000000	1.261502
3902.000000	1.262524
3900.000000	1.264075
3898.000000	1.265571
3896.000000	1.265554
3894.000000	1.263607
3892.000000	1.262848
3890.000000	1.263983
3888.000000	1.263261
3886.000000	1.262580
3884.000000	1.264132
3882.000000	1.264215
3880.000000	1.264082
3878.000000	1.264798
3876.000000	1.263892
3874.000000	1.262375
3872.000000	1.260791
3870.000000	1.261183
3868.000000	1.263374
3866.000000	1.263190
3864.000000	1.262874
3862.000000	1.264347
3860.000000	1.264749
3858.000000	1.260965
3856.000000	1.253581
3854.000000	1.253038
3852.000000	1.262119
3850.000000	1.267728
3848.000000	1.266213
3846.000000	1.263678
3844.000000	1.262382
3842.000000	1.260980
3840.000000	1.258464
3838.000000	1.258848
3836.000000	1.262674
3834.000000	1.264182
3832.000000	1.263837
3830.000000	1.264075
3828.000000	1.263705
3826.000000	1.262794
3824.000000	1.260655
3822.000000	1.259454
3820.000000	1.260931
3818.000000	1.260265
3816.000000	1.260699
3814.000000	1.264842
3812.000000	1.265363
3810.000000	1.261883
3808.000000	1.259920
3806.000000	1.261120
3804.000000	1.260095
3802.000000	1.258743
3800.000000	1.262271
3798.000000	1.264300
3796.000000	1.263810
3794.000000	1.264212
3792.000000	1.264109
3790.000000	1.263686
3788.000000	1.263455
3786.000000	1.263382
3784.000000	1.263465
3782.000000	1.262922
3780.000000	1.262569
3778.000000	1.263455
3776.000000	1.263908
3774.000000	1.263001
3772.000000	1.261523
3770.000000	1.261403
3768.000000	1.262543
3766.000000	1.263050
3764.000000	1.263037
3762.000000	1.262076
3760.000000	1.261291
3758.000000	1.261871
3756.000000	1.260449
3754.000000	1.255769
3752.000000	1.253561
3750.000000	1.256881
3748.000000	1.258211
3746.000000	1.254635
3744.000000	1.257383
3742.000000	1.263852
3740.000000	1.262077
3738.000000	1.257458
3736.000000	1.257062
3734.000000	1.259009
3732.000000	1.261117
3730.000000	1.262423
3728.000000	1.261362
3726.000000	1.260506
3724.000000	1.261096
3722.000000	1.261622
3720.000000	1.261964
3718.000000	1.261858
3716.000000	1.260378
3714.000000	1.257603
3712.000000	1.257318
3710.000000	1.260343
3708.000000	1.262512
3706.000000	1.262270
3704.000000	1.260859
3702.000000	1.260535
3700.000000	1.261595
3698.000000	1.261855
3696.000000	1.261186
3694.000000	1.259679
3692.000000	1.256814
3690.000000	1.255056
3688.000000	1.258244
3686.000000	1.262402
3684.000000	1.262143
3682.000000	1.260368
3680.000000	1.258282
3678.000000	1.254468
3676.000000	1.253809
3674.000000	1.257051
3672.000000	1.256592
3670.000000	1.256802
3668.000000	1.260637
3666.000000	1.261628
3664.000000	1.260428
3662.000000	1.259783
3660.000000	1.258773
3658.000000	1.257066
3656.000000	1.257418
3654.000000	1.257720
3652.000000	1.254057
3650.000000	1.252353
3648.000000	1.256342
3646.000000	1.259962
3644.000000	1.259970
3642.000000	1.258899
3640.000000	1.258467
3638.000000	1.258301
3636.000000	1.257842
3634.000000	1.256731
3632.000000	1.253782
3630.000000	1.251689
3628.000000	1.255424
3626.000000	1.259279
3624.000000	1.258144
3622.000000	1.255409
3620.000000	1.254474
3618.000000	1.255968
3616.000000	1.256486
3614.000000	1.255402
3612.000000	1.254832
3610.000000	1.254787
3608.000000	1.255879
3606.000000	1.257174
3604.000000	1.256948
3602.000000	1.256250
3600.000000	1.256091
3598.000000	1.255963
3596.000000	1.255704
3594.000000	1.255925
3592.000000	1.255596
3590.000000	1.254064
3588.000000	1.253860
3586.000000	1.255585
3584.000000	1.256436
3582.000000	1.256006
3580.000000	1.255777
3578.000000	1.255915
3576.000000	1.255924
3574.000000	1.255801
3572.000000	1.255192
3570.000000	1.253792
3568.000000	1.253344
3566.000000	1.254871
3564.000000	1.256027
3562.000000	1.255830
3560.000000	1.255614
3558.000000	1.255746
3556.000000	1.255698
3554.000000	1.255520
3552.000000	1.255619
3550.000000	1.255542
3548.000000	1.255027
3546.000000	1.255053
3544.000000	1.255708
3542.000000	1.256135
3540.000000	1.256074
3538.000000	1.255851
3536.000000	1.255951
3534.000000	1.256263
3532.000000	1.256174
3530.000000	1.255889
3528.000000	1.255870
3526.000000	1.256054
3524.000000	1.256329
3522.000000	1.256800
3520.000000	1.257150
3518.000000	1.257296
3516.000000	1.257404
3514.000000	1.257269
3512.000000	1.257083
3510.000000	1.257265
3508.000000	1.257674
3506.000000	1.257799
3504.000000	1.257800
3502.000000	1.258216
3500.000000	1.258607
3498.000000	1.258649
3496.000000	1.258794
3494.000000	1.259111
3492.000000	1.259258
3490.000000	1.259334
3488.000000	1.259622
3486.000000	1.259945
3484.000000	1.260045
3482.000000	1.260228
3480.000000	1.260646
3478.000000	1.261051
3476.000000	1.261287
3474.000000	1.261533
3472.000000	1.261805
3470.000000	1.262045
3468.000000	1.262388
3466.000000	1.262836
3464.000000	1.263185
3462.000000	1.263522
3460.000000	1.263960
3458.000000	1.264371
3456.000000	1.264690
3454.000000	1.264946
3452.000000	1.265224
3450.000000	1.265503
3448.000000	1.265802
3446.000000	1.266332
3444.000000	1.266825
3442.000000	1.267269
3440.000000	1.267820
3438.000000	1.268151
3436.000000	1.268458
3434.000000	1.269002
3432.000000	1.269557
3430.000000	1.269973
3428.000000	1.270313
3426.000000	1.270682
3424.000000	1.270954
3422.000000	1.271157
3420.000000	1.271579
3418.000000	1.272103
3416.000000	1.272403
3414.000000	1.272542
3412.000000	1.272671
3410.000000	1.272938
3408.000000	1.273202
3406.000000	1.273372
3404.000000	1.273552
3402.000000	1.273640
3400.000000	1.273799
3398.000000	1.274153
3396.000000	1.274418
3394.000000	1.274495
3392.000000	1.274611
3390.000000	1.274860
3388.000000	1.275067
3386.000000	1.275244
3384.000000	1.275398
3382.000000	1.275503
3380.000000	1.275591
3378.000000	1.275661
3376.000000	1.275764
3374.000000	1.275912
3372.000000	1.275917
3370.000000	1.275863
3368.000000	1.275912
3366.000000	1.276046
3364.000000	1.276232
3362.000000	1.276351
3360.000000	1.276445
3358.000000	1.276577
3356.000000	1.276677
3354.000000	1.276778
3352.000000	1.276902
3350.000000	1.276962
3348.000000	1.277001
3346.000000	1.277167
3344.000000	1.277237
3342.000000	1.277168
3340.000000	1.277079
3338.000000	1.277114
3336.000000	1.277273
3334.000000	1.277400
3332.000000	1.277584
3330.000000	1.277718
3328.000000	1.277720
3326.000000	1.277762
3324.000000	1.277938
3322.000000	1.278112
3320.000000	1.278281
3318.000000	1.278459
3316.000000	1.278520
3314.000000	1.278421
3312.000000	1.278344
3310.000000	1.278398
3308.000000	1.278460
3306.000000	1.278576
3304.000000	1.278740
3302.000000	1.278813
3300.000000	1.278892
3298.000000	1.278968
3296.000000	1.278930
3294.000000	1.278893
3292.000000	1.278990
3290.000000	1.279134
3288.000000	1.279259
3286.000000	1.279345
3284.000000	1.279378
3282.000000	1.279448
3280.000000	1.279558
3278.000000	1.279567
3276.000000	1.279585
3274.000000	1.279698
3272.000000	1.279828
3270.000000	1.279912
3268.000000	1.279964
3266.000000	1.279962
3264.000000	1.279894
3262.000000	1.279903
3260.000000	1.280012
3258.000000	1.280114
3256.000000	1.280213
3254.000000	1.280335
3252.000000	1.280444
3250.000000	1.280473
3248.000000	1.280367
3246.000000	1.280384
3244.000000	1.280638
3242.000000	1.280799
3240.000000	1.280796
3238.000000	1.280743
3236.000000	1.280766
3234.000000	1.280861
3232.000000	1.280921
3230.000000	1.281029
3228.000000	1.281185
3226.000000	1.281275
3224.000000	1.281254
3222.000000	1.281272
3220.000000	1.281402
3218.000000	1.281503
3216.000000	1.281473
3214.000000	1.281394
3212.000000	1.281405
3210.000000	1.281442
3208.000000	1.281442
3206.000000	1.281577
3204.000000	1.281727
3202.000000	1.281717
3200.000000	1.281738
3198.000000	1.281810
3196.000000	1.281841
3194.000000	1.281838
3192.000000	1.281902
3190.000000	1.281971
3188.000000	1.282028
3186.000000	1.282024
3184.000000	1.281929
3182.000000	1.281989
3180.000000	1.282054
3178.000000	1.282051
3176.000000	1.282189
3174.000000	1.282277
3172.000000	1.282270
3170.000000	1.282368
3168.000000	1.282486
3166.000000	1.282482
3164.000000	1.282470
3162.000000	1.282527
3160.000000	1.282616
3158.000000	1.282767
3156.000000	1.282826
3154.000000	1.282751
3152.000000	1.282804
3150.000000	1.282931
3148.000000	1.283021
3146.000000	1.283190
3144.000000	1.283315
3142.000000	1.283355
3140.000000	1.283289
3138.000000	1.283273
3136.000000	1.283420
3134.000000	1.283539
3132.000000	1.283708
3130.000000	1.283848
3128.000000	1.283845
3126.000000	1.283756
3124.000000	1.283599
3122.000000	1.283446
3120.000000	1.283478
3118.000000	1.283673
3116.000000	1.283886
3114.000000	1.283969
3112.000000	1.283929
3110.000000	1.283909
3108.000000	1.283955
3106.000000	1.283941
3104.000000	1.283968
3102.000000	1.284045
3100.000000	1.284061
3098.000000	1.284085
3096.000000	1.284087
3094.000000	1.284056
3092.000000	1.283993
3090.000000	1.283903
3088.000000	1.283846
3086.000000	1.283882
3084.000000	1.283870
3082.000000	1.283788
3080.000000	1.283688
3078.000000	1.283646
3076.000000	1.283731
3074.000000	1.283683
3072.000000	1.283646
3070.000000	1.283564
3068.000000	1.283431
3066.000000	1.283417
3064.000000	1.283431
3062.000000	1.283466
3060.000000	1.283505
3058.000000	1.283528
3056.000000	1.283578
3054.000000	1.283588
3052.000000	1.283477
3050.000000	1.283366
3048.000000	1.283397
3046.000000	1.283378
3044.000000	1.283217
3042.000000	1.283203
3040.000000	1.283266
3038.000000	1.283229
3036.000000	1.283230
3034.000000	1.283245
3032.000000	1.283162
3030.000000	1.283041
3028.000000	1.282829
3026.000000	1.282701
3024.000000	1.282732
3022.000000	1.282803
3020.000000	1.282890
3018.000000	1.283120
3016.000000	1.283441
3014.000000	1.283652
3012.000000	1.283737
3010.000000	1.283681
3008.000000	1.283517
3006.000000	1.283374
3004.000000	1.283262
3002.000000	1.283129
3000.000000	1.283008
2998.000000	1.282929
2996.000000	1.282918
2994.000000	1.282849
2992.000000	1.282705
2990.000000	1.282583
2988.000000	1.282542
2986.000000	1.282532
2984.000000	1.282469
2982.000000	1.282376
2980.000000	1.282403
2978.000000	1.282408
2976.000000	1.282316
2974.000000	1.282277
2972.000000	1.282219
2970.000000	1.282198
2968.000000	1.282479
2966.000000	1.283169
2964.000000	1.284045
2962.000000	1.284742
2960.000000	1.285050
2958.000000	1.284982
2956.000000	1.284661
2954.000000	1.284204
2952.000000	1.283615
2950.000000	1.283026
2948.000000	1.282602
2946.000000	1.282126
2944.000000	1.281651
2942.000000	1.281267
2940.000000	1.281019
2938.000000	1.280955
2936.000000	1.281036
2934.000000	1.281112
2932.000000	1.281088
2930.000000	1.281148
2928.000000	1.281403
2926.000000	1.281998
2924.000000	1.283022
2922.000000	1.284037
2920.000000	1.284710
2918.000000	1.284978
2916.000000	1.284900
2914.000000	1.284632
2912.000000	1.284281
2910.000000	1.283862
2908.000000	1.283474
2906.000000	1.283281
2904.000000	1.283200
2902.000000	1.283030
2900.000000	1.282751
2898.000000	1.282550
2896.000000	1.282555
2894.000000	1.282550
2892.000000	1.282401
2890.000000	1.282272
2888.000000	1.282183
2886.000000	1.282062
2884.000000	1.281833
2882.000000	1.281598
2880.000000	1.281437
2878.000000	1.281309
2876.000000	1.281197
2874.000000	1.280934
2872.000000	1.280574
2870.000000	1.280200
2868.000000	1.279823
2866.000000	1.279563
2864.000000	1.279728
2862.000000	1.280396
2860.000000	1.281200
2858.000000	1.281741
2856.000000	1.281976
2854.000000	1.282101
2852.000000	1.282290
2850.000000	1.282647
2848.000000	1.282973
2846.000000	1.282971
2844.000000	1.282553
2842.000000	1.282134
2840.000000	1.281899
2838.000000	1.281749
2836.000000	1.281603
2834.000000	1.281493
2832.000000	1.281463
2830.000000	1.281349
2828.000000	1.281222
2826.000000	1.281196
2824.000000	1.281215
2822.000000	1.281169
2820.000000	1.281035
2818.000000	1.280991
2816.000000	1.281020
2814.000000	1.280969
2812.000000	1.280919
2810.000000	1.280907
2808.000000	1.280842
2806.000000	1.280752
2804.000000	1.280728
2802.000000	1.280720
2800.000000	1.280693
2798.000000	1.280665
2796.000000	1.280662
2794.000000	1.280673
2792.000000	1.280701
2790.000000	1.280646
2788.000000	1.280623
2786.000000	1.280672
2784.000000	1.280657
2782.000000	1.280576
2780.000000	1.280507
2778.000000	1.280550
2776.000000	1.280594
2774.000000	1.280519
2772.000000	1.280431
2770.000000	1.280418
2768.000000	1.280407
2766.000000	1.280425
2764.000000	1.280444
2762.000000	1.280395
2760.000000	1.280342
2758.000000	1.280400
2756.000000	1.280503
2754.000000	1.280502
2752.000000	1.280495
2750.000000	1.280439
2748.000000	1.280370
2746.000000	1.280411
2744.000000	1.280465
2742.000000	1.280474
2740.000000	1.280482
2738.000000	1.280439
2736.000000	1.280443
2734.000000	1.280531
2732.000000	1.280579
2730.000000	1.280542
2728.000000	1.280534
2726.000000	1.280594
2724.000000	1.280665
2722.000000	1.280707
2720.000000	1.280831
2718.000000	1.280859
2716.000000	1.280792
2714.000000	1.280878
2712.000000	1.281047
2710.000000	1.281118
2708.000000	1.281167
2706.000000	1.281279
2704.000000	1.281345
2702.000000	1.281385
2700.000000	1.281413
2698.000000	1.281487
2696.000000	1.281718
2694.000000	1.281935
2692.000000	1.282027
2690.000000	1.282066
2688.000000	1.282108
2686.000000	1.282188
2684.000000	1.282304
2682.000000	1.282330
2680.000000	1.282336
2678.000000	1.282430
2676.000000	1.282556
2674.000000	1.282643
2672.000000	1.282737
2670.000000	1.282829
2668.000000	1.282918
2666.000000	1.283001
2664.000000	1.283018
2662.000000	1.283051
2660.000000	1.283172
2658.000000	1.283226
2656.000000	1.283322
2654.000000	1.283483
2652.000000	1.283563
2650.000000	1.283619
2648.000000	1.283722
2646.000000	1.283826
2644.000000	1.283884
2642.000000	1.283914
2640.000000	1.283962
2638.000000	1.283999
2636.000000	1.284079
2634.000000	1.284121
2632.000000	1.284144
2630.000000	1.284151
2628.000000	1.284120
2626.000000	1.284140
2624.000000	1.284214
2622.000000	1.284226
2620.000000	1.284237
2618.000000	1.284244
2616.000000	1.284319
2614.000000	1.284464
2612.000000	1.284562
2610.000000	1.284632
2608.000000	1.284663
2606.000000	1.284527
2604.000000	1.284481
2602.000000	1.284529
2600.000000	1.284508
2598.000000	1.284492
2596.000000	1.284523
2594.000000	1.284635
2592.000000	1.284773
2590.000000	1.284813
2588.000000	1.284835
2586.000000	1.284843
2584.000000	1.284939
2582.000000	1.285085
2580.000000	1.285135
2578.000000	1.285154
2576.000000	1.285140
2574.000000	1.285116
2572.000000	1.285120
2570.000000	1.285067
2568.000000	1.285071
2566.000000	1.285082
2564.000000	1.285117
2562.000000	1.285141
2560.000000	1.285251
2558.000000	1.285318
2556.000000	1.285322
2554.000000	1.285305
2552.000000	1.285324
2550.000000	1.285377
2548.000000	1.285358
2546.000000	1.285272
2544.000000	1.285267
2542.000000	1.285277
2540.000000	1.285243
2538.000000	1.285226
2536.000000	1.285268
2534.000000	1.285271
2532.000000	1.285232
2530.000000	1.285236
2528.000000	1.285267
2526.000000	1.285322
2524.000000	1.285337
2522.000000	1.285276
2520.000000	1.285250
2518.000000	1.285324
2516.000000	1.285400
2514.000000	1.285414
2512.000000	1.285389
2510.000000	1.285388
2508.000000	1.285401
2506.000000	1.285350
2504.000000	1.285259
2502.000000	1.285244
2500.000000	1.285344
2498.000000	1.285435
2496.000000	1.285442
2494.000000	1.285367
2492.000000	1.285391
2490.000000	1.285415
2488.000000	1.285313
2486.000000	1.285236
2484.000000	1.285324
2482.000000	1.285384
2480.000000	1.285342
2478.000000	1.285307
2476.000000	1.285388
2474.000000	1.285429
2472.000000	1.285433
2470.000000	1.285428
2468.000000	1.285445
2466.000000	1.285442
2464.000000	1.285537
2462.000000	1.285689
2460.000000	1.285661
2458.000000	1.285568
2456.000000	1.285570
2454.000000	1.285636
2452.000000	1.285700
2450.000000	1.285706
2448.000000	1.285637
2446.000000	1.285543
2444.000000	1.285545
2442.000000	1.285628
2440.000000	1.285710
2438.000000	1.285624
2436.000000	1.285578
2434.000000	1.285664
2432.000000	1.285796
2430.000000	1.285917
2428.000000	1.285973
2426.000000	1.286024
2424.000000	1.286093
2422.000000	1.286187
2420.000000	1.286308
2418.000000	1.286214
2416.000000	1.286122
2414.000000	1.286147
2412.000000	1.286143
2410.000000	1.286118
2408.000000	1.286108
2406.000000	1.286040
2404.000000	1.285866
2402.000000	1.285808
2400.000000	1.285885
2398.000000	1.285854
2396.000000	1.285817
2394.000000	1.285871
2392.000000	1.285828
2390.000000	1.285795
2388.000000	1.285844
2386.000000	1.285805
2384.000000	1.285676
2382.000000	1.285481
2380.000000	1.285257
2378.000000	1.284943
2376.000000	1.284605
2374.000000	1.284190
2372.000000	1.283774
2370.000000	1.283450
2368.000000	1.283224
2366.000000	1.283001
2364.000000	1.282932
2362.000000	1.283116
2360.000000	1.283478
2358.000000	1.283914
2356.000000	1.284381
2354.000000	1.284958
2352.000000	1.285440
2350.000000	1.285434
2348.000000	1.284871
2346.000000	1.284315
2344.000000	1.284084
2342.000000	1.283941
2340.000000	1.283951
2338.000000	1.284007
2336.000000	1.284055
2334.000000	1.284096
2332.000000	1.284224
2330.000000	1.284411
2328.000000	1.284638
2326.000000	1.284724
2324.000000	1.284776
2322.000000	1.284851
2320.000000	1.285035
2318.000000	1.285153
2316.000000	1.285157
2314.000000	1.285147
2312.000000	1.285191
2310.000000	1.285267
2308.000000	1.285404
2306.000000	1.285646
2304.000000	1.285834
2302.000000	1.285827
2300.000000	1.285814
2298.000000	1.285890
2296.000000	1.285862
2294.000000	1.285851
2292.000000	1.285900
2290.000000	1.285901
2288.000000	1.285887
2286.000000	1.285898
2284.000000	1.286002
2282.000000	1.285992
2280.000000	1.285938
2278.000000	1.285894
2276.000000	1.285906
2274.000000	1.285927
2272.000000	1.285891
2270.000000	1.285919
2268.000000	1.286008
2266.000000	1.286029
2264.000000	1.285964
2262.000000	1.285865
2260.000000	1.285812
2258.000000	1.285887
2256.000000	1.286131
2254.000000	1.286078
2252.000000	1.285962
2250.000000	1.285990
2248.000000	1.285964
2246.000000	1.285690
2244.000000	1.285584
2242.000000	1.285704
2240.000000	1.285765
2238.000000	1.285760
2236.000000	1.285747
2234.000000	1.285765
2232.000000	1.286049
2230.000000	1.286161
2228.000000	1.286036
2226.000000	1.285847
2224.000000	1.285799
2222.000000	1.285888
2220.000000	1.285788
2218.000000	1.285622
2216.000000	1.285711
2214.000000	1.285828
2212.000000	1.285715
2210.000000	1.285758
2208.000000	1.285910
2206.000000	1.285815
2204.000000	1.285737
2202.000000	1.285661
2200.000000	1.285592
2198.000000	1.285736
2196.000000	1.285781
2194.000000	1.285523
2192.000000	1.285425
2190.000000	1.285487
2188.000000	1.285523
2186.000000	1.285772
2184.000000	1.285900
2182.000000	1.285557
2180.000000	1.285198
2178.000000	1.284978
2176.000000	1.285087
2174.000000	1.284967
2172.000000	1.284796
2170.000000	1.285117
2168.000000	1.285488
2166.000000	1.285545
2164.000000	1.285103
2162.000000	1.284897
2160.000000	1.284901
2158.000000	1.284729
2156.000000	1.284713
2154.000000	1.284815
2152.000000	1.285052
2150.000000	1.285111
2148.000000	1.284933
2146.000000	1.284618
2144.000000	1.284404
2142.000000	1.284424
2140.000000	1.284381
2138.000000	1.284181
2136.000000	1.284230
2134.000000	1.284466
2132.000000	1.284535
2130.000000	1.284369
2128.000000	1.284314
2126.000000	1.284171
2124.000000	1.284063
2122.000000	1.284042
2120.000000	1.283920
2118.000000	1.283890
2116.000000	1.283836
2114.000000	1.283883
2112.000000	1.283970
2110.000000	1.283969
2108.000000	1.283860
2106.000000	1.283729
2104.000000	1.283649
2102.000000	1.283525
2100.000000	1.283427
2098.000000	1.283491
2096.000000	1.283541
2094.000000	1.283484
2092.000000	1.283492
2090.000000	1.283464
2088.000000	1.283400
2086.000000	1.283322
2084.000000	1.283337
2082.000000	1.283348
2080.000000	1.283197
2078.000000	1.283026
2076.000000	1.283075
2074.000000	1.283046
2072.000000	1.282930
2070.000000	1.282889
2068.000000	1.282883
2066.000000	1.282837
2064.000000	1.282848
2062.000000	1.282743
2060.000000	1.282630
2058.000000	1.282630
2056.000000	1.282698
2054.000000	1.282735
2052.000000	1.282711
2050.000000	1.282587
2048.000000	1.282515
2046.000000	1.282412
2044.000000	1.282339
2042.000000	1.282267
2040.000000	1.282345
2038.000000	1.282409
2036.000000	1.282402
2034.000000	1.282432
2032.000000	1.282423
2030.000000	1.282226
2028.000000	1.282185
2026.000000	1.282176
2024.000000	1.282105
2022.000000	1.282021
2020.000000	1.281897
2018.000000	1.281828
2016.000000	1.281996
2014.000000	1.282033
2012.000000	1.281945
2010.000000	1.281937
2008.000000	1.282021
2006.000000	1.281973
2004.000000	1.282035
2002.000000	1.282059
2000.000000	1.281932
1998.000000	1.281892
1996.000000	1.281912
1994.000000	1.281585
1992.000000	1.281445
1990.000000	1.281630
1988.000000	1.281704
1986.000000	1.281747
1984.000000	1.281763
1982.000000	1.281751
1980.000000	1.281715
1978.000000	1.281659
1976.000000	1.281661
1974.000000	1.281668
1972.000000	1.281691
1970.000000	1.281545
1968.000000	1.281367
1966.000000	1.281451
1964.000000	1.281570
1962.000000	1.281357
1960.000000	1.281298
1958.000000	1.281666
1956.000000	1.281725
1954.000000	1.281451
1952.000000	1.281424
1950.000000	1.281555
1948.000000	1.281680
1946.000000	1.281466
1944.000000	1.281107
1942.000000	1.281386
1940.000000	1.281883
1938.000000	1.281880
1936.000000	1.281843
1934.000000	1.281803
1932.000000	1.281838
1930.000000	1.281829
1928.000000	1.281828
1926.000000	1.281618
1924.000000	1.281325
1922.000000	1.281371
1920.000000	1.280972
1918.000000	1.280814
1916.000000	1.281761
1914.000000	1.281906
1912.000000	1.281718
1910.000000	1.281627
1908.000000	1.281808
1906.000000	1.281912
1904.000000	1.281991
1902.000000	1.281978
1900.000000	1.282059
1898.000000	1.281981
1896.000000	1.281937
1894.000000	1.282071
1892.000000	1.281813
1890.000000	1.281455
1888.000000	1.281992
1886.000000	1.282106
1884.000000	1.282122
1882.000000	1.282169
1880.000000	1.282155
1878.000000	1.282132
1876.000000	1.282245
1874.000000	1.282042
1872.000000	1.281316
1870.000000	1.280362
1868.000000	1.281138
1866.000000	1.282134
1864.000000	1.282281
1862.000000	1.282098
1860.000000	1.282153
1858.000000	1.282156
1856.000000	1.282189
1854.000000	1.282177
1852.000000	1.282209
1850.000000	1.281932
1848.000000	1.281361
1846.000000	1.279608
1844.000000	1.279810
1842.000000	1.281958
1840.000000	1.282118
1838.000000	1.281886
1836.000000	1.282142
1834.000000	1.282059
1832.000000	1.280934
1830.000000	1.280664
1828.000000	1.281605
1826.000000	1.281324
1824.000000	1.281997
1822.000000	1.282535
1820.000000	1.282382
1818.000000	1.282279
1816.000000	1.282474
1814.000000	1.282317
1812.000000	1.281965
1810.000000	1.282072
1808.000000	1.282458
1806.000000	1.282327
1804.000000	1.281812
1802.000000	1.281131
1800.000000	1.281472
1798.000000	1.282077
1796.000000	1.281515
1794.000000	1.279472
1792.000000	1.279978
1790.000000	1.282157
1788.000000	1.282320
1786.000000	1.281568
1784.000000	1.281888
1782.000000	1.281839
1780.000000	1.281945
1778.000000	1.282239
1776.000000	1.281096
1774.000000	1.278397
1772.000000	1.279075
1770.000000	1.281171
1768.000000	1.281560
1766.000000	1.282584
1764.000000	1.281351
1762.000000	1.280783
1760.000000	1.282056
1758.000000	1.281709
1756.000000	1.281957
1754.000000	1.281230
1752.000000	1.279228
1750.000000	1.280497
1748.000000	1.281845
1746.000000	1.282150
1744.000000	1.281937
1742.000000	1.281132
1740.000000	1.280995
1738.000000	1.281568
1736.000000	1.277150
1734.000000	1.276655
1732.000000	1.282195
1730.000000	1.283437
1728.000000	1.283658
1726.000000	1.283626
1724.000000	1.283546
1722.000000	1.282859
1720.000000	1.279001
1718.000000	1.276409
1716.000000	1.280293
1714.000000	1.282992
1712.000000	1.283807
1710.000000	1.283403
1708.000000	1.282536
1706.000000	1.281651
1704.000000	1.281468
1702.000000	1.276376
1700.000000	1.276460
1698.000000	1.278504
1696.000000	1.278303
1694.000000	1.283953
1692.000000	1.284830
1690.000000	1.283692
1688.000000	1.281672
1686.000000	1.276057
1684.000000	1.278142
1682.000000	1.284228
1680.000000	1.284494
1678.000000	1.282898
1676.000000	1.280971
1674.000000	1.282873
1672.000000	1.282468
1670.000000	1.281515
1668.000000	1.284079
1666.000000	1.284876
1664.000000	1.283108
1662.000000	1.283952
1660.000000	1.285430
1658.000000	1.284605
1656.000000	1.278542
1654.000000	1.271563
1652.000000	1.279035
1650.000000	1.284640
1648.000000	1.280790
1646.000000	1.281795
1644.000000	1.285690
1642.000000	1.286064
1640.000000	1.284892
1638.000000	1.281548
1636.000000	1.279942
1634.000000	1.284679
1632.000000	1.286662
1630.000000	1.285528
1628.000000	1.285069
1626.000000	1.284583
1624.000000	1.283612
1622.000000	1.284904
1620.000000	1.284201
1618.000000	1.280558
1616.000000	1.282758
1614.000000	1.286433
1612.000000	1.285953
1610.000000	1.285931
1608.000000	1.286578
1606.000000	1.287400
1604.000000	1.287591
1602.000000	1.287766
1600.000000	1.287770
1598.000000	1.287725
1596.000000	1.287477
1594.000000	1.287426
1592.000000	1.287383
1590.000000	1.287426
1588.000000	1.287493
1586.000000	1.287525
1584.000000	1.287495
1582.000000	1.287611
1580.000000	1.286719
1578.000000	1.282538
1576.000000	1.282702
1574.000000	1.287529
1572.000000	1.286126
1570.000000	1.284686
1568.000000	1.286438
1566.000000	1.286841
1564.000000	1.285800
1562.000000	1.280406
1560.000000	1.274257
1558.000000	1.279724
1556.000000	1.284794
1554.000000	1.285914
1552.000000	1.287159
1550.000000	1.287124
1548.000000	1.286925
1546.000000	1.285042
1544.000000	1.282485
1542.000000	1.278584
1540.000000	1.278304
1538.000000	1.285010
1536.000000	1.286517
1534.000000	1.284642
1532.000000	1.286554
1530.000000	1.286808
1528.000000	1.285182
1526.000000	1.284375
1524.000000	1.282705
1522.000000	1.280453
1520.000000	1.283331
1518.000000	1.284529
1516.000000	1.285105
1514.000000	1.285976
1512.000000	1.285574
1510.000000	1.282954
1508.000000	1.277474
1506.000000	1.279447
1504.000000	1.285404
1502.000000	1.284694
1500.000000	1.281126
1498.000000	1.278509
1496.000000	1.281460
1494.000000	1.287227
1492.000000	1.288356
1490.000000	1.288255
1488.000000	1.288941
1486.000000	1.289265
1484.000000	1.289048
1482.000000	1.288218
1480.000000	1.287808
1478.000000	1.286455
1476.000000	1.284587
1474.000000	1.282443
1472.000000	1.283957
1470.000000	1.286978
1468.000000	1.286579
1466.000000	1.285007
1464.000000	1.285905
1462.000000	1.286425
1460.000000	1.282652
1458.000000	1.278190
1456.000000	1.281506
1454.000000	1.285877
1452.000000	1.286618
1450.000000	1.287641
1448.000000	1.288244
1446.000000	1.288478
1444.000000	1.287655
1442.000000	1.287298
1440.000000	1.286233
1438.000000	1.283644
1436.000000	1.284871
1434.000000	1.287235
1432.000000	1.286466
1430.000000	1.286302
1428.000000	1.286790
1426.000000	1.286712
1424.000000	1.286440
1422.000000	1.285204
1420.000000	1.282953
1418.000000	1.285094
1416.000000	1.287025
1414.000000	1.287098
1412.000000	1.286629
1410.000000	1.286257
1408.000000	1.285642
1406.000000	1.285322
1404.000000	1.286214
1402.000000	1.287011
1400.000000	1.286554
1398.000000	1.286679
1396.000000	1.285937
1394.000000	1.286371
1392.000000	1.287326
1390.000000	1.286258
1388.000000	1.284889
1386.000000	1.285776
1384.000000	1.286917
1382.000000	1.287274
1380.000000	1.286943
1378.000000	1.286477
1376.000000	1.285814
1374.000000	1.285872
1372.000000	1.286407
1370.000000	1.286283
1368.000000	1.286240
1366.000000	1.286091
1364.000000	1.285438
1362.000000	1.285576
1360.000000	1.286120
1358.000000	1.286158
1356.000000	1.285953
1354.000000	1.286120
1352.000000	1.286131
1350.000000	1.285929
1348.000000	1.285739
1346.000000	1.285887
1344.000000	1.285903
1342.000000	1.285530
1340.000000	1.285166
1338.000000	1.285410
1336.000000	1.285772
1334.000000	1.285889
1332.000000	1.285793
1330.000000	1.285659
1328.000000	1.285544
1326.000000	1.285448
1324.000000	1.285145
1322.000000	1.284924
1320.000000	1.284784
1318.000000	1.284909
1316.000000	1.284911
1314.000000	1.284792
1312.000000	1.284778
1310.000000	1.284793
1308.000000	1.284779
1306.000000	1.284705
1304.000000	1.284555
1302.000000	1.284562
1300.000000	1.284486
1298.000000	1.284341
1296.000000	1.284219
1294.000000	1.284112
1292.000000	1.283998
1290.000000	1.283999
1288.000000	1.283949
1286.000000	1.283961
1284.000000	1.283943
1282.000000	1.283993
1280.000000	1.283963
1278.000000	1.283917
1276.000000	1.283909
1274.000000	1.283939
1272.000000	1.283982
1270.000000	1.284232
1268.000000	1.284670
1266.000000	1.285783
1264.000000	1.287776
1262.000000	1.290575
1260.000000	1.292905
1258.000000	1.293658
1256.000000	1.292671
1254.000000	1.290748
1252.000000	1.288783
1250.000000	1.287556
1248.000000	1.287204
1246.000000	1.287136
1244.000000	1.287099
1242.000000	1.287291
1240.000000	1.287391
1238.000000	1.287650
1236.000000	1.288012
1234.000000	1.288368
1232.000000	1.288676
1230.000000	1.289115
1228.000000	1.289301
1226.000000	1.289570
1224.000000	1.289994
1222.000000	1.290356
1220.000000	1.290370
1218.000000	1.290409
1216.000000	1.290518
1214.000000	1.290895
1212.000000	1.291397
1210.000000	1.291857
1208.000000	1.292195
1206.000000	1.292438
1204.000000	1.292715
1202.000000	1.293033
1200.000000	1.292987
1198.000000	1.293104
1196.000000	1.293483
1194.000000	1.293866
1192.000000	1.294305
1190.000000	1.294848
1188.000000	1.295037
1186.000000	1.294952
1184.000000	1.294873
1182.000000	1.295301
1180.000000	1.296469
1178.000000	1.297514
1176.000000	1.297722
1174.000000	1.297660
1172.000000	1.297969
1170.000000	1.298537
1168.000000	1.298740
1166.000000	1.299189
1164.000000	1.299647
1162.000000	1.299979
1160.000000	1.300189
1158.000000	1.300673
1156.000000	1.301003
1154.000000	1.301443
1152.000000	1.301914
1150.000000	1.302404
1148.000000	1.302657
1146.000000	1.302800
1144.000000	1.303179
1142.000000	1.303953
1140.000000	1.304412
1138.000000	1.304698
1136.000000	1.304541
1134.000000	1.304355
1132.000000	1.304438
1130.000000	1.304697
1128.000000	1.305193
1126.000000	1.305976
1124.000000	1.306344
1122.000000	1.306698
1120.000000	1.307003
1118.000000	1.307061
1116.000000	1.307328
1114.000000	1.307791
1112.000000	1.308076
1110.000000	1.308873
1108.000000	1.309790
1106.000000	1.310468
1104.000000	1.310562
1102.000000	1.310918
1100.000000	1.311554
1098.000000	1.311965
1096.000000	1.312151
1094.000000	1.312361
1092.000000	1.312466
1090.000000	1.312402
1088.000000	1.312312
1086.000000	1.312033
1084.000000	1.311851
1082.000000	1.311880
1080.000000	1.311683
1078.000000	1.311772
1076.000000	1.312025
1074.000000	1.311632
1072.000000	1.311030
1070.000000	1.310504
1068.000000	1.309677
1066.000000	1.309596
1064.000000	1.309829
1062.000000	1.309504
1060.000000	1.308394
1058.000000	1.308120
1056.000000	1.306995
1054.000000	1.305772
1052.000000	1.306301
1050.000000	1.307267
1048.000000	1.307742
1046.000000	1.307323
1044.000000	1.306375
1042.000000	1.304812
1040.000000	1.303100
1038.000000	1.302764
1036.000000	1.303092
1034.000000	1.303557
1032.000000	1.302820
1030.000000	1.302344
1028.000000	1.302061
1026.000000	1.301399
1024.000000	1.301095
1022.000000	1.300940
1020.000000	1.301036
1018.000000	1.300291
1016.000000	1.298675
1014.000000	1.298064
1012.000000	1.297055
1010.000000	1.295115
1008.000000	1.291744
1006.000000	1.289149
1004.000000	1.288568
1002.000000	1.288257
1000.000000	1.287061
