PE IR       SUBTECH     SPECTRUM    ASCII       PEDS        4.00        
   -1
TE110A_044_115K.ASC
20/05/14
13:16:06.00
20/05/14
13:16:06.00
Administrator
TE110A.Thursday, May 14 2020, 013.
1000.000000
#HDR
-1
-1
#GR
cm-1
A
1.0
0.0
6000.000000
-2.000000
2501
8
1.275164
1.223569
#DATA
6000.000000	1.259548
5998.000000	1.259367
5996.000000	1.258917
5994.000000	1.259073
5992.000000	1.259288
5990.000000	1.259630
5988.000000	1.259613
5986.000000	1.259101
5984.000000	1.258980
5982.000000	1.259175
5980.000000	1.259246
5978.000000	1.258744
5976.000000	1.257851
5974.000000	1.257643
5972.000000	1.258040
5970.000000	1.258599
5968.000000	1.258822
5966.000000	1.258889
5964.000000	1.258726
5962.000000	1.258504
5960.000000	1.258301
5958.000000	1.257868
5956.000000	1.257578
5954.000000	1.257725
5952.000000	1.258288
5950.000000	1.258960
5948.000000	1.259322
5946.000000	1.259138
5944.000000	1.259234
5942.000000	1.259179
5940.000000	1.258696
5938.000000	1.258159
5936.000000	1.257806
5934.000000	1.257763
5932.000000	1.257841
5930.000000	1.258021
5928.000000	1.258227
5926.000000	1.258074
5924.000000	1.257697
5922.000000	1.257597
5920.000000	1.257677
5918.000000	1.257732
5916.000000	1.257426
5914.000000	1.257242
5912.000000	1.257843
5910.000000	1.258206
5908.000000	1.258225
5906.000000	1.257690
5904.000000	1.257277
5902.000000	1.257496
5900.000000	1.257822
5898.000000	1.257703
5896.000000	1.257304
5894.000000	1.256956
5892.000000	1.256902
5890.000000	1.256968
5888.000000	1.257133
5886.000000	1.257056
5884.000000	1.256614
5882.000000	1.256151
5880.000000	1.256247
5878.000000	1.256928
5876.000000	1.257277
5874.000000	1.256844
5872.000000	1.256534
5870.000000	1.256574
5868.000000	1.256626
5866.000000	1.256267
5864.000000	1.255981
5862.000000	1.255783
5860.000000	1.255686
5858.000000	1.255836
5856.000000	1.256440
5854.000000	1.257148
5852.000000	1.257050
5850.000000	1.256291
5848.000000	1.255961
5846.000000	1.256054
5844.000000	1.256468
5842.000000	1.256452
5840.000000	1.256134
5838.000000	1.256018
5836.000000	1.255982
5834.000000	1.256291
5832.000000	1.256557
5830.000000	1.256628
5828.000000	1.256680
5826.000000	1.256548
5824.000000	1.256483
5822.000000	1.256188
5820.000000	1.255844
5818.000000	1.255704
5816.000000	1.255826
5814.000000	1.255754
5812.000000	1.255747
5810.000000	1.255706
5808.000000	1.255803
5806.000000	1.255582
5804.000000	1.255264
5802.000000	1.255159
5800.000000	1.255673
5798.000000	1.256065
5796.000000	1.256265
5794.000000	1.256352
5792.000000	1.256360
5790.000000	1.256330
5788.000000	1.256289
5786.000000	1.256222
5784.000000	1.256189
5782.000000	1.255920
5780.000000	1.255625
5778.000000	1.255409
5776.000000	1.255129
5774.000000	1.254755
5772.000000	1.254663
5770.000000	1.254897
5768.000000	1.255078
5766.000000	1.255072
5764.000000	1.255071
5762.000000	1.255155
5760.000000	1.255226
5758.000000	1.255270
5756.000000	1.255394
5754.000000	1.255279
5752.000000	1.254899
5750.000000	1.254638
5748.000000	1.254556
5746.000000	1.254358
5744.000000	1.254361
5742.000000	1.254430
5740.000000	1.254602
5738.000000	1.254399
5736.000000	1.254240
5734.000000	1.254278
5732.000000	1.254397
5730.000000	1.254804
5728.000000	1.255093
5726.000000	1.254886
5724.000000	1.254536
5722.000000	1.254286
5720.000000	1.254393
5718.000000	1.254366
5716.000000	1.254237
5714.000000	1.254379
5712.000000	1.254393
5710.000000	1.254075
5708.000000	1.253873
5706.000000	1.253919
5704.000000	1.254059
5702.000000	1.254225
5700.000000	1.254229
5698.000000	1.254306
5696.000000	1.254580
5694.000000	1.254757
5692.000000	1.254460
5690.000000	1.253776
5688.000000	1.253386
5686.000000	1.253541
5684.000000	1.253869
5682.000000	1.253938
5680.000000	1.253763
5678.000000	1.253674
5676.000000	1.253861
5674.000000	1.254101
5672.000000	1.254258
5670.000000	1.254178
5668.000000	1.254089
5666.000000	1.253823
5664.000000	1.253395
5662.000000	1.253179
5660.000000	1.253113
5658.000000	1.253465
5656.000000	1.253762
5654.000000	1.253600
5652.000000	1.253293
5650.000000	1.253338
5648.000000	1.253470
5646.000000	1.253648
5644.000000	1.253465
5642.000000	1.253381
5640.000000	1.253102
5638.000000	1.252892
5636.000000	1.253000
5634.000000	1.253019
5632.000000	1.252909
5630.000000	1.253066
5628.000000	1.253288
5626.000000	1.253283
5624.000000	1.253059
5622.000000	1.253039
5620.000000	1.253237
5618.000000	1.253215
5616.000000	1.252818
5614.000000	1.252666
5612.000000	1.252790
5610.000000	1.252683
5608.000000	1.252474
5606.000000	1.252404
5604.000000	1.252811
5602.000000	1.252959
5600.000000	1.252812
5598.000000	1.252595
5596.000000	1.252412
5594.000000	1.252284
5592.000000	1.252331
5590.000000	1.252757
5588.000000	1.253079
5586.000000	1.252672
5584.000000	1.251971
5582.000000	1.251611
5580.000000	1.251669
5578.000000	1.251826
5576.000000	1.251881
5574.000000	1.251930
5572.000000	1.252028
5570.000000	1.252178
5568.000000	1.252237
5566.000000	1.252110
5564.000000	1.252061
5562.000000	1.252069
5560.000000	1.252020
5558.000000	1.251851
5556.000000	1.251810
5554.000000	1.251720
5552.000000	1.251529
5550.000000	1.251442
5548.000000	1.251535
5546.000000	1.251718
5544.000000	1.251708
5542.000000	1.251460
5540.000000	1.251298
5538.000000	1.251309
5536.000000	1.251261
5534.000000	1.251208
5532.000000	1.251356
5530.000000	1.251770
5528.000000	1.251829
5526.000000	1.251590
5524.000000	1.251496
5522.000000	1.251525
5520.000000	1.251409
5518.000000	1.251412
5516.000000	1.251403
5514.000000	1.251341
5512.000000	1.251350
5510.000000	1.251346
5508.000000	1.251586
5506.000000	1.251601
5504.000000	1.251370
5502.000000	1.250892
5500.000000	1.250617
5498.000000	1.250738
5496.000000	1.250808
5494.000000	1.250576
5492.000000	1.250242
5490.000000	1.250129
5488.000000	1.250376
5486.000000	1.250624
5484.000000	1.250541
5482.000000	1.250289
5480.000000	1.250403
5478.000000	1.250765
5476.000000	1.251005
5474.000000	1.251098
5472.000000	1.251084
5470.000000	1.250891
5468.000000	1.250624
5466.000000	1.250345
5464.000000	1.249690
5462.000000	1.249427
5460.000000	1.249813
5458.000000	1.250556
5456.000000	1.250849
5454.000000	1.250691
5452.000000	1.250384
5450.000000	1.249882
5448.000000	1.249618
5446.000000	1.249805
5444.000000	1.250071
5442.000000	1.250263
5440.000000	1.250271
5438.000000	1.250133
5436.000000	1.250056
5434.000000	1.250052
5432.000000	1.250040
5430.000000	1.249817
5428.000000	1.249740
5426.000000	1.250107
5424.000000	1.250398
5422.000000	1.250255
5420.000000	1.249836
5418.000000	1.249367
5416.000000	1.249068
5414.000000	1.249038
5412.000000	1.249237
5410.000000	1.249646
5408.000000	1.249986
5406.000000	1.250163
5404.000000	1.250159
5402.000000	1.250193
5400.000000	1.250294
5398.000000	1.249992
5396.000000	1.249374
5394.000000	1.249289
5392.000000	1.249630
5390.000000	1.249678
5388.000000	1.249285
5386.000000	1.249105
5384.000000	1.249465
5382.000000	1.249562
5380.000000	1.249150
5378.000000	1.248706
5376.000000	1.248940
5374.000000	1.249582
5372.000000	1.249940
5370.000000	1.249747
5368.000000	1.249296
5366.000000	1.249108
5364.000000	1.249132
5362.000000	1.249192
5360.000000	1.249119
5358.000000	1.248827
5356.000000	1.248594
5354.000000	1.248709
5352.000000	1.248951
5350.000000	1.248868
5348.000000	1.248350
5346.000000	1.248272
5344.000000	1.248754
5342.000000	1.248801
5340.000000	1.248470
5338.000000	1.248358
5336.000000	1.248885
5334.000000	1.249310
5332.000000	1.248936
5330.000000	1.248460
5328.000000	1.248362
5326.000000	1.248499
5324.000000	1.248564
5322.000000	1.248525
5320.000000	1.248548
5318.000000	1.248621
5316.000000	1.248766
5314.000000	1.249053
5312.000000	1.249086
5310.000000	1.248822
5308.000000	1.248497
5306.000000	1.248517
5304.000000	1.248633
5302.000000	1.248543
5300.000000	1.248371
5298.000000	1.248420
5296.000000	1.248462
5294.000000	1.248152
5292.000000	1.247849
5290.000000	1.248001
5288.000000	1.248259
5286.000000	1.248200
5284.000000	1.247948
5282.000000	1.247925
5280.000000	1.248106
5278.000000	1.248114
5276.000000	1.248015
5274.000000	1.248013
5272.000000	1.248127
5270.000000	1.248146
5268.000000	1.247894
5266.000000	1.247532
5264.000000	1.247394
5262.000000	1.247748
5260.000000	1.248089
5258.000000	1.247950
5256.000000	1.247622
5254.000000	1.247696
5252.000000	1.247707
5250.000000	1.247461
5248.000000	1.247451
5246.000000	1.247858
5244.000000	1.248247
5242.000000	1.248279
5240.000000	1.248063
5238.000000	1.247750
5236.000000	1.247591
5234.000000	1.247549
5232.000000	1.247674
5230.000000	1.247712
5228.000000	1.247345
5226.000000	1.246915
5224.000000	1.247098
5222.000000	1.247577
5220.000000	1.247717
5218.000000	1.247571
5216.000000	1.247547
5214.000000	1.247378
5212.000000	1.247122
5210.000000	1.246858
5208.000000	1.246733
5206.000000	1.246925
5204.000000	1.247294
5202.000000	1.247558
5200.000000	1.247572
5198.000000	1.247507
5196.000000	1.247493
5194.000000	1.247486
5192.000000	1.247432
5190.000000	1.247200
5188.000000	1.246942
5186.000000	1.246936
5184.000000	1.247138
5182.000000	1.247351
5180.000000	1.247313
5178.000000	1.247120
5176.000000	1.247018
5174.000000	1.247077
5172.000000	1.247150
5170.000000	1.247136
5168.000000	1.247335
5166.000000	1.247676
5164.000000	1.247786
5162.000000	1.247598
5160.000000	1.247289
5158.000000	1.247061
5156.000000	1.247108
5154.000000	1.247270
5152.000000	1.247337
5150.000000	1.247197
5148.000000	1.247197
5146.000000	1.247145
5144.000000	1.246973
5142.000000	1.246908
5140.000000	1.247196
5138.000000	1.247408
5136.000000	1.247274
5134.000000	1.247064
5132.000000	1.247128
5130.000000	1.247296
5128.000000	1.247309
5126.000000	1.247054
5124.000000	1.246718
5122.000000	1.246595
5120.000000	1.246806
5118.000000	1.246996
5116.000000	1.246986
5114.000000	1.246910
5112.000000	1.246967
5110.000000	1.247140
5108.000000	1.247185
5106.000000	1.247065
5104.000000	1.246895
5102.000000	1.246810
5100.000000	1.246776
5098.000000	1.246731
5096.000000	1.246807
5094.000000	1.246896
5092.000000	1.246783
5090.000000	1.246586
5088.000000	1.246520
5086.000000	1.246598
5084.000000	1.246824
5082.000000	1.247084
5080.000000	1.247111
5078.000000	1.246793
5076.000000	1.246536
5074.000000	1.246599
5072.000000	1.246700
5070.000000	1.246805
5068.000000	1.246882
5066.000000	1.246912
5064.000000	1.246918
5062.000000	1.246997
5060.000000	1.247001
5058.000000	1.246822
5056.000000	1.246684
5054.000000	1.246761
5052.000000	1.246916
5050.000000	1.246991
5048.000000	1.246910
5046.000000	1.246720
5044.000000	1.246538
5042.000000	1.246520
5040.000000	1.246885
5038.000000	1.247358
5036.000000	1.247434
5034.000000	1.247151
5032.000000	1.246980
5030.000000	1.246963
5028.000000	1.246940
5026.000000	1.246994
5024.000000	1.247081
5022.000000	1.247007
5020.000000	1.246834
5018.000000	1.246820
5016.000000	1.246882
5014.000000	1.246848
5012.000000	1.246701
5010.000000	1.246682
5008.000000	1.246737
5006.000000	1.246697
5004.000000	1.246685
5002.000000	1.246815
5000.000000	1.246829
4998.000000	1.246621
4996.000000	1.246477
4994.000000	1.246663
4992.000000	1.246886
4990.000000	1.246987
4988.000000	1.247062
4986.000000	1.247059
4984.000000	1.246824
4982.000000	1.246482
4980.000000	1.246308
4978.000000	1.246375
4976.000000	1.246555
4974.000000	1.246674
4972.000000	1.246599
4970.000000	1.246551
4968.000000	1.246705
4966.000000	1.246890
4964.000000	1.246961
4962.000000	1.246945
4960.000000	1.246825
4958.000000	1.246720
4956.000000	1.246587
4954.000000	1.246524
4952.000000	1.246604
4950.000000	1.246835
4948.000000	1.246893
4946.000000	1.246713
4944.000000	1.246631
4942.000000	1.246594
4940.000000	1.246581
4938.000000	1.246590
4936.000000	1.246574
4934.000000	1.246456
4932.000000	1.246316
4930.000000	1.246247
4928.000000	1.246189
4926.000000	1.246276
4924.000000	1.246374
4922.000000	1.246435
4920.000000	1.246493
4918.000000	1.246588
4916.000000	1.246600
4914.000000	1.246432
4912.000000	1.246241
4910.000000	1.246203
4908.000000	1.246200
4906.000000	1.246208
4904.000000	1.246342
4902.000000	1.246495
4900.000000	1.246494
4898.000000	1.246367
4896.000000	1.246159
4894.000000	1.246013
4892.000000	1.246110
4890.000000	1.246240
4888.000000	1.246300
4886.000000	1.246447
4884.000000	1.246518
4882.000000	1.246417
4880.000000	1.246353
4878.000000	1.246403
4876.000000	1.246451
4874.000000	1.246396
4872.000000	1.246401
4870.000000	1.246506
4868.000000	1.246590
4866.000000	1.246566
4864.000000	1.246528
4862.000000	1.246586
4860.000000	1.246501
4858.000000	1.246297
4856.000000	1.246172
4854.000000	1.246296
4852.000000	1.246452
4850.000000	1.246415
4848.000000	1.246241
4846.000000	1.246052
4844.000000	1.246033
4842.000000	1.246226
4840.000000	1.246372
4838.000000	1.246435
4836.000000	1.246514
4834.000000	1.246528
4832.000000	1.246316
4830.000000	1.246072
4828.000000	1.246064
4826.000000	1.246274
4824.000000	1.246447
4822.000000	1.246478
4820.000000	1.246421
4818.000000	1.246381
4816.000000	1.246359
4814.000000	1.246411
4812.000000	1.246325
4810.000000	1.246159
4808.000000	1.246240
4806.000000	1.246545
4804.000000	1.246597
4802.000000	1.246403
4800.000000	1.246384
4798.000000	1.246517
4796.000000	1.246503
4794.000000	1.246298
4792.000000	1.246091
4790.000000	1.246105
4788.000000	1.246355
4786.000000	1.246467
4784.000000	1.246319
4782.000000	1.246169
4780.000000	1.246224
4778.000000	1.246300
4776.000000	1.246340
4774.000000	1.246413
4772.000000	1.246469
4770.000000	1.246470
4768.000000	1.246426
4766.000000	1.246352
4764.000000	1.246200
4762.000000	1.246075
4760.000000	1.246118
4758.000000	1.246218
4756.000000	1.246200
4754.000000	1.246143
4752.000000	1.246173
4750.000000	1.246096
4748.000000	1.245933
4746.000000	1.245996
4744.000000	1.246202
4742.000000	1.246170
4740.000000	1.246043
4738.000000	1.245971
4736.000000	1.245910
4734.000000	1.245876
4732.000000	1.245917
4730.000000	1.245920
4728.000000	1.245945
4726.000000	1.246066
4724.000000	1.246101
4722.000000	1.245980
4720.000000	1.245807
4718.000000	1.245784
4716.000000	1.245790
4714.000000	1.245732
4712.000000	1.245821
4710.000000	1.246024
4708.000000	1.246141
4706.000000	1.246237
4704.000000	1.246357
4702.000000	1.246391
4700.000000	1.246362
4698.000000	1.246287
4696.000000	1.246195
4694.000000	1.246176
4692.000000	1.246183
4690.000000	1.246097
4688.000000	1.245911
4686.000000	1.245802
4684.000000	1.245846
4682.000000	1.245855
4680.000000	1.245789
4678.000000	1.245816
4676.000000	1.245828
4674.000000	1.245834
4672.000000	1.245901
4670.000000	1.245894
4668.000000	1.245891
4666.000000	1.246016
4664.000000	1.246076
4662.000000	1.245968
4660.000000	1.245949
4658.000000	1.245975
4656.000000	1.245962
4654.000000	1.245859
4652.000000	1.245749
4650.000000	1.245713
4648.000000	1.245823
4646.000000	1.246109
4644.000000	1.246381
4642.000000	1.246321
4640.000000	1.245982
4638.000000	1.245805
4636.000000	1.245818
4634.000000	1.245778
4632.000000	1.245773
4630.000000	1.245851
4628.000000	1.245769
4626.000000	1.245653
4624.000000	1.245788
4622.000000	1.245978
4620.000000	1.245906
4618.000000	1.245797
4616.000000	1.245789
4614.000000	1.245807
4612.000000	1.245731
4610.000000	1.245650
4608.000000	1.245603
4606.000000	1.245596
4604.000000	1.245513
4602.000000	1.245488
4600.000000	1.245667
4598.000000	1.245912
4596.000000	1.245973
4594.000000	1.245875
4592.000000	1.245687
4590.000000	1.245603
4588.000000	1.245694
4586.000000	1.245920
4584.000000	1.246110
4582.000000	1.246109
4580.000000	1.245938
4578.000000	1.245747
4576.000000	1.245669
4574.000000	1.245724
4572.000000	1.245760
4570.000000	1.245717
4568.000000	1.245739
4566.000000	1.245842
4564.000000	1.245891
4562.000000	1.245942
4560.000000	1.245959
4558.000000	1.245871
4556.000000	1.245838
4554.000000	1.245825
4552.000000	1.245757
4550.000000	1.245731
4548.000000	1.245780
4546.000000	1.245771
4544.000000	1.245759
4542.000000	1.245682
4540.000000	1.245583
4538.000000	1.245629
4536.000000	1.245768
4534.000000	1.245826
4532.000000	1.245804
4530.000000	1.245733
4528.000000	1.245651
4526.000000	1.245664
4524.000000	1.245787
4522.000000	1.245861
4520.000000	1.245763
4518.000000	1.245541
4516.000000	1.245436
4514.000000	1.245409
4512.000000	1.245408
4510.000000	1.245457
4508.000000	1.245514
4506.000000	1.245590
4504.000000	1.245668
4502.000000	1.245570
4500.000000	1.245544
4498.000000	1.245681
4496.000000	1.245624
4494.000000	1.245464
4492.000000	1.245431
4490.000000	1.245489
4488.000000	1.245629
4486.000000	1.245732
4484.000000	1.245620
4482.000000	1.245498
4480.000000	1.245568
4478.000000	1.245698
4476.000000	1.245702
4474.000000	1.245643
4472.000000	1.245656
4470.000000	1.245767
4468.000000	1.245833
4466.000000	1.245724
4464.000000	1.245615
4462.000000	1.245617
4460.000000	1.245624
4458.000000	1.245583
4456.000000	1.245524
4454.000000	1.245495
4452.000000	1.245578
4450.000000	1.245701
4448.000000	1.245769
4446.000000	1.245751
4444.000000	1.245653
4442.000000	1.245542
4440.000000	1.245451
4438.000000	1.245397
4436.000000	1.245371
4434.000000	1.245296
4432.000000	1.245249
4430.000000	1.245432
4428.000000	1.245653
4426.000000	1.245614
4424.000000	1.245354
4422.000000	1.245174
4420.000000	1.245159
4418.000000	1.245202
4416.000000	1.245233
4414.000000	1.245356
4412.000000	1.245473
4410.000000	1.245471
4408.000000	1.245406
4406.000000	1.245446
4404.000000	1.245487
4402.000000	1.245312
4400.000000	1.245014
4398.000000	1.244918
4396.000000	1.245029
4394.000000	1.245195
4392.000000	1.245299
4390.000000	1.245208
4388.000000	1.245012
4386.000000	1.245099
4384.000000	1.245364
4382.000000	1.245393
4380.000000	1.245276
4378.000000	1.245387
4376.000000	1.245584
4374.000000	1.245534
4372.000000	1.245268
4370.000000	1.245111
4368.000000	1.245199
4366.000000	1.245285
4364.000000	1.245243
4362.000000	1.245213
4360.000000	1.245230
4358.000000	1.245249
4356.000000	1.245288
4354.000000	1.245273
4352.000000	1.245151
4350.000000	1.245006
4348.000000	1.245067
4346.000000	1.245281
4344.000000	1.245276
4342.000000	1.245029
4340.000000	1.244896
4338.000000	1.244900
4336.000000	1.244859
4334.000000	1.244748
4332.000000	1.244651
4330.000000	1.244758
4328.000000	1.245036
4326.000000	1.245131
4324.000000	1.245125
4322.000000	1.245149
4320.000000	1.244975
4318.000000	1.244799
4316.000000	1.244866
4314.000000	1.244870
4312.000000	1.244724
4310.000000	1.244658
4308.000000	1.244673
4306.000000	1.244646
4304.000000	1.244585
4302.000000	1.244466
4300.000000	1.244400
4298.000000	1.244546
4296.000000	1.244707
4294.000000	1.244669
4292.000000	1.244639
4290.000000	1.244749
4288.000000	1.244774
4286.000000	1.244611
4284.000000	1.244465
4282.000000	1.244516
4280.000000	1.244650
4278.000000	1.244695
4276.000000	1.244591
4274.000000	1.244521
4272.000000	1.244614
4270.000000	1.244751
4268.000000	1.244769
4266.000000	1.244677
4264.000000	1.244574
4262.000000	1.244526
4260.000000	1.244481
4258.000000	1.244518
4256.000000	1.244592
4254.000000	1.244495
4252.000000	1.244355
4250.000000	1.244475
4248.000000	1.244604
4246.000000	1.244417
4244.000000	1.244187
4242.000000	1.244226
4240.000000	1.244350
4238.000000	1.244424
4236.000000	1.244360
4234.000000	1.244205
4232.000000	1.244140
4230.000000	1.244126
4228.000000	1.244074
4226.000000	1.244036
4224.000000	1.243967
4222.000000	1.243947
4220.000000	1.243953
4218.000000	1.243910
4216.000000	1.243872
4214.000000	1.243894
4212.000000	1.243962
4210.000000	1.243963
4208.000000	1.243879
4206.000000	1.243866
4204.000000	1.243875
4202.000000	1.243814
4200.000000	1.243734
4198.000000	1.243739
4196.000000	1.243830
4194.000000	1.243875
4192.000000	1.243797
4190.000000	1.243761
4188.000000	1.243879
4186.000000	1.243898
4184.000000	1.243723
4182.000000	1.243713
4180.000000	1.243766
4178.000000	1.243670
4176.000000	1.243625
4174.000000	1.243645
4172.000000	1.243609
4170.000000	1.243622
4168.000000	1.243635
4166.000000	1.243559
4164.000000	1.243445
4162.000000	1.243455
4160.000000	1.243533
4158.000000	1.243502
4156.000000	1.243381
4154.000000	1.243324
4152.000000	1.243274
4150.000000	1.243207
4148.000000	1.243187
4146.000000	1.243153
4144.000000	1.243039
4142.000000	1.243049
4140.000000	1.243133
4138.000000	1.243063
4136.000000	1.242958
4134.000000	1.243049
4132.000000	1.243079
4130.000000	1.242952
4128.000000	1.242901
4126.000000	1.242840
4124.000000	1.242671
4122.000000	1.242532
4120.000000	1.242512
4118.000000	1.242611
4116.000000	1.242617
4114.000000	1.242580
4112.000000	1.242574
4110.000000	1.242486
4108.000000	1.242418
4106.000000	1.242393
4104.000000	1.242414
4102.000000	1.242530
4100.000000	1.242519
4098.000000	1.242377
4096.000000	1.242340
4094.000000	1.242363
4092.000000	1.242225
4090.000000	1.242077
4088.000000	1.242143
4086.000000	1.242229
4084.000000	1.242174
4082.000000	1.242115
4080.000000	1.242103
4078.000000	1.242037
4076.000000	1.241862
4074.000000	1.241740
4072.000000	1.241881
4070.000000	1.242132
4068.000000	1.242160
4066.000000	1.242038
4064.000000	1.241911
4062.000000	1.241747
4060.000000	1.241722
4058.000000	1.241818
4056.000000	1.241756
4054.000000	1.241572
4052.000000	1.241440
4050.000000	1.241390
4048.000000	1.241446
4046.000000	1.241597
4044.000000	1.241692
4042.000000	1.241648
4040.000000	1.241552
4038.000000	1.241447
4036.000000	1.241299
4034.000000	1.241158
4032.000000	1.241062
4030.000000	1.241030
4028.000000	1.241081
4026.000000	1.241121
4024.000000	1.241057
4022.000000	1.241010
4020.000000	1.241044
4018.000000	1.241136
4016.000000	1.241190
4014.000000	1.241097
4012.000000	1.240883
4010.000000	1.240774
4008.000000	1.240886
4006.000000	1.240985
4004.000000	1.240897
4002.000000	1.240858
4000.000000	1.240878
3998.000000	1.240795
3996.000000	1.240669
3994.000000	1.240608
3992.000000	1.240568
3990.000000	1.240536
3988.000000	1.240534
3986.000000	1.240584
3984.000000	1.240639
3982.000000	1.240590
3980.000000	1.240423
3978.000000	1.240216
3976.000000	1.240136
3974.000000	1.240217
3972.000000	1.240212
3970.000000	1.240155
3968.000000	1.240106
3966.000000	1.239982
3964.000000	1.239849
3962.000000	1.239895
3960.000000	1.240102
3958.000000	1.240083
3956.000000	1.239796
3954.000000	1.239567
3952.000000	1.239312
3950.000000	1.239145
3948.000000	1.239321
3946.000000	1.239359
3944.000000	1.239185
3942.000000	1.239425
3940.000000	1.239697
3938.000000	1.239546
3936.000000	1.239063
3934.000000	1.238478
3932.000000	1.238474
3930.000000	1.238946
3928.000000	1.238934
3926.000000	1.238614
3924.000000	1.238661
3922.000000	1.238463
3920.000000	1.237701
3918.000000	1.237717
3916.000000	1.238794
3914.000000	1.239350
3912.000000	1.239076
3910.000000	1.238676
3908.000000	1.237426
3906.000000	1.235444
3904.000000	1.234834
3902.000000	1.235868
3900.000000	1.237373
3898.000000	1.238768
3896.000000	1.238612
3894.000000	1.236728
3892.000000	1.236181
3890.000000	1.237257
3888.000000	1.236217
3886.000000	1.235428
3884.000000	1.237130
3882.000000	1.237357
3880.000000	1.237221
3878.000000	1.237774
3876.000000	1.236766
3874.000000	1.235363
3872.000000	1.234012
3870.000000	1.234481
3868.000000	1.236512
3866.000000	1.236327
3864.000000	1.236232
3862.000000	1.237596
3860.000000	1.237556
3858.000000	1.233715
3856.000000	1.226823
3854.000000	1.226715
3852.000000	1.235761
3850.000000	1.241001
3848.000000	1.239119
3846.000000	1.236439
3844.000000	1.235198
3842.000000	1.233945
3840.000000	1.231620
3838.000000	1.232069
3836.000000	1.235812
3834.000000	1.237162
3832.000000	1.236575
3830.000000	1.236728
3828.000000	1.236499
3826.000000	1.235722
3824.000000	1.233580
3822.000000	1.232254
3820.000000	1.233770
3818.000000	1.233340
3816.000000	1.233807
3814.000000	1.237699
3812.000000	1.237869
3810.000000	1.234281
3808.000000	1.232593
3806.000000	1.233995
3804.000000	1.232975
3802.000000	1.231750
3800.000000	1.235315
3798.000000	1.237141
3796.000000	1.236489
3794.000000	1.236862
3792.000000	1.236756
3790.000000	1.236226
3788.000000	1.235866
3786.000000	1.235729
3784.000000	1.235739
3782.000000	1.235198
3780.000000	1.234991
3778.000000	1.236051
3776.000000	1.236597
3774.000000	1.235616
3772.000000	1.234034
3770.000000	1.233822
3768.000000	1.234803
3766.000000	1.235302
3764.000000	1.235380
3762.000000	1.234470
3760.000000	1.233663
3758.000000	1.234165
3756.000000	1.232788
3754.000000	1.228425
3752.000000	1.226567
3750.000000	1.229915
3748.000000	1.231039
3746.000000	1.227502
3744.000000	1.230212
3742.000000	1.236135
3740.000000	1.234142
3738.000000	1.229798
3736.000000	1.229625
3734.000000	1.231530
3732.000000	1.233421
3730.000000	1.234584
3728.000000	1.233531
3726.000000	1.232598
3724.000000	1.232926
3722.000000	1.233316
3720.000000	1.233792
3718.000000	1.233830
3716.000000	1.232310
3714.000000	1.229577
3712.000000	1.229570
3710.000000	1.232705
3708.000000	1.234560
3706.000000	1.233945
3704.000000	1.232438
3702.000000	1.232215
3700.000000	1.233337
3698.000000	1.233605
3696.000000	1.233006
3694.000000	1.231682
3692.000000	1.229014
3690.000000	1.227375
3688.000000	1.230470
3686.000000	1.234328
3684.000000	1.233835
3682.000000	1.231927
3680.000000	1.229967
3678.000000	1.226565
3676.000000	1.226185
3674.000000	1.229212
3672.000000	1.228499
3670.000000	1.228758
3668.000000	1.232416
3666.000000	1.233080
3664.000000	1.231805
3662.000000	1.231167
3660.000000	1.230106
3658.000000	1.228501
3656.000000	1.228932
3654.000000	1.229077
3652.000000	1.225631
3650.000000	1.224384
3648.000000	1.228295
3646.000000	1.231506
3644.000000	1.231323
3642.000000	1.230298
3640.000000	1.229934
3638.000000	1.229741
3636.000000	1.229339
3634.000000	1.228467
3632.000000	1.225643
3630.000000	1.223569
3628.000000	1.227190
3626.000000	1.230688
3624.000000	1.229357
3622.000000	1.226732
3620.000000	1.225900
3618.000000	1.227399
3616.000000	1.227989
3614.000000	1.226971
3612.000000	1.226415
3610.000000	1.226467
3608.000000	1.227619
3606.000000	1.228755
3604.000000	1.228318
3602.000000	1.227607
3600.000000	1.227537
3598.000000	1.227358
3596.000000	1.227099
3594.000000	1.227375
3592.000000	1.227032
3590.000000	1.225574
3588.000000	1.225444
3586.000000	1.227165
3584.000000	1.228092
3582.000000	1.227785
3580.000000	1.227441
3578.000000	1.227281
3576.000000	1.227233
3574.000000	1.227337
3572.000000	1.226872
3570.000000	1.225485
3568.000000	1.225042
3566.000000	1.226536
3564.000000	1.227640
3562.000000	1.227428
3560.000000	1.227235
3558.000000	1.227346
3556.000000	1.227155
3554.000000	1.226810
3552.000000	1.226975
3550.000000	1.227142
3548.000000	1.226779
3546.000000	1.226862
3544.000000	1.227479
3542.000000	1.227735
3540.000000	1.227565
3538.000000	1.227413
3536.000000	1.227529
3534.000000	1.227707
3532.000000	1.227663
3530.000000	1.227612
3528.000000	1.227723
3526.000000	1.227832
3524.000000	1.227875
3522.000000	1.228185
3520.000000	1.228558
3518.000000	1.228762
3516.000000	1.228934
3514.000000	1.228948
3512.000000	1.228859
3510.000000	1.229041
3508.000000	1.229408
3506.000000	1.229436
3504.000000	1.229439
3502.000000	1.229868
3500.000000	1.230126
3498.000000	1.230131
3496.000000	1.230392
3494.000000	1.230827
3492.000000	1.231074
3490.000000	1.231179
3488.000000	1.231391
3486.000000	1.231618
3484.000000	1.231728
3482.000000	1.232043
3480.000000	1.232492
3478.000000	1.232845
3476.000000	1.233148
3474.000000	1.233447
3472.000000	1.233697
3470.000000	1.233877
3468.000000	1.234206
3466.000000	1.234725
3464.000000	1.235196
3462.000000	1.235485
3460.000000	1.235779
3458.000000	1.236102
3456.000000	1.236427
3454.000000	1.236836
3452.000000	1.237240
3450.000000	1.237485
3448.000000	1.237711
3446.000000	1.238227
3444.000000	1.238784
3442.000000	1.239188
3440.000000	1.239546
3438.000000	1.239873
3436.000000	1.240191
3434.000000	1.240634
3432.000000	1.241126
3430.000000	1.241490
3428.000000	1.241818
3426.000000	1.242202
3424.000000	1.242519
3422.000000	1.242787
3420.000000	1.243213
3418.000000	1.243627
3416.000000	1.243745
3414.000000	1.243799
3412.000000	1.244070
3410.000000	1.244373
3408.000000	1.244608
3406.000000	1.244814
3404.000000	1.244932
3402.000000	1.245022
3400.000000	1.245246
3398.000000	1.245608
3396.000000	1.245800
3394.000000	1.245778
3392.000000	1.245880
3390.000000	1.246085
3388.000000	1.246241
3386.000000	1.246458
3384.000000	1.246679
3382.000000	1.246823
3380.000000	1.246920
3378.000000	1.247050
3376.000000	1.247265
3374.000000	1.247413
3372.000000	1.247395
3370.000000	1.247413
3368.000000	1.247535
3366.000000	1.247629
3364.000000	1.247690
3362.000000	1.247690
3360.000000	1.247739
3358.000000	1.247894
3356.000000	1.247988
3354.000000	1.248008
3352.000000	1.248112
3350.000000	1.248315
3348.000000	1.248426
3346.000000	1.248434
3344.000000	1.248446
3342.000000	1.248482
3340.000000	1.248508
3338.000000	1.248555
3336.000000	1.248694
3334.000000	1.248845
3332.000000	1.248941
3330.000000	1.248979
3328.000000	1.248987
3326.000000	1.249065
3324.000000	1.249214
3322.000000	1.249232
3320.000000	1.249157
3318.000000	1.249252
3316.000000	1.249416
3314.000000	1.249453
3312.000000	1.249449
3310.000000	1.249468
3308.000000	1.249479
3306.000000	1.249498
3304.000000	1.249622
3302.000000	1.249808
3300.000000	1.249818
3298.000000	1.249705
3296.000000	1.249737
3294.000000	1.249773
3292.000000	1.249695
3290.000000	1.249857
3288.000000	1.250066
3286.000000	1.250044
3284.000000	1.249972
3282.000000	1.249972
3280.000000	1.250048
3278.000000	1.250144
3276.000000	1.250141
3274.000000	1.250132
3272.000000	1.250200
3270.000000	1.250326
3268.000000	1.250455
3266.000000	1.250498
3264.000000	1.250520
3262.000000	1.250523
3260.000000	1.250500
3258.000000	1.250587
3256.000000	1.250694
3254.000000	1.250702
3252.000000	1.250660
3250.000000	1.250626
3248.000000	1.250618
3246.000000	1.250643
3244.000000	1.250759
3242.000000	1.250877
3240.000000	1.250933
3238.000000	1.250978
3236.000000	1.251047
3234.000000	1.251092
3232.000000	1.251130
3230.000000	1.251265
3228.000000	1.251282
3226.000000	1.251203
3224.000000	1.251310
3222.000000	1.251380
3220.000000	1.251311
3218.000000	1.251308
3216.000000	1.251342
3214.000000	1.251412
3212.000000	1.251494
3210.000000	1.251523
3208.000000	1.251568
3206.000000	1.251623
3204.000000	1.251672
3202.000000	1.251706
3200.000000	1.251712
3198.000000	1.251705
3196.000000	1.251695
3194.000000	1.251671
3192.000000	1.251736
3190.000000	1.251790
3188.000000	1.251782
3186.000000	1.251751
3184.000000	1.251754
3182.000000	1.251762
3180.000000	1.251796
3178.000000	1.251832
3176.000000	1.251816
3174.000000	1.251864
3172.000000	1.251847
3170.000000	1.251892
3168.000000	1.252035
3166.000000	1.252097
3164.000000	1.252090
3162.000000	1.252146
3160.000000	1.252267
3158.000000	1.252238
3156.000000	1.252153
3154.000000	1.252194
3152.000000	1.252271
3150.000000	1.252325
3148.000000	1.252413
3146.000000	1.252511
3144.000000	1.252496
3142.000000	1.252392
3140.000000	1.252298
3138.000000	1.252349
3136.000000	1.252494
3134.000000	1.252662
3132.000000	1.252765
3130.000000	1.252819
3128.000000	1.252814
3126.000000	1.252784
3124.000000	1.252762
3122.000000	1.252668
3120.000000	1.252515
3118.000000	1.252483
3116.000000	1.252557
3114.000000	1.252657
3112.000000	1.252729
3110.000000	1.252567
3108.000000	1.252420
3106.000000	1.252516
3104.000000	1.252578
3102.000000	1.252525
3100.000000	1.252516
3098.000000	1.252515
3096.000000	1.252451
3094.000000	1.252397
3092.000000	1.252428
3090.000000	1.252455
3088.000000	1.252383
3086.000000	1.252149
3084.000000	1.251956
3082.000000	1.251914
3080.000000	1.251893
3078.000000	1.251813
3076.000000	1.251750
3074.000000	1.251669
3072.000000	1.251555
3070.000000	1.251445
3068.000000	1.251353
3066.000000	1.251388
3064.000000	1.251536
3062.000000	1.251606
3060.000000	1.251455
3058.000000	1.251239
3056.000000	1.251196
3054.000000	1.251273
3052.000000	1.251238
3050.000000	1.251143
3048.000000	1.251082
3046.000000	1.250991
3044.000000	1.250891
3042.000000	1.250931
3040.000000	1.251038
3038.000000	1.250988
3036.000000	1.250792
3034.000000	1.250674
3032.000000	1.250622
3030.000000	1.250539
3028.000000	1.250390
3026.000000	1.250137
3024.000000	1.249957
3022.000000	1.250011
3020.000000	1.250233
3018.000000	1.250622
3016.000000	1.250985
3014.000000	1.251092
3012.000000	1.251100
3010.000000	1.251046
3008.000000	1.250809
3006.000000	1.250525
3004.000000	1.250454
3002.000000	1.250464
3000.000000	1.250367
2998.000000	1.250179
2996.000000	1.250063
2994.000000	1.250014
2992.000000	1.249958
2990.000000	1.249922
2988.000000	1.249895
2986.000000	1.249934
2984.000000	1.249875
2982.000000	1.249716
2980.000000	1.249654
2978.000000	1.249653
2976.000000	1.249571
2974.000000	1.249468
2972.000000	1.249440
2970.000000	1.249481
2968.000000	1.249705
2966.000000	1.250281
2964.000000	1.251080
2962.000000	1.251818
2960.000000	1.252172
2958.000000	1.251999
2956.000000	1.251559
2954.000000	1.251055
2952.000000	1.250652
2950.000000	1.250231
2948.000000	1.249643
2946.000000	1.249116
2944.000000	1.248690
2942.000000	1.248284
2940.000000	1.248015
2938.000000	1.247963
2936.000000	1.248105
2934.000000	1.248235
2932.000000	1.248266
2930.000000	1.248312
2928.000000	1.248546
2926.000000	1.249178
2924.000000	1.250093
2922.000000	1.250956
2920.000000	1.251625
2918.000000	1.251903
2916.000000	1.251779
2914.000000	1.251468
2912.000000	1.251082
2910.000000	1.250701
2908.000000	1.250385
2906.000000	1.250155
2904.000000	1.249999
2902.000000	1.249816
2900.000000	1.249666
2898.000000	1.249585
2896.000000	1.249476
2894.000000	1.249315
2892.000000	1.249149
2890.000000	1.249105
2888.000000	1.248980
2886.000000	1.248752
2884.000000	1.248622
2882.000000	1.248505
2880.000000	1.248295
2878.000000	1.248127
2876.000000	1.248000
2874.000000	1.247765
2872.000000	1.247493
2870.000000	1.247102
2868.000000	1.246644
2866.000000	1.246325
2864.000000	1.246444
2862.000000	1.247169
2860.000000	1.248030
2858.000000	1.248572
2856.000000	1.248829
2854.000000	1.248933
2852.000000	1.249065
2850.000000	1.249339
2848.000000	1.249550
2846.000000	1.249445
2844.000000	1.249174
2842.000000	1.248935
2840.000000	1.248681
2838.000000	1.248482
2836.000000	1.248360
2834.000000	1.248206
2832.000000	1.248089
2830.000000	1.248071
2828.000000	1.248065
2826.000000	1.248034
2824.000000	1.248017
2822.000000	1.247958
2820.000000	1.247889
2818.000000	1.247841
2816.000000	1.247770
2814.000000	1.247744
2812.000000	1.247737
2810.000000	1.247641
2808.000000	1.247492
2806.000000	1.247415
2804.000000	1.247457
2802.000000	1.247486
2800.000000	1.247442
2798.000000	1.247377
2796.000000	1.247307
2794.000000	1.247283
2792.000000	1.247358
2790.000000	1.247428
2788.000000	1.247476
2786.000000	1.247518
2784.000000	1.247490
2782.000000	1.247359
2780.000000	1.247335
2778.000000	1.247401
2776.000000	1.247331
2774.000000	1.247254
2772.000000	1.247227
2770.000000	1.247171
2768.000000	1.247125
2766.000000	1.247133
2764.000000	1.247251
2762.000000	1.247193
2760.000000	1.247117
2758.000000	1.247178
2756.000000	1.247252
2754.000000	1.247257
2752.000000	1.247208
2750.000000	1.247196
2748.000000	1.247239
2746.000000	1.247277
2744.000000	1.247226
2742.000000	1.247175
2740.000000	1.247231
2738.000000	1.247339
2736.000000	1.247410
2734.000000	1.247383
2732.000000	1.247339
2730.000000	1.247327
2728.000000	1.247467
2726.000000	1.247568
2724.000000	1.247560
2722.000000	1.247526
2720.000000	1.247558
2718.000000	1.247680
2716.000000	1.247809
2714.000000	1.247914
2712.000000	1.247974
2710.000000	1.247990
2708.000000	1.248080
2706.000000	1.248186
2704.000000	1.248208
2702.000000	1.248209
2700.000000	1.248253
2698.000000	1.248366
2696.000000	1.248492
2694.000000	1.248616
2692.000000	1.248681
2690.000000	1.248687
2688.000000	1.248790
2686.000000	1.248863
2684.000000	1.248889
2682.000000	1.248926
2680.000000	1.248986
2678.000000	1.249077
2676.000000	1.249231
2674.000000	1.249312
2672.000000	1.249422
2670.000000	1.249509
2668.000000	1.249472
2666.000000	1.249442
2664.000000	1.249481
2662.000000	1.249560
2660.000000	1.249726
2658.000000	1.249909
2656.000000	1.250009
2654.000000	1.250065
2652.000000	1.250128
2650.000000	1.250119
2648.000000	1.250113
2646.000000	1.250118
2644.000000	1.250176
2642.000000	1.250248
2640.000000	1.250236
2638.000000	1.250207
2636.000000	1.250293
2634.000000	1.250331
2632.000000	1.250313
2630.000000	1.250374
2628.000000	1.250435
2626.000000	1.250432
2624.000000	1.250448
2622.000000	1.250441
2620.000000	1.250404
2618.000000	1.250384
2616.000000	1.250420
2614.000000	1.250497
2612.000000	1.250575
2610.000000	1.250571
2608.000000	1.250597
2606.000000	1.250620
2604.000000	1.250602
2602.000000	1.250547
2600.000000	1.250484
2598.000000	1.250524
2596.000000	1.250628
2594.000000	1.250636
2592.000000	1.250650
2590.000000	1.250678
2588.000000	1.250764
2586.000000	1.250826
2584.000000	1.250862
2582.000000	1.250858
2580.000000	1.250861
2578.000000	1.250893
2576.000000	1.250916
2574.000000	1.250942
2572.000000	1.250920
2570.000000	1.250886
2568.000000	1.250944
2566.000000	1.250943
2564.000000	1.250952
2562.000000	1.250970
2560.000000	1.250916
2558.000000	1.250925
2556.000000	1.251022
2554.000000	1.251054
2552.000000	1.251006
2550.000000	1.250975
2548.000000	1.250964
2546.000000	1.250929
2544.000000	1.250925
2542.000000	1.250965
2540.000000	1.250965
2538.000000	1.250887
2536.000000	1.250800
2534.000000	1.250757
2532.000000	1.250753
2530.000000	1.250770
2528.000000	1.250794
2526.000000	1.250777
2524.000000	1.250801
2522.000000	1.250873
2520.000000	1.250907
2518.000000	1.250821
2516.000000	1.250781
2514.000000	1.250806
2512.000000	1.250851
2510.000000	1.250853
2508.000000	1.250820
2506.000000	1.250736
2504.000000	1.250796
2502.000000	1.250871
2500.000000	1.250784
2498.000000	1.250745
2496.000000	1.250848
2494.000000	1.250799
2492.000000	1.250683
2490.000000	1.250627
2488.000000	1.250602
2486.000000	1.250588
2484.000000	1.250647
2482.000000	1.250676
2480.000000	1.250618
2478.000000	1.250594
2476.000000	1.250672
2474.000000	1.250748
2472.000000	1.250794
2470.000000	1.250783
2468.000000	1.250808
2466.000000	1.250818
2464.000000	1.250791
2462.000000	1.250728
2460.000000	1.250721
2458.000000	1.250695
2456.000000	1.250663
2454.000000	1.250575
2452.000000	1.250523
2450.000000	1.250594
2448.000000	1.250694
2446.000000	1.250632
2444.000000	1.250583
2442.000000	1.250635
2440.000000	1.250592
2438.000000	1.250542
2436.000000	1.250657
2434.000000	1.250746
2432.000000	1.250652
2430.000000	1.250500
2428.000000	1.250568
2426.000000	1.250619
2424.000000	1.250626
2422.000000	1.250587
2420.000000	1.250475
2418.000000	1.250405
2416.000000	1.250399
2414.000000	1.250447
2412.000000	1.250534
2410.000000	1.250561
2408.000000	1.250553
2406.000000	1.250525
2404.000000	1.250469
2402.000000	1.250432
2400.000000	1.250333
2398.000000	1.250222
2396.000000	1.250127
2394.000000	1.250164
2392.000000	1.250284
2390.000000	1.250318
2388.000000	1.250294
2386.000000	1.250291
2384.000000	1.250256
2382.000000	1.250084
2380.000000	1.249850
2378.000000	1.249600
2376.000000	1.249319
2374.000000	1.249074
2372.000000	1.248801
2370.000000	1.248501
2368.000000	1.248345
2366.000000	1.248256
2364.000000	1.248302
2362.000000	1.248411
2360.000000	1.248651
2358.000000	1.248985
2356.000000	1.249316
2354.000000	1.249746
2352.000000	1.250065
2350.000000	1.249921
2348.000000	1.249271
2346.000000	1.248836
2344.000000	1.249100
2342.000000	1.249754
2340.000000	1.250500
2338.000000	1.250628
2336.000000	1.250161
2334.000000	1.249712
2332.000000	1.249432
2330.000000	1.249426
2328.000000	1.249565
2326.000000	1.249659
2324.000000	1.249728
2322.000000	1.249765
2320.000000	1.249756
2318.000000	1.249664
2316.000000	1.249688
2314.000000	1.249896
2312.000000	1.250088
2310.000000	1.250107
2308.000000	1.250037
2306.000000	1.250088
2304.000000	1.250165
2302.000000	1.250175
2300.000000	1.250170
2298.000000	1.250040
2296.000000	1.250052
2294.000000	1.250144
2292.000000	1.250169
2290.000000	1.250172
2288.000000	1.250162
2286.000000	1.250138
2284.000000	1.250185
2282.000000	1.250218
2280.000000	1.250135
2278.000000	1.250083
2276.000000	1.250099
2274.000000	1.250110
2272.000000	1.250122
2270.000000	1.250085
2268.000000	1.250016
2266.000000	1.249959
2264.000000	1.249994
2262.000000	1.250019
2260.000000	1.249986
2258.000000	1.249937
2256.000000	1.250017
2254.000000	1.250063
2252.000000	1.250091
2250.000000	1.250071
2248.000000	1.249971
2246.000000	1.249902
2244.000000	1.249884
2242.000000	1.249827
2240.000000	1.249771
2238.000000	1.249754
2236.000000	1.249756
2234.000000	1.249716
2232.000000	1.249696
2230.000000	1.249664
2228.000000	1.249570
2226.000000	1.249513
2224.000000	1.249582
2222.000000	1.249464
2220.000000	1.249328
2218.000000	1.249239
2216.000000	1.249298
2214.000000	1.249388
2212.000000	1.249317
2210.000000	1.249167
2208.000000	1.249049
2206.000000	1.249007
2204.000000	1.249028
2202.000000	1.248925
2200.000000	1.248814
2198.000000	1.248762
2196.000000	1.248732
2194.000000	1.248711
2192.000000	1.248723
2190.000000	1.248699
2188.000000	1.248684
2186.000000	1.248597
2184.000000	1.248579
2182.000000	1.248644
2180.000000	1.248619
2178.000000	1.248479
2176.000000	1.248384
2174.000000	1.248250
2172.000000	1.248236
2170.000000	1.248301
2168.000000	1.248265
2166.000000	1.248092
2164.000000	1.247951
2162.000000	1.247946
2160.000000	1.247964
2158.000000	1.247913
2156.000000	1.247892
2154.000000	1.247801
2152.000000	1.247770
2150.000000	1.247684
2148.000000	1.247634
2146.000000	1.247578
2144.000000	1.247522
2142.000000	1.247452
2140.000000	1.247383
2138.000000	1.247323
2136.000000	1.247251
2134.000000	1.247138
2132.000000	1.247121
2130.000000	1.247136
2128.000000	1.247075
2126.000000	1.246991
2124.000000	1.247018
2122.000000	1.246943
2120.000000	1.246875
2118.000000	1.246757
2116.000000	1.246678
2114.000000	1.246648
2112.000000	1.246627
2110.000000	1.246585
2108.000000	1.246568
2106.000000	1.246529
2104.000000	1.246501
2102.000000	1.246455
2100.000000	1.246391
2098.000000	1.246348
2096.000000	1.246319
2094.000000	1.246308
2092.000000	1.246345
2090.000000	1.246282
2088.000000	1.246166
2086.000000	1.246062
2084.000000	1.246024
2082.000000	1.245986
2080.000000	1.246031
2078.000000	1.246042
2076.000000	1.246024
2074.000000	1.245880
2072.000000	1.245828
2070.000000	1.245832
2068.000000	1.245877
2066.000000	1.245833
2064.000000	1.245829
2062.000000	1.245774
2060.000000	1.245680
2058.000000	1.245527
2056.000000	1.245383
2054.000000	1.245222
2052.000000	1.245423
2050.000000	1.245642
2048.000000	1.245608
2046.000000	1.245426
2044.000000	1.245332
2042.000000	1.245281
2040.000000	1.245252
2038.000000	1.245221
2036.000000	1.245129
2034.000000	1.245037
2032.000000	1.245029
2030.000000	1.245045
2028.000000	1.245079
2026.000000	1.244983
2024.000000	1.244883
2022.000000	1.244788
2020.000000	1.244687
2018.000000	1.244553
2016.000000	1.244538
2014.000000	1.244596
2012.000000	1.244645
2010.000000	1.244624
2008.000000	1.244656
2006.000000	1.244737
2004.000000	1.244754
2002.000000	1.244690
2000.000000	1.244631
1998.000000	1.244575
1996.000000	1.244604
1994.000000	1.244397
1992.000000	1.244242
1990.000000	1.244453
1988.000000	1.244515
1986.000000	1.244448
1984.000000	1.244422
1982.000000	1.244423
1980.000000	1.244364
1978.000000	1.244335
1976.000000	1.244298
1974.000000	1.244193
1972.000000	1.244170
1970.000000	1.244052
1968.000000	1.243945
1966.000000	1.244110
1964.000000	1.244145
1962.000000	1.244027
1960.000000	1.244003
1958.000000	1.244281
1956.000000	1.244384
1954.000000	1.244271
1952.000000	1.244152
1950.000000	1.244107
1948.000000	1.244168
1946.000000	1.244027
1944.000000	1.243706
1942.000000	1.243834
1940.000000	1.244251
1938.000000	1.244332
1936.000000	1.244386
1934.000000	1.244268
1932.000000	1.244218
1930.000000	1.244299
1928.000000	1.244290
1926.000000	1.244078
1924.000000	1.243925
1922.000000	1.243979
1920.000000	1.243530
1918.000000	1.243496
1916.000000	1.244452
1914.000000	1.244415
1912.000000	1.244145
1910.000000	1.244166
1908.000000	1.244443
1906.000000	1.244479
1904.000000	1.244439
1902.000000	1.244381
1900.000000	1.244367
1898.000000	1.244269
1896.000000	1.244288
1894.000000	1.244395
1892.000000	1.244130
1890.000000	1.243826
1888.000000	1.244352
1886.000000	1.244499
1884.000000	1.244522
1882.000000	1.244465
1880.000000	1.244434
1878.000000	1.244413
1876.000000	1.244468
1874.000000	1.244399
1872.000000	1.243744
1870.000000	1.242859
1868.000000	1.243674
1866.000000	1.244487
1864.000000	1.244537
1862.000000	1.244395
1860.000000	1.244392
1858.000000	1.244319
1856.000000	1.244375
1854.000000	1.244389
1852.000000	1.244447
1850.000000	1.244149
1848.000000	1.243656
1846.000000	1.242071
1844.000000	1.242437
1842.000000	1.244515
1840.000000	1.244529
1838.000000	1.244241
1836.000000	1.244400
1834.000000	1.244239
1832.000000	1.243269
1830.000000	1.243083
1828.000000	1.243882
1826.000000	1.243610
1824.000000	1.244252
1822.000000	1.244684
1820.000000	1.244495
1818.000000	1.244395
1816.000000	1.244559
1814.000000	1.244363
1812.000000	1.244088
1810.000000	1.244235
1808.000000	1.244559
1806.000000	1.244485
1804.000000	1.244032
1802.000000	1.243401
1800.000000	1.243762
1798.000000	1.244201
1796.000000	1.243602
1794.000000	1.241777
1792.000000	1.242449
1790.000000	1.244529
1788.000000	1.244511
1786.000000	1.243687
1784.000000	1.243963
1782.000000	1.244006
1780.000000	1.244212
1778.000000	1.244383
1776.000000	1.243165
1774.000000	1.240595
1772.000000	1.241434
1770.000000	1.243404
1768.000000	1.243730
1766.000000	1.244735
1764.000000	1.243603
1762.000000	1.243217
1760.000000	1.244412
1758.000000	1.243972
1756.000000	1.244252
1754.000000	1.243518
1752.000000	1.241588
1750.000000	1.242863
1748.000000	1.244180
1746.000000	1.244451
1744.000000	1.244247
1742.000000	1.243440
1740.000000	1.243300
1738.000000	1.243888
1736.000000	1.239667
1734.000000	1.239414
1732.000000	1.244781
1730.000000	1.245720
1728.000000	1.245775
1726.000000	1.245667
1724.000000	1.245652
1722.000000	1.245085
1720.000000	1.241493
1718.000000	1.239257
1716.000000	1.243137
1714.000000	1.245596
1712.000000	1.246083
1710.000000	1.245477
1708.000000	1.244658
1706.000000	1.243987
1704.000000	1.243801
1702.000000	1.239072
1700.000000	1.239507
1698.000000	1.241324
1696.000000	1.241209
1694.000000	1.246562
1692.000000	1.247069
1690.000000	1.245929
1688.000000	1.243920
1686.000000	1.238660
1684.000000	1.240990
1682.000000	1.246754
1680.000000	1.246897
1678.000000	1.245326
1676.000000	1.243518
1674.000000	1.245397
1672.000000	1.244888
1670.000000	1.243954
1668.000000	1.246449
1666.000000	1.247153
1664.000000	1.245501
1662.000000	1.246388
1660.000000	1.247621
1658.000000	1.246712
1656.000000	1.241030
1654.000000	1.234846
1652.000000	1.242342
1650.000000	1.247255
1648.000000	1.243449
1646.000000	1.244639
1644.000000	1.248233
1642.000000	1.248344
1640.000000	1.247234
1638.000000	1.244030
1636.000000	1.242595
1634.000000	1.247157
1632.000000	1.248760
1630.000000	1.247502
1628.000000	1.247199
1626.000000	1.246826
1624.000000	1.245954
1622.000000	1.247279
1620.000000	1.246505
1618.000000	1.243008
1616.000000	1.245197
1614.000000	1.248425
1612.000000	1.247835
1610.000000	1.248050
1608.000000	1.248758
1606.000000	1.249400
1604.000000	1.249512
1602.000000	1.249702
1600.000000	1.249724
1598.000000	1.249700
1596.000000	1.249570
1594.000000	1.249577
1592.000000	1.249461
1590.000000	1.249449
1588.000000	1.249517
1586.000000	1.249619
1584.000000	1.249562
1582.000000	1.249583
1580.000000	1.248607
1578.000000	1.244711
1576.000000	1.245070
1574.000000	1.249450
1572.000000	1.247790
1570.000000	1.246607
1568.000000	1.248429
1566.000000	1.248756
1564.000000	1.247764
1562.000000	1.242665
1560.000000	1.237296
1558.000000	1.242972
1556.000000	1.247299
1554.000000	1.247894
1552.000000	1.249010
1550.000000	1.248995
1548.000000	1.248875
1546.000000	1.247172
1544.000000	1.244779
1542.000000	1.241073
1540.000000	1.241203
1538.000000	1.247679
1536.000000	1.248717
1534.000000	1.246935
1532.000000	1.248674
1530.000000	1.248775
1528.000000	1.247337
1526.000000	1.246569
1524.000000	1.244937
1522.000000	1.242984
1520.000000	1.245868
1518.000000	1.246876
1516.000000	1.247374
1514.000000	1.248085
1512.000000	1.247642
1510.000000	1.245282
1508.000000	1.240322
1506.000000	1.242489
1504.000000	1.248071
1502.000000	1.247024
1500.000000	1.243495
1498.000000	1.241135
1496.000000	1.244017
1494.000000	1.249400
1492.000000	1.250413
1490.000000	1.250298
1488.000000	1.250835
1486.000000	1.251019
1484.000000	1.250766
1482.000000	1.250004
1480.000000	1.249625
1478.000000	1.248334
1476.000000	1.246619
1474.000000	1.244783
1472.000000	1.246427
1470.000000	1.249119
1468.000000	1.248511
1466.000000	1.247050
1464.000000	1.247983
1462.000000	1.248365
1460.000000	1.244680
1458.000000	1.240570
1456.000000	1.243887
1454.000000	1.247832
1452.000000	1.248297
1450.000000	1.249205
1448.000000	1.249892
1446.000000	1.250293
1444.000000	1.249698
1442.000000	1.249279
1440.000000	1.248020
1438.000000	1.245477
1436.000000	1.246718
1434.000000	1.249004
1432.000000	1.248274
1430.000000	1.248125
1428.000000	1.248634
1426.000000	1.248465
1424.000000	1.248085
1422.000000	1.246847
1420.000000	1.244803
1418.000000	1.246953
1416.000000	1.248547
1414.000000	1.248515
1412.000000	1.248183
1410.000000	1.247937
1408.000000	1.247431
1406.000000	1.247137
1404.000000	1.248026
1402.000000	1.248749
1400.000000	1.248215
1398.000000	1.248302
1396.000000	1.247542
1394.000000	1.247933
1392.000000	1.248751
1390.000000	1.247797
1388.000000	1.246803
1386.000000	1.247629
1384.000000	1.248475
1382.000000	1.248755
1380.000000	1.248343
1378.000000	1.247849
1376.000000	1.247257
1374.000000	1.247397
1372.000000	1.248009
1370.000000	1.247957
1368.000000	1.247799
1366.000000	1.247553
1364.000000	1.246884
1362.000000	1.246981
1360.000000	1.247467
1358.000000	1.247507
1356.000000	1.247335
1354.000000	1.247487
1352.000000	1.247675
1350.000000	1.247645
1348.000000	1.247449
1346.000000	1.247302
1344.000000	1.247132
1342.000000	1.246779
1340.000000	1.246717
1338.000000	1.247118
1336.000000	1.247193
1334.000000	1.247049
1332.000000	1.246989
1330.000000	1.247032
1328.000000	1.246843
1326.000000	1.246810
1324.000000	1.246794
1322.000000	1.246686
1320.000000	1.246394
1318.000000	1.246353
1316.000000	1.246293
1314.000000	1.246218
1312.000000	1.246384
1310.000000	1.246475
1308.000000	1.246302
1306.000000	1.246189
1304.000000	1.246079
1302.000000	1.246030
1300.000000	1.246017
1298.000000	1.245985
1296.000000	1.245902
1294.000000	1.245988
1292.000000	1.245993
1290.000000	1.245960
1288.000000	1.245792
1286.000000	1.245825
1284.000000	1.245801
1282.000000	1.245679
1280.000000	1.245752
1278.000000	1.246002
1276.000000	1.246128
1274.000000	1.246113
1272.000000	1.246030
1270.000000	1.246285
1268.000000	1.246820
1266.000000	1.247930
1264.000000	1.249897
1262.000000	1.252571
1260.000000	1.255009
1258.000000	1.255973
1256.000000	1.254880
1254.000000	1.252906
1252.000000	1.251049
1250.000000	1.249986
1248.000000	1.249528
1246.000000	1.249380
1244.000000	1.249427
1242.000000	1.249684
1240.000000	1.249838
1238.000000	1.250060
1236.000000	1.250332
1234.000000	1.250820
1232.000000	1.251156
1230.000000	1.251346
1228.000000	1.251445
1226.000000	1.251690
1224.000000	1.252046
1222.000000	1.252345
1220.000000	1.252606
1218.000000	1.252746
1216.000000	1.252790
1214.000000	1.253154
1212.000000	1.253482
1210.000000	1.253920
1208.000000	1.254231
1206.000000	1.254597
1204.000000	1.255048
1202.000000	1.255406
1200.000000	1.255596
1198.000000	1.255804
1196.000000	1.255855
1194.000000	1.256067
1192.000000	1.256329
1190.000000	1.256787
1188.000000	1.257072
1186.000000	1.257275
1184.000000	1.257560
1182.000000	1.257943
1180.000000	1.259041
1178.000000	1.260098
1176.000000	1.260261
1174.000000	1.260434
1172.000000	1.260655
1170.000000	1.260914
1168.000000	1.261115
1166.000000	1.261400
1164.000000	1.261971
1162.000000	1.262523
1160.000000	1.262729
1158.000000	1.263132
1156.000000	1.263868
1154.000000	1.264152
1152.000000	1.264076
1150.000000	1.264544
1148.000000	1.265124
1146.000000	1.265541
1144.000000	1.265567
1142.000000	1.265931
1140.000000	1.266421
1138.000000	1.266839
1136.000000	1.266889
1134.000000	1.266726
1132.000000	1.266981
1130.000000	1.267588
1128.000000	1.267870
1126.000000	1.268073
1124.000000	1.268161
1122.000000	1.268086
1120.000000	1.268339
1118.000000	1.268963
1116.000000	1.269341
1114.000000	1.269773
1112.000000	1.270328
1110.000000	1.271001
1108.000000	1.271266
1106.000000	1.271520
1104.000000	1.271985
1102.000000	1.272696
1100.000000	1.273260
1098.000000	1.273563
1096.000000	1.273823
1094.000000	1.274311
1092.000000	1.274773
1090.000000	1.275164
1088.000000	1.275115
1086.000000	1.274654
1084.000000	1.273896
1082.000000	1.273637
1080.000000	1.273711
1078.000000	1.273706
1076.000000	1.273483
1074.000000	1.273920
1072.000000	1.273666
1070.000000	1.273071
1068.000000	1.272615
1066.000000	1.272060
1064.000000	1.271450
1062.000000	1.270958
1060.000000	1.270607
1058.000000	1.269988
1056.000000	1.268331
1054.000000	1.266844
1052.000000	1.266735
1050.000000	1.268839
1048.000000	1.270522
1046.000000	1.269940
1044.000000	1.268119
1042.000000	1.266747
1040.000000	1.266136
1038.000000	1.265646
1036.000000	1.265019
1034.000000	1.264704
1032.000000	1.264295
1030.000000	1.263944
1028.000000	1.263530
1026.000000	1.263629
1024.000000	1.263010
1022.000000	1.261791
1020.000000	1.261418
1018.000000	1.262035
1016.000000	1.261582
1014.000000	1.260137
1012.000000	1.257769
1010.000000	1.255534
1008.000000	1.253584
1006.000000	1.252279
1004.000000	1.250598
1002.000000	1.249064
1000.000000	1.247745
