PE IR       SUBTECH     SPECTRUM    ASCII       PEDS        4.00        
   -1
TE108B2_003_1.ASC
20/02/27
13:19:24.00
20/02/27
13:19:24.00
Administrator
Sample 003 By Administrator Date Thursday, February 27 2020
1500.000000
#HDR
-1
-1
#GR
cm-1
EGY
1.0
0.0
4000.000000
-1.000000
2501
8
101.652591
68.648585
#DATA
4000.000000	68.648585
3999.000000	68.677046
3998.000000	68.704809
3997.000000	68.732602
3996.000000	68.761333
3995.000000	68.791658
3994.000000	68.823357
3993.000000	68.855486
3992.000000	68.887110
3991.000000	68.917933
3990.000000	68.948599
3989.000000	68.980341
3988.000000	69.013806
3987.000000	69.048051
3986.000000	69.081130
3985.000000	69.111900
3984.000000	69.140959
3983.000000	69.169862
3982.000000	69.199864
3981.000000	69.231275
3980.000000	69.263322
3979.000000	69.294425
3978.000000	69.323280
3977.000000	69.350110
3976.000000	69.376510
3975.000000	69.403992
3974.000000	69.432932
3973.000000	69.462920
3972.000000	69.493497
3971.000000	69.524454
3970.000000	69.555935
3969.000000	69.588340
3968.000000	69.621494
3967.000000	69.653778
3966.000000	69.682875
3965.000000	69.707929
3964.000000	69.730670
3963.000000	69.754227
3962.000000	69.780986
3961.000000	69.811496
3960.000000	69.844627
3959.000000	69.878459
3958.000000	69.911467
3957.000000	69.943166
3956.000000	69.973492
3955.000000	70.001591
3954.000000	70.025810
3953.000000	70.045125
3952.000000	70.060511
3951.000000	70.075076
3950.000000	70.093115
3949.000000	70.118043
3948.000000	70.149679
3947.000000	70.183330
3946.000000	70.213034
3945.000000	70.237105
3944.000000	70.260253
3943.000000	70.289819
3942.000000	70.329817
3941.000000	70.378386
3940.000000	70.429646
3939.000000	70.476927
3938.000000	70.514759
3937.000000	70.539535
3936.000000	70.550336
3935.000000	70.550552
3934.000000	70.548845
3933.000000	70.557017
3932.000000	70.583926
3931.000000	70.629474
3930.000000	70.684006
3929.000000	70.734344
3928.000000	70.772010
3927.000000	70.797455
3926.000000	70.818143
3925.000000	70.842159
3924.000000	70.871887
3923.000000	70.902060
3922.000000	70.924052
3921.000000	70.933352
3920.000000	70.934567
3919.000000	70.940310
3918.000000	70.964697
3917.000000	71.015538
3916.000000	71.089456
3915.000000	71.173567
3914.000000	71.252758
3913.000000	71.317634
3912.000000	71.366598
3911.000000	71.400981
3910.000000	71.418267
3909.000000	71.410071
3908.000000	71.367456
3907.000000	71.290547
3906.000000	71.194463
3905.000000	71.105353
3904.000000	71.047977
3903.000000	71.035013
3902.000000	71.066881
3901.000000	71.138972
3900.000000	71.246391
3899.000000	71.380957
3898.000000	71.525266
3897.000000	71.652120
3896.000000	71.732541
3895.000000	71.750851
3894.000000	71.718131
3893.000000	71.671559
3892.000000	71.652762
3891.000000	71.677106
3890.000000	71.721224
3889.000000	71.744248
3888.000000	71.727069
3887.000000	71.691997
3886.000000	71.682881
3885.000000	71.724324
3884.000000	71.801440
3883.000000	71.879261
3882.000000	71.939459
3881.000000	71.993640
3880.000000	72.061336
3879.000000	72.141435
3878.000000	72.210633
3877.000000	72.247106
3876.000000	72.247244
3875.000000	72.217753
3874.000000	72.160451
3873.000000	72.075780
3872.000000	71.981575
3871.000000	71.917545
3870.000000	71.920854
3869.000000	71.993414
3868.000000	72.097690
3867.000000	72.187792
3866.000000	72.246586
3865.000000	72.292474
3864.000000	72.354522
3863.000000	72.444983
3862.000000	72.553912
3861.000000	72.657635
3860.000000	72.720818
3859.000000	72.692152
3858.000000	72.518693
3857.000000	72.188282
3856.000000	71.770098
3855.000000	71.407130
3854.000000	71.249497
3853.000000	71.370623
3852.000000	71.727320
3851.000000	72.191627
3850.000000	72.625898
3849.000000	72.944819
3848.000000	73.129185
3847.000000	73.203526
3846.000000	73.207153
3845.000000	73.176253
3844.000000	73.132053
3843.000000	73.072998
3842.000000	72.980213
3841.000000	72.842603
3840.000000	72.684000
3839.000000	72.563481
3838.000000	72.542022
3837.000000	72.640035
3836.000000	72.822965
3835.000000	73.026442
3834.000000	73.199663
3833.000000	73.329947
3832.000000	73.433044
3831.000000	73.525300
3830.000000	73.608034
3829.000000	73.674416
3828.000000	73.721806
3827.000000	73.749246
3826.000000	73.745530
3825.000000	73.691686
3824.000000	73.585857
3823.000000	73.463471
3822.000000	73.380752
3821.000000	73.367018
3820.000000	73.395802
3819.000000	73.412271
3818.000000	73.394951
3817.000000	73.386382
3816.000000	73.456158
3815.000000	73.634468
3814.000000	73.881153
3813.000000	74.114274
3812.000000	74.261130
3811.000000	74.290227
3810.000000	74.217089
3809.000000	74.096447
3808.000000	73.998889
3807.000000	73.967933
3806.000000	73.985597
3805.000000	73.987690
3804.000000	73.928657
3803.000000	73.834512
3802.000000	73.786942
3801.000000	73.851115
3800.000000	74.019900
3799.000000	74.227001
3798.000000	74.406963
3797.000000	74.539964
3796.000000	74.644795
3795.000000	74.743136
3794.000000	74.837279
3793.000000	74.916501
3792.000000	74.973871
3791.000000	75.012240
3790.000000	75.038287
3789.000000	75.056403
3788.000000	75.068967
3787.000000	75.079550
3786.000000	75.093038
3785.000000	75.111457
3784.000000	75.129970
3783.000000	75.139114
3782.000000	75.134369
3781.000000	75.125111
3780.000000	75.131690
3779.000000	75.170377
3778.000000	75.239890
3777.000000	75.322125
3776.000000	75.393724
3775.000000	75.435485
3774.000000	75.436518
3773.000000	75.398373
3772.000000	75.339513
3771.000000	75.290313
3770.000000	75.275838
3769.000000	75.300694
3768.000000	75.351775
3767.000000	75.414202
3766.000000	75.480887
3765.000000	75.547089
3764.000000	75.601288
3763.000000	75.627966
3762.000000	75.621517
3761.000000	75.596362
3760.000000	75.580367
3759.000000	75.593206
3758.000000	75.624694
3757.000000	75.631525
3756.000000	75.559914
3755.000000	75.380995
3754.000000	75.116711
3753.000000	74.838810
3752.000000	74.638714
3751.000000	74.581363
3750.000000	74.661295
3749.000000	74.793426
3748.000000	74.862734
3747.000000	74.812797
3746.000000	74.703421
3745.000000	74.673979
3744.000000	74.832905
3743.000000	75.166704
3742.000000	75.548646
3741.000000	75.831502
3740.000000	75.937222
3739.000000	75.884162
3738.000000	75.752166
3737.000000	75.627502
3736.000000	75.564746
3735.000000	75.577326
3734.000000	75.654227
3733.000000	75.781767
3732.000000	75.948237
3731.000000	76.131781
3730.000000	76.295407
3729.000000	76.405671
3728.000000	76.457267
3727.000000	76.474759
3726.000000	76.489440
3725.000000	76.517526
3724.000000	76.559415
3723.000000	76.611502
3722.000000	76.672526
3721.000000	76.741384
3720.000000	76.814441
3719.000000	76.884850
3718.000000	76.939325
3717.000000	76.954997
3716.000000	76.907077
3715.000000	76.789647
3714.000000	76.633291
3713.000000	76.498623
3712.000000	76.445041
3711.000000	76.497845
3710.000000	76.638667
3709.000000	76.822368
3708.000000	77.001784
3707.000000	77.142314
3706.000000	77.225250
3705.000000	77.249292
3704.000000	77.233116
3703.000000	77.210820
3702.000000	77.215565
3701.000000	77.260658
3700.000000	77.334290
3699.000000	77.412077
3698.000000	77.473969
3697.000000	77.511128
3696.000000	77.520391
3695.000000	77.495874
3694.000000	77.425795
3693.000000	77.298198
3692.000000	77.115713
3691.000000	76.912970
3690.000000	76.759162
3689.000000	76.728863
3688.000000	76.855064
3687.000000	77.100984
3686.000000	77.379911
3685.000000	77.608113
3684.000000	77.745955
3683.000000	77.800202
3682.000000	77.794599
3681.000000	77.737872
3680.000000	77.615572
3679.000000	77.414468
3678.000000	77.161826
3677.000000	76.937396
3676.000000	76.828216
3675.000000	76.857889
3674.000000	76.961536
3673.000000	77.044080
3672.000000	77.068892
3671.000000	77.085832
3670.000000	77.173506
3669.000000	77.361894
3668.000000	77.609923
3667.000000	77.846481
3666.000000	78.022024
3665.000000	78.127574
3664.000000	78.181470
3663.000000	78.206460
3662.000000	78.213520
3661.000000	78.196565
3660.000000	78.142164
3659.000000	78.050584
3658.000000	77.950455
3657.000000	77.886627
3656.000000	77.882996
3655.000000	77.912433
3654.000000	77.907403
3653.000000	77.809924
3652.000000	77.622069
3651.000000	77.413553
3650.000000	77.280320
3649.000000	77.288041
3648.000000	77.439567
3647.000000	77.682159
3646.000000	77.940945
3645.000000	78.155874
3644.000000	78.301332
3643.000000	78.383981
3642.000000	78.426022
3641.000000	78.448386
3640.000000	78.462791
3639.000000	78.471773
3638.000000	78.472596
3637.000000	78.462859
3636.000000	78.443527
3635.000000	78.412560
3634.000000	78.352701
3633.000000	78.233504
3632.000000	78.040701
3631.000000	77.812118
3630.000000	77.637250
3629.000000	77.604047
3628.000000	77.735755
3627.000000	77.973675
3626.000000	78.219665
3625.000000	78.393915
3624.000000	78.463546
3623.000000	78.435938
3622.000000	78.343486
3621.000000	78.233742
3620.000000	78.157375
3619.000000	78.145767
3618.000000	78.193290
3617.000000	78.262625
3616.000000	78.312946
3615.000000	78.325594
3614.000000	78.307209
3613.000000	78.273253
3612.000000	78.234440
3611.000000	78.199022
3610.000000	78.181670
3609.000000	78.201319
3608.000000	78.266652
3607.000000	78.364412
3606.000000	78.464940
3605.000000	78.539936
3604.000000	78.577227
3603.000000	78.582347
3602.000000	78.570219
3601.000000	78.554802
3600.000000	78.542558
3599.000000	78.531748
3598.000000	78.517750
3597.000000	78.500293
3596.000000	78.486180
3595.000000	78.483883
3594.000000	78.493287
3593.000000	78.499986
3592.000000	78.481277
3591.000000	78.423021
3590.000000	78.335259
3589.000000	78.252384
3588.000000	78.213800
3587.000000	78.239300
3586.000000	78.317527
3585.000000	78.416314
3584.000000	78.503261
3583.000000	78.561182
3582.000000	78.590014
3581.000000	78.599489
3580.000000	78.600265
3579.000000	78.598812
3578.000000	78.597045
3577.000000	78.594997
3576.000000	78.593188
3575.000000	78.592264
3574.000000	78.589912
3573.000000	78.577848
3572.000000	78.543206
3571.000000	78.476561
3570.000000	78.383132
3569.000000	78.287139
3568.000000	78.222399
3567.000000	78.212448
3566.000000	78.256118
3565.000000	78.329650
3564.000000	78.403147
3563.000000	78.457212
3562.000000	78.488593
3561.000000	78.504751
3560.000000	78.514794
3559.000000	78.523480
3558.000000	78.530130
3557.000000	78.530879
3556.000000	78.522205
3555.000000	78.504391
3554.000000	78.482894
3553.000000	78.465629
3552.000000	78.456784
3551.000000	78.452352
3550.000000	78.442564
3549.000000	78.420595
3548.000000	78.389585
3547.000000	78.361412
3546.000000	78.348295
3545.000000	78.354907
3544.000000	78.376522
3543.000000	78.403151
3542.000000	78.425073
3541.000000	78.436411
3540.000000	78.435926
3539.000000	78.426148
3538.000000	78.412055
3537.000000	78.399170
3536.000000	78.390967
3535.000000	78.386680
3534.000000	78.381608
3533.000000	78.370173
3532.000000	78.349500
3531.000000	78.320928
3530.000000	78.288919
3529.000000	78.258577
3528.000000	78.232945
3527.000000	78.211730
3526.000000	78.192626
3525.000000	78.174467
3524.000000	78.158867
3523.000000	78.148295
3522.000000	78.142736
3521.000000	78.139075
3520.000000	78.133710
3519.000000	78.125124
3518.000000	78.113770
3517.000000	78.100341
3516.000000	78.084764
3515.000000	78.066352
3514.000000	78.044277
3513.000000	78.018191
3512.000000	77.989229
3511.000000	77.960462
3510.000000	77.935415
3509.000000	77.915041
3508.000000	77.895930
3507.000000	77.872157
3506.000000	77.839976
3505.000000	77.801585
3504.000000	77.764331
3503.000000	77.735730
3502.000000	77.718121
3501.000000	77.707286
3500.000000	77.695808
3499.000000	77.678233
3498.000000	77.654079
3497.000000	77.626823
3496.000000	77.600439
3495.000000	77.576500
3494.000000	77.553928
3493.000000	77.530734
3492.000000	77.505677
3491.000000	77.478703
3490.000000	77.450736
3489.000000	77.423466
3488.000000	77.398716
3487.000000	77.377114
3486.000000	77.357303
3485.000000	77.337034
3484.000000	77.315558
3483.000000	77.294907
3482.000000	77.278681
3481.000000	77.269419
3480.000000	77.266742
3479.000000	77.267688
3478.000000	77.268799
3477.000000	77.268406
3476.000000	77.267315
3475.000000	77.267433
3474.000000	77.269771
3473.000000	77.273688
3472.000000	77.277787
3471.000000	77.281205
3470.000000	77.284227
3469.000000	77.288241
3468.000000	77.295187
3467.000000	77.306455
3466.000000	77.321713
3465.000000	77.338948
3464.000000	77.356139
3463.000000	77.372973
3462.000000	77.390685
3461.000000	77.410247
3460.000000	77.431019
3459.000000	77.451282
3458.000000	77.469757
3457.000000	77.486335
3456.000000	77.501521
3455.000000	77.515613
3454.000000	77.528475
3453.000000	77.539608
3452.000000	77.548046
3451.000000	77.552548
3450.000000	77.552877
3449.000000	77.551400
3448.000000	77.552858
3447.000000	77.561540
3446.000000	77.578369
3445.000000	77.600977
3444.000000	77.626596
3443.000000	77.654464
3442.000000	77.685349
3441.000000	77.719653
3440.000000	77.756742
3439.000000	77.796015
3438.000000	77.837891
3437.000000	77.883557
3436.000000	77.934075
3435.000000	77.989832
3434.000000	78.050483
3433.000000	78.115101
3432.000000	78.182452
3431.000000	78.251343
3430.000000	78.320825
3429.000000	78.390128
3428.000000	78.458499
3427.000000	78.525065
3426.000000	78.588732
3425.000000	78.648352
3424.000000	78.703377
3423.000000	78.754638
3422.000000	78.804412
3421.000000	78.855321
3420.000000	78.908713
3419.000000	78.963733
3418.000000	79.017827
3417.000000	79.068314
3416.000000	79.113891
3415.000000	79.154989
3414.000000	79.192917
3413.000000	79.228764
3412.000000	79.262964
3411.000000	79.295533
3410.000000	79.326449
3409.000000	79.355915
3408.000000	79.384462
3407.000000	79.412683
3406.000000	79.440596
3405.000000	79.467312
3404.000000	79.491816
3403.000000	79.514348
3402.000000	79.536909
3401.000000	79.562221
3400.000000	79.592134
3399.000000	79.626848
3398.000000	79.665107
3397.000000	79.704697
3396.000000	79.742985
3395.000000	79.777925
3394.000000	79.809444
3393.000000	79.839991
3392.000000	79.873125
3391.000000	79.910787
3390.000000	79.951567
3389.000000	79.991703
3388.000000	80.027963
3387.000000	80.059672
3386.000000	80.088310
3385.000000	80.115762
3384.000000	80.143228
3383.000000	80.171233
3382.000000	80.199802
3381.000000	80.228340
3380.000000	80.255762
3379.000000	80.281196
3378.000000	80.304687
3377.000000	80.327226
3376.000000	80.350064
3375.000000	80.373732
3374.000000	80.397382
3373.000000	80.419168
3372.000000	80.437769
3371.000000	80.453805
3370.000000	80.469660
3369.000000	80.487761
3368.000000	80.509027
3367.000000	80.532821
3366.000000	80.557891
3365.000000	80.583135
3364.000000	80.607813
3363.000000	80.631548
3362.000000	80.654308
3361.000000	80.676292
3360.000000	80.697798
3359.000000	80.719144
3358.000000	80.740605
3357.000000	80.762291
3356.000000	80.784067
3355.000000	80.805535
3354.000000	80.826065
3353.000000	80.845106
3352.000000	80.862853
3351.000000	80.880632
3350.000000	80.900196
3349.000000	80.922327
3348.000000	80.946122
3347.000000	80.969718
3346.000000	80.991650
3345.000000	81.011615
3344.000000	81.030338
3343.000000	81.048870
3342.000000	81.067731
3341.000000	81.086506
3340.000000	81.104397
3339.000000	81.121397
3338.000000	81.138759
3337.000000	81.158126
3336.000000	81.180182
3335.000000	81.204121
3334.000000	81.228202
3333.000000	81.250724
3332.000000	81.270850
3331.000000	81.288944
3330.000000	81.306130
3329.000000	81.323312
3328.000000	81.340613
3327.000000	81.357828
3326.000000	81.375213
3325.000000	81.393526
3324.000000	81.413226
3323.000000	81.433781
3322.000000	81.453860
3321.000000	81.472244
3320.000000	81.488722
3319.000000	81.504228
3318.000000	81.520056
3317.000000	81.536823
3316.000000	81.554163
3315.000000	81.571334
3314.000000	81.587923
3313.000000	81.603880
3312.000000	81.619098
3311.000000	81.633193
3310.000000	81.645739
3309.000000	81.656809
3308.000000	81.667481
3307.000000	81.679845
3306.000000	81.696075
3305.000000	81.716952
3304.000000	81.741148
3303.000000	81.766031
3302.000000	81.789299
3301.000000	81.810055
3300.000000	81.828726
3299.000000	81.846283
3298.000000	81.863433
3297.000000	81.880198
3296.000000	81.896077
3295.000000	81.910726
3294.000000	81.924632
3293.000000	81.939201
3292.000000	81.956101
3291.000000	81.976239
3290.000000	81.999064
3289.000000	82.022791
3288.000000	82.045473
3287.000000	82.066097
3286.000000	82.084867
3285.000000	82.102691
3284.000000	82.120514
3283.000000	82.138879
3282.000000	82.157686
3281.000000	82.176267
3280.000000	82.193933
3279.000000	82.210596
3278.000000	82.226797
3277.000000	82.243161
3276.000000	82.259979
3275.000000	82.277224
3274.000000	82.294768
3273.000000	82.312657
3272.000000	82.331430
3271.000000	82.352049
3270.000000	82.375078
3269.000000	82.399775
3268.000000	82.424344
3267.000000	82.447300
3266.000000	82.468514
3265.000000	82.488965
3264.000000	82.509731
3263.000000	82.531217
3262.000000	82.552991
3261.000000	82.574187
3260.000000	82.594267
3259.000000	82.613559
3258.000000	82.633033
3257.000000	82.653731
3256.000000	82.676576
3255.000000	82.702265
3254.000000	82.730512
3253.000000	82.759307
3252.000000	82.785751
3251.000000	82.808191
3250.000000	82.827325
3249.000000	82.845058
3248.000000	82.862838
3247.000000	82.881459
3246.000000	82.901796
3245.000000	82.924785
3244.000000	82.950510
3243.000000	82.977754
3242.000000	83.004678
3241.000000	83.029988
3240.000000	83.053630
3239.000000	83.076519
3238.000000	83.099469
3237.000000	83.122278
3236.000000	83.144089
3235.000000	83.164781
3234.000000	83.185670
3233.000000	83.208527
3232.000000	83.234043
3231.000000	83.261457
3230.000000	83.289414
3229.000000	83.316861
3228.000000	83.343309
3227.000000	83.368673
3226.000000	83.393067
3225.000000	83.416634
3224.000000	83.439531
3223.000000	83.462027
3222.000000	83.484497
3221.000000	83.507221
3220.000000	83.530241
3219.000000	83.553349
3218.000000	83.576164
3217.000000	83.598392
3216.000000	83.620353
3215.000000	83.643090
3214.000000	83.667489
3213.000000	83.693262
3212.000000	83.719290
3211.000000	83.745100
3210.000000	83.771514
3209.000000	83.799602
3208.000000	83.829458
3207.000000	83.860361
3206.000000	83.891759
3205.000000	83.923674
3204.000000	83.956316
3203.000000	83.989619
3202.000000	84.023105
3201.000000	84.056116
3200.000000	84.088456
3199.000000	84.120929
3198.000000	84.154879
3197.000000	84.190917
3196.000000	84.228340
3195.000000	84.265974
3194.000000	84.303235
3193.000000	84.340126
3192.000000	84.376579
3191.000000	84.412265
3190.000000	84.446901
3189.000000	84.480499
3188.000000	84.513495
3187.000000	84.546817
3186.000000	84.581459
3185.000000	84.617496
3184.000000	84.653661
3183.000000	84.688323
3182.000000	84.720985
3181.000000	84.752740
3180.000000	84.785329
3179.000000	84.819860
3178.000000	84.856165
3177.000000	84.893117
3176.000000	84.929650
3175.000000	84.965609
3174.000000	85.001576
3173.000000	85.037876
3172.000000	85.074072
3171.000000	85.109562
3170.000000	85.144351
3169.000000	85.179012
3168.000000	85.214101
3167.000000	85.249839
3166.000000	85.286174
3165.000000	85.322956
3164.000000	85.360160
3163.000000	85.398022
3162.000000	85.436705
3161.000000	85.475794
3160.000000	85.514467
3159.000000	85.552354
3158.000000	85.589858
3157.000000	85.627355
3156.000000	85.664411
3155.000000	85.700245
3154.000000	85.734901
3153.000000	85.769680
3152.000000	85.806342
3151.000000	85.845837
3150.000000	85.887521
3149.000000	85.929431
3148.000000	85.969577
3147.000000	86.007332
3146.000000	86.043630
3145.000000	86.079851
3144.000000	86.116568
3143.000000	86.153274
3142.000000	86.189002
3141.000000	86.223237
3140.000000	86.256542
3139.000000	86.290261
3138.000000	86.325192
3137.000000	86.360489
3136.000000	86.394374
3135.000000	86.426182
3134.000000	86.457244
3133.000000	86.489324
3132.000000	86.522339
3131.000000	86.554050
3130.000000	86.582245
3129.000000	86.607278
3128.000000	86.632409
3127.000000	86.661294
3126.000000	86.694700
3125.000000	86.729740
3124.000000	86.762546
3123.000000	86.791520
3122.000000	86.817783
3121.000000	86.843127
3120.000000	86.868443
3119.000000	86.893989
3118.000000	86.920091
3117.000000	86.947152
3116.000000	86.975474
3115.000000	87.005192
3114.000000	87.035749
3113.000000	87.065387
3112.000000	87.092149
3111.000000	87.115932
3110.000000	87.138987
3109.000000	87.163969
3108.000000	87.191878
3107.000000	87.221960
3106.000000	87.252776
3105.000000	87.282871
3104.000000	87.311290
3103.000000	87.338414
3102.000000	87.366027
3101.000000	87.395787
3100.000000	87.427607
3099.000000	87.459891
3098.000000	87.491226
3097.000000	87.521603
3096.000000	87.552153
3095.000000	87.583962
3094.000000	87.617004
3093.000000	87.650068
3092.000000	87.681874
3091.000000	87.712230
3090.000000	87.741780
3089.000000	87.770728
3088.000000	87.798450
3087.000000	87.824460
3086.000000	87.849076
3085.000000	87.872813
3084.000000	87.895624
3083.000000	87.917077
3082.000000	87.936910
3081.000000	87.955290
3080.000000	87.973001
3079.000000	87.991422
3078.000000	88.011522
3077.000000	88.032531
3076.000000	88.052238
3075.000000	88.068972
3074.000000	88.082731
3073.000000	88.094087
3072.000000	88.102817
3071.000000	88.108281
3070.000000	88.110704
3069.000000	88.111557
3068.000000	88.113085
3067.000000	88.117789
3066.000000	88.127702
3065.000000	88.143383
3064.000000	88.163780
3063.000000	88.187422
3062.000000	88.213423
3061.000000	88.241139
3060.000000	88.269531
3059.000000	88.297577
3058.000000	88.325111
3057.000000	88.352855
3056.000000	88.381757
3055.000000	88.412279
3054.000000	88.443738
3053.000000	88.474121
3052.000000	88.501384
3051.000000	88.525452
3050.000000	88.548380
3049.000000	88.571971
3048.000000	88.595704
3047.000000	88.617443
3046.000000	88.635608
3045.000000	88.650163
3044.000000	88.662194
3043.000000	88.673326
3042.000000	88.685108
3041.000000	88.697963
3040.000000	88.710647
3039.000000	88.721148
3038.000000	88.728099
3037.000000	88.731189
3036.000000	88.730777
3035.000000	88.727618
3034.000000	88.722554
3033.000000	88.715796
3032.000000	88.706436
3031.000000	88.692749
3030.000000	88.672638
3029.000000	88.643770
3028.000000	88.604192
3027.000000	88.553668
3026.000000	88.494293
3025.000000	88.429568
3024.000000	88.363223
3023.000000	88.299178
3022.000000	88.242010
3021.000000	88.196811
3020.000000	88.168772
3019.000000	88.162878
3018.000000	88.183050
3017.000000	88.230682
3016.000000	88.304169
3015.000000	88.399975
3014.000000	88.513571
3013.000000	88.639161
3012.000000	88.769582
3011.000000	88.897550
3010.000000	89.016844
3009.000000	89.122461
3008.000000	89.211412
3007.000000	89.284746
3006.000000	89.347542
3005.000000	89.404488
3004.000000	89.454879
3003.000000	89.493282
3002.000000	89.515620
3001.000000	89.523882
3000.000000	89.524639
2999.000000	89.524029
2998.000000	89.524808
2997.000000	89.527245
2996.000000	89.531073
2995.000000	89.535737
2994.000000	89.539382
2993.000000	89.538996
2992.000000	89.532582
2991.000000	89.521105
2990.000000	89.507767
2989.000000	89.495099
2988.000000	89.482805
2987.000000	89.467780
2986.000000	89.445468
2985.000000	89.411871
2984.000000	89.366332
2983.000000	89.313365
2982.000000	89.260680
2981.000000	89.213793
2980.000000	89.172130
2979.000000	89.130110
2978.000000	89.080945
2977.000000	89.018771
2976.000000	88.938653
2975.000000	88.836914
2974.000000	88.712578
2973.000000	88.568228
2972.000000	88.409062
2971.000000	88.240822
2970.000000	88.067896
2969.000000	87.892877
2968.000000	87.718166
2967.000000	87.548394
2966.000000	87.391021
2965.000000	87.254042
2964.000000	87.143165
2963.000000	87.060910
2962.000000	87.007315
2961.000000	86.980596
2960.000000	86.977498
2959.000000	86.993910
2958.000000	87.025286
2957.000000	87.066550
2956.000000	87.112347
2955.000000	87.158342
2954.000000	87.202174
2953.000000	87.242382
2952.000000	87.276210
2951.000000	87.298589
2950.000000	87.303218
2949.000000	87.284566
2948.000000	87.239167
2947.000000	87.165551
2946.000000	87.063064
2945.000000	86.931003
2944.000000	86.769169
2943.000000	86.579156
2942.000000	86.364703
2941.000000	86.131080
2940.000000	85.884860
2939.000000	85.634121
2938.000000	85.387395
2937.000000	85.151300
2936.000000	84.928943
2935.000000	84.720028
2934.000000	84.521467
2933.000000	84.328183
2932.000000	84.135527
2931.000000	83.942992
2930.000000	83.755967
2929.000000	83.584208
2928.000000	83.439478
2927.000000	83.334860
2926.000000	83.284045
2925.000000	83.299049
2924.000000	83.387548
2923.000000	83.551954
2922.000000	83.789246
2921.000000	84.090467
2920.000000	84.441431
2919.000000	84.826193
2918.000000	85.230716
2917.000000	85.643572
2916.000000	86.054149
2915.000000	86.451976
2914.000000	86.827943
2913.000000	87.175625
2912.000000	87.491492
2911.000000	87.774578
2910.000000	88.026024
2909.000000	88.248418
2908.000000	88.445282
2907.000000	88.620968
2906.000000	88.779981
2905.000000	88.925683
2904.000000	89.060036
2903.000000	89.185293
2902.000000	89.305352
2901.000000	89.424468
2900.000000	89.544571
2899.000000	89.664424
2898.000000	89.781263
2897.000000	89.892821
2896.000000	89.998325
2895.000000	90.098511
2894.000000	90.194972
2893.000000	90.289043
2892.000000	90.381081
2891.000000	90.470597
2890.000000	90.556597
2889.000000	90.637505
2888.000000	90.711296
2887.000000	90.776274
2886.000000	90.831694
2885.000000	90.877724
2884.000000	90.915266
2883.000000	90.945658
2882.000000	90.969289
2881.000000	90.983895
2880.000000	90.985232
2879.000000	90.970468
2878.000000	90.940457
2877.000000	90.897889
2876.000000	90.843592
2875.000000	90.775415
2874.000000	90.690006
2873.000000	90.584394
2872.000000	90.455846
2871.000000	90.301297
2870.000000	90.117688
2869.000000	89.903196
2868.000000	89.659117
2867.000000	89.391966
2866.000000	89.114521
2865.000000	88.844696
2864.000000	88.602775
2863.000000	88.407906
2862.000000	88.274748
2861.000000	88.210515
2860.000000	88.214107
2859.000000	88.277388
2858.000000	88.387606
2857.000000	88.530070
2856.000000	88.691465
2855.000000	88.863506
2854.000000	89.044688
2853.000000	89.238839
2852.000000	89.451977
2851.000000	89.689451
2850.000000	89.953519
2849.000000	90.241238
2848.000000	90.544025
2847.000000	90.849612
2846.000000	91.145383
2845.000000	91.421085
2844.000000	91.670652
2843.000000	91.892763
2842.000000	92.089520
2841.000000	92.263947
2840.000000	92.418720
2839.000000	92.556720
2838.000000	92.681285
2837.000000	92.794922
2836.000000	92.898492
2835.000000	92.992467
2834.000000	93.078337
2833.000000	93.157965
2832.000000	93.232130
2831.000000	93.300694
2830.000000	93.363967
2829.000000	93.423157
2828.000000	93.479622
2827.000000	93.534259
2826.000000	93.587422
2825.000000	93.638933
2824.000000	93.688364
2823.000000	93.735657
2822.000000	93.781212
2821.000000	93.825109
2820.000000	93.866782
2819.000000	93.905840
2818.000000	93.942702
2817.000000	93.977986
2816.000000	94.011790
2815.000000	94.044019
2814.000000	94.074854
2813.000000	94.104378
2812.000000	94.132281
2811.000000	94.158536
2810.000000	94.183919
2809.000000	94.209215
2808.000000	94.234283
2807.000000	94.258451
2806.000000	94.281555
2805.000000	94.304063
2804.000000	94.326475
2803.000000	94.348954
2802.000000	94.371300
2801.000000	94.392966
2800.000000	94.413491
2799.000000	94.433171
2798.000000	94.452883
2797.000000	94.473042
2796.000000	94.493269
2795.000000	94.513340
2794.000000	94.533838
2793.000000	94.555577
2792.000000	94.579016
2791.000000	94.604606
2790.000000	94.633057
2789.000000	94.664797
2788.000000	94.699655
2787.000000	94.737285
2786.000000	94.777238
2785.000000	94.818351
2784.000000	94.858908
2783.000000	94.897901
2782.000000	94.935529
2781.000000	94.972141
2780.000000	95.007461
2779.000000	95.041173
2778.000000	95.073377
2777.000000	95.104016
2776.000000	95.132747
2775.000000	95.159925
2774.000000	95.186803
2773.000000	95.214098
2772.000000	95.241170
2771.000000	95.267230
2770.000000	95.292548
2769.000000	95.317764
2768.000000	95.342792
2767.000000	95.367179
2766.000000	95.390890
2765.000000	95.414004
2764.000000	95.436289
2763.000000	95.457751
2762.000000	95.478991
2761.000000	95.500393
2760.000000	95.521591
2759.000000	95.542285
2758.000000	95.562842
2757.000000	95.583549
2756.000000	95.604150
2755.000000	95.624795
2754.000000	95.646459
2753.000000	95.669399
2752.000000	95.692006
2751.000000	95.712233
2750.000000	95.729718
2749.000000	95.745645
2748.000000	95.761172
2747.000000	95.776916
2746.000000	95.793383
2745.000000	95.810731
2744.000000	95.828319
2743.000000	95.845372
2742.000000	95.861955
2741.000000	95.878678
2740.000000	95.895790
2739.000000	95.913186
2738.000000	95.930864
2737.000000	95.948638
2736.000000	95.965764
2735.000000	95.981615
2734.000000	95.996583
2733.000000	96.011740
2732.000000	96.027773
2731.000000	96.044603
2730.000000	96.061692
2729.000000	96.078327
2728.000000	96.094028
2727.000000	96.109097
2726.000000	96.124385
2725.000000	96.140195
2724.000000	96.155922
2723.000000	96.171121
2722.000000	96.186354
2721.000000	96.202518
2720.000000	96.219760
2719.000000	96.237325
2718.000000	96.253985
2717.000000	96.268531
2716.000000	96.280652
2715.000000	96.291663
2714.000000	96.303571
2713.000000	96.316986
2712.000000	96.330669
2711.000000	96.343336
2710.000000	96.355018
2709.000000	96.366350
2708.000000	96.377650
2707.000000	96.389334
2706.000000	96.402221
2705.000000	96.416718
2704.000000	96.432443
2703.000000	96.449265
2702.000000	96.467797
2701.000000	96.488246
2700.000000	96.509678
2699.000000	96.531154
2698.000000	96.552779
2697.000000	96.574942
2696.000000	96.597359
2695.000000	96.619597
2694.000000	96.641728
2693.000000	96.663739
2692.000000	96.685055
2691.000000	96.705434
2690.000000	96.725557
2689.000000	96.746001
2688.000000	96.766291
2687.000000	96.785692
2686.000000	96.804249
2685.000000	96.822360
2684.000000	96.840036
2683.000000	96.857268
2682.000000	96.874447
2681.000000	96.891812
2680.000000	96.909128
2679.000000	96.926362
2678.000000	96.943851
2677.000000	96.961271
2676.000000	96.977448
2675.000000	96.991916
2674.000000	97.005742
2673.000000	97.020081
2672.000000	97.034767
2671.000000	97.049074
2670.000000	97.062925
2669.000000	97.076602
2668.000000	97.090136
2667.000000	97.103815
2666.000000	97.118408
2665.000000	97.134016
2664.000000	97.149515
2663.000000	97.163963
2662.000000	97.177796
2661.000000	97.191860
2660.000000	97.206149
2659.000000	97.220401
2658.000000	97.235072
2657.000000	97.250722
2656.000000	97.267078
2655.000000	97.283624
2654.000000	97.300508
2653.000000	97.318115
2652.000000	97.336348
2651.000000	97.355017
2650.000000	97.374239
2649.000000	97.393784
2648.000000	97.412806
2647.000000	97.430923
2646.000000	97.448796
2645.000000	97.467022
2644.000000	97.485297
2643.000000	97.503309
2642.000000	97.521400
2641.000000	97.539592
2640.000000	97.556973
2639.000000	97.573012
2638.000000	97.588548
2637.000000	97.604567
2636.000000	97.620817
2635.000000	97.636559
2634.000000	97.651848
2633.000000	97.667180
2632.000000	97.682674
2631.000000	97.698387
2630.000000	97.714505
2629.000000	97.730382
2628.000000	97.744416
2627.000000	97.755992
2626.000000	97.766715
2625.000000	97.778684
2624.000000	97.792290
2623.000000	97.806609
2622.000000	97.821078
2621.000000	97.835657
2620.000000	97.850088
2619.000000	97.864121
2618.000000	97.877928
2617.000000	97.891417
2616.000000	97.903795
2615.000000	97.914661
2614.000000	97.924856
2613.000000	97.935403
2612.000000	97.946302
2611.000000	97.957029
2610.000000	97.967362
2609.000000	97.976988
2608.000000	97.985327
2607.000000	97.992617
2606.000000	98.000159
2605.000000	98.008515
2604.000000	98.016477
2603.000000	98.022843
2602.000000	98.028172
2601.000000	98.033652
2600.000000	98.039194
2599.000000	98.043909
2598.000000	98.047670
2597.000000	98.051046
2596.000000	98.054521
2595.000000	98.058932
2594.000000	98.065835
2593.000000	98.076129
2592.000000	98.088980
2591.000000	98.103306
2590.000000	98.119611
2589.000000	98.139114
2588.000000	98.161729
2587.000000	98.186240
2586.000000	98.212012
2585.000000	98.239284
2584.000000	98.268107
2583.000000	98.298017
2582.000000	98.328459
2581.000000	98.358651
2580.000000	98.387509
2579.000000	98.414570
2578.000000	98.440543
2577.000000	98.466216
2576.000000	98.491380
2575.000000	98.515501
2574.000000	98.538682
2573.000000	98.561108
2572.000000	98.582317
2571.000000	98.601924
2570.000000	98.620385
2569.000000	98.638204
2568.000000	98.655157
2567.000000	98.671140
2566.000000	98.686929
2565.000000	98.703118
2564.000000	98.719087
2563.000000	98.734039
2562.000000	98.748318
2561.000000	98.762703
2560.000000	98.777130
2559.000000	98.791121
2558.000000	98.804769
2557.000000	98.818289
2556.000000	98.831262
2555.000000	98.843351
2554.000000	98.855168
2553.000000	98.867507
2552.000000	98.880268
2551.000000	98.892939
2550.000000	98.905458
2549.000000	98.917832
2548.000000	98.929689
2547.000000	98.941050
2546.000000	98.952744
2545.000000	98.965180
2544.000000	98.977530
2543.000000	98.989005
2542.000000	99.000138
2541.000000	99.011880
2540.000000	99.024245
2539.000000	99.036788
2538.000000	99.049606
2537.000000	99.062908
2536.000000	99.076325
2535.000000	99.089551
2534.000000	99.102933
2533.000000	99.116629
2532.000000	99.130024
2531.000000	99.142716
2530.000000	99.155205
2529.000000	99.167834
2528.000000	99.180104
2527.000000	99.191812
2526.000000	99.203705
2525.000000	99.216043
2524.000000	99.227747
2523.000000	99.238089
2522.000000	99.248093
2521.000000	99.259048
2520.000000	99.270714
2519.000000	99.282217
2518.000000	99.293684
2517.000000	99.305603
2516.000000	99.317479
2515.000000	99.328542
2514.000000	99.339103
2513.000000	99.349961
2512.000000	99.361132
2511.000000	99.372261
2510.000000	99.383491
2509.000000	99.394774
2508.000000	99.405134
2507.000000	99.413853
2506.000000	99.421776
2505.000000	99.430348
2504.000000	99.439972
2503.000000	99.450239
2502.000000	99.460968
2501.000000	99.472029
2500.000000	99.482945
2499.000000	99.493641
2498.000000	99.504789
2497.000000	99.516550
2496.000000	99.527979
2495.000000	99.538624
2494.000000	99.549562
2493.000000	99.561757
2492.000000	99.574512
2491.000000	99.586755
2490.000000	99.598745
2489.000000	99.611196
2488.000000	99.623759
2487.000000	99.635791
2486.000000	99.647692
2485.000000	99.660061
2484.000000	99.672389
2483.000000	99.683979
2482.000000	99.695361
2481.000000	99.707413
2480.000000	99.719785
2479.000000	99.731508
2478.000000	99.742484
2477.000000	99.753139
2476.000000	99.763371
2475.000000	99.773062
2474.000000	99.782845
2473.000000	99.793152
2472.000000	99.803231
2471.000000	99.812300
2470.000000	99.820812
2469.000000	99.829409
2468.000000	99.837561
2467.000000	99.844606
2466.000000	99.851290
2465.000000	99.858817
2464.000000	99.867082
2463.000000	99.875165
2462.000000	99.882865
2461.000000	99.890431
2460.000000	99.897500
2459.000000	99.903749
2458.000000	99.910020
2457.000000	99.917476
2456.000000	99.926087
2455.000000	99.935000
2454.000000	99.943824
2453.000000	99.952521
2452.000000	99.960787
2451.000000	99.968617
2450.000000	99.976739
2449.000000	99.985404
2448.000000	99.993577
2447.000000	100.000429
2446.000000	100.006761
2445.000000	100.013776
2444.000000	100.021330
2443.000000	100.028618
2442.000000	100.035675
2441.000000	100.042922
2440.000000	100.050055
2439.000000	100.056714
2438.000000	100.063426
2437.000000	100.070632
2436.000000	100.077568
2435.000000	100.083433
2434.000000	100.088823
2433.000000	100.094690
2432.000000	100.100684
2431.000000	100.105886
2430.000000	100.110470
2429.000000	100.115294
2428.000000	100.120550
2427.000000	100.126106
2426.000000	100.132440
2425.000000	100.139926
2424.000000	100.147820
2423.000000	100.155237
2422.000000	100.162429
2421.000000	100.169934
2420.000000	100.177234
2419.000000	100.183560
2418.000000	100.189262
2417.000000	100.195092
2416.000000	100.200829
2415.000000	100.205935
2414.000000	100.210897
2413.000000	100.216585
2412.000000	100.222872
2411.000000	100.229057
2410.000000	100.234998
2409.000000	100.240739
2408.000000	100.245814
2407.000000	100.250157
2406.000000	100.254887
2405.000000	100.260936
2404.000000	100.267613
2403.000000	100.273777
2402.000000	100.279681
2401.000000	100.286388
2400.000000	100.294112
2399.000000	100.302431
2398.000000	100.311381
2397.000000	100.321015
2396.000000	100.330517
2395.000000	100.339068
2394.000000	100.347004
2393.000000	100.354942
2392.000000	100.362451
2391.000000	100.368727
2390.000000	100.373764
2389.000000	100.377503
2388.000000	100.378422
2387.000000	100.374292
2386.000000	100.363667
2385.000000	100.345273
2384.000000	100.316336
2383.000000	100.272820
2382.000000	100.211085
2381.000000	100.128380
2380.000000	100.022124
2379.000000	99.889615
2378.000000	99.728235
2377.000000	99.535718
2376.000000	99.311341
2375.000000	99.057705
2374.000000	98.780367
2373.000000	98.484952
2372.000000	98.175643
2371.000000	97.857293
2370.000000	97.537579
2369.000000	97.225839
2368.000000	96.930892
2367.000000	96.661173
2366.000000	96.425551
2365.000000	96.232141
2364.000000	96.086843
2363.000000	95.994245
2362.000000	95.958905
2361.000000	95.984183
2360.000000	96.070699
2359.000000	96.217654
2358.000000	96.424955
2357.000000	96.692127
2356.000000	97.015535
2355.000000	97.388597
2354.000000	97.803800
2353.000000	98.248957
2352.000000	98.695165
2351.000000	99.086775
2350.000000	99.350421
2349.000000	99.426848
2348.000000	99.306491
2347.000000	99.038482
2346.000000	98.702377
2345.000000	98.366824
2344.000000	98.068152
2343.000000	97.817737
2342.000000	97.617633
2341.000000	97.466512
2340.000000	97.358863
2339.000000	97.287155
2338.000000	97.245899
2337.000000	97.231716
2336.000000	97.240959
2335.000000	97.270039
2334.000000	97.317219
2333.000000	97.381999
2332.000000	97.463464
2331.000000	97.560698
2330.000000	97.673407
2329.000000	97.800164
2328.000000	97.937032
2327.000000	98.079623
2326.000000	98.225662
2325.000000	98.374203
2324.000000	98.523620
2323.000000	98.672018
2322.000000	98.818441
2321.000000	98.962021
2320.000000	99.100892
2319.000000	99.233368
2318.000000	99.359237
2317.000000	99.478635
2316.000000	99.590840
2315.000000	99.695371
2314.000000	99.792949
2313.000000	99.884032
2312.000000	99.967761
2311.000000	100.043626
2310.000000	100.112712
2309.000000	100.175951
2308.000000	100.232735
2307.000000	100.282712
2306.000000	100.327366
2305.000000	100.368222
2304.000000	100.405015
2303.000000	100.437248
2302.000000	100.465985
2301.000000	100.492359
2300.000000	100.515850
2299.000000	100.535847
2298.000000	100.553526
2297.000000	100.570420
2296.000000	100.586427
2295.000000	100.600942
2294.000000	100.614573
2293.000000	100.628033
2292.000000	100.640737
2291.000000	100.652206
2290.000000	100.663437
2289.000000	100.675156
2288.000000	100.686139
2287.000000	100.695024
2286.000000	100.702304
2285.000000	100.708740
2284.000000	100.713343
2283.000000	100.714922
2282.000000	100.714196
2281.000000	100.712453
2280.000000	100.709531
2279.000000	100.705148
2278.000000	100.700765
2277.000000	100.697903
2276.000000	100.695789
2275.000000	100.692756
2274.000000	100.688906
2273.000000	100.685424
2272.000000	100.682402
2271.000000	100.679307
2270.000000	100.676531
2269.000000	100.674561
2268.000000	100.672673
2267.000000	100.670290
2266.000000	100.668434
2265.000000	100.668022
2264.000000	100.667966
2263.000000	100.666902
2262.000000	100.665493
2261.000000	100.665031
2260.000000	100.665124
2259.000000	100.664965
2258.000000	100.665521
2257.000000	100.667870
2256.000000	100.670192
2255.000000	100.669179
2254.000000	100.664440
2253.000000	100.659627
2252.000000	100.659129
2251.000000	100.664713
2250.000000	100.674692
2249.000000	100.685080
2248.000000	100.692328
2247.000000	100.696258
2246.000000	100.699746
2245.000000	100.704872
2244.000000	100.710724
2243.000000	100.715837
2242.000000	100.720832
2241.000000	100.727020
2240.000000	100.734042
2239.000000	100.740733
2238.000000	100.747043
2237.000000	100.753478
2236.000000	100.759841
2235.000000	100.766030
2234.000000	100.772764
2233.000000	100.780142
2232.000000	100.786919
2231.000000	100.792554
2230.000000	100.798380
2229.000000	100.805346
2228.000000	100.812337
2227.000000	100.818195
2226.000000	100.823580
2225.000000	100.829250
2224.000000	100.834391
2223.000000	100.838373
2222.000000	100.842260
2221.000000	100.846805
2220.000000	100.850847
2219.000000	100.853473
2218.000000	100.855794
2217.000000	100.858707
2216.000000	100.861010
2215.000000	100.861811
2214.000000	100.862707
2213.000000	100.865321
2212.000000	100.868666
2211.000000	100.871235
2210.000000	100.873686
2209.000000	100.876997
2208.000000	100.879916
2207.000000	100.880934
2206.000000	100.881115
2205.000000	100.882394
2204.000000	100.884594
2203.000000	100.886630
2202.000000	100.889029
2201.000000	100.892627
2200.000000	100.896226
2199.000000	100.898114
2198.000000	100.898699
2197.000000	100.899315
2196.000000	100.899807
2195.000000	100.899600
2194.000000	100.899668
2193.000000	100.901034
2192.000000	100.902689
2191.000000	100.903271
2190.000000	100.903380
2189.000000	100.904015
2188.000000	100.904265
2187.000000	100.902892
2186.000000	100.900707
2185.000000	100.899163
2184.000000	100.898118
2183.000000	100.897135
2182.000000	100.897152
2181.000000	100.898518
2180.000000	100.899226
2179.000000	100.897629
2178.000000	100.895180
2177.000000	100.893950
2176.000000	100.893073
2175.000000	100.890017
2174.000000	100.883575
2173.000000	100.873419
2172.000000	100.859350
2171.000000	100.844153
2170.000000	100.834748
2169.000000	100.836357
2168.000000	100.846501
2167.000000	100.857911
2166.000000	100.866151
2165.000000	100.871443
2164.000000	100.874757
2163.000000	100.876101
2162.000000	100.876068
2161.000000	100.875660
2160.000000	100.874707
2159.000000	100.872890
2158.000000	100.871549
2157.000000	100.872019
2156.000000	100.873151
2155.000000	100.872963
2154.000000	100.871689
2153.000000	100.870803
2152.000000	100.870233
2151.000000	100.869085
2150.000000	100.867812
2149.000000	100.867125
2148.000000	100.866115
2147.000000	100.864088
2146.000000	100.862718
2145.000000	100.863539
2144.000000	100.864802
2143.000000	100.863879
2142.000000	100.861453
2141.000000	100.860107
2140.000000	100.859905
2139.000000	100.858679
2138.000000	100.855927
2137.000000	100.853291
2136.000000	100.851739
2135.000000	100.851028
2134.000000	100.851275
2133.000000	100.852436
2132.000000	100.853057
2131.000000	100.852234
2130.000000	100.851866
2129.000000	100.854150
2128.000000	100.857583
2127.000000	100.858320
2126.000000	100.855081
2125.000000	100.850239
2124.000000	100.846615
2123.000000	100.845499
2122.000000	100.847090
2121.000000	100.850396
2120.000000	100.853136
2119.000000	100.853864
2118.000000	100.853723
2117.000000	100.854534
2116.000000	100.856263
2115.000000	100.858105
2114.000000	100.860597
2113.000000	100.864516
2112.000000	100.869020
2111.000000	100.873079
2110.000000	100.877473
2109.000000	100.883288
2108.000000	100.889787
2107.000000	100.895820
2106.000000	100.901899
2105.000000	100.908746
2104.000000	100.915347
2103.000000	100.920607
2102.000000	100.925419
2101.000000	100.931023
2100.000000	100.936918
2099.000000	100.942395
2098.000000	100.948352
2097.000000	100.955460
2096.000000	100.962411
2095.000000	100.968054
2094.000000	100.973294
2093.000000	100.978864
2092.000000	100.983608
2091.000000	100.987242
2090.000000	100.992248
2089.000000	101.000387
2088.000000	101.009789
2087.000000	101.018195
2086.000000	101.026485
2085.000000	101.036052
2084.000000	101.045368
2083.000000	101.052558
2082.000000	101.058969
2081.000000	101.066707
2080.000000	101.074765
2079.000000	101.081131
2078.000000	101.086683
2077.000000	101.093533
2076.000000	101.101438
2075.000000	101.109273
2074.000000	101.118025
2073.000000	101.128803
2072.000000	101.139777
2071.000000	101.148582
2070.000000	101.155854
2069.000000	101.162977
2068.000000	101.168648
2067.000000	101.171650
2066.000000	101.175053
2065.000000	101.183359
2064.000000	101.196739
2063.000000	101.211762
2062.000000	101.226403
2061.000000	101.240617
2060.000000	101.253547
2059.000000	101.264184
2058.000000	101.273796
2057.000000	101.284198
2056.000000	101.294665
2055.000000	101.303674
2054.000000	101.312190
2053.000000	101.321987
2052.000000	101.332324
2051.000000	101.341590
2050.000000	101.350552
2049.000000	101.360632
2048.000000	101.370734
2047.000000	101.379135
2046.000000	101.386569
2045.000000	101.394068
2044.000000	101.400026
2043.000000	101.403316
2042.000000	101.407085
2041.000000	101.415169
2040.000000	101.426470
2039.000000	101.436915
2038.000000	101.445172
2037.000000	101.452362
2036.000000	101.458143
2035.000000	101.461518
2034.000000	101.463649
2033.000000	101.465249
2032.000000	101.463133
2031.000000	101.454691
2030.000000	101.444694
2029.000000	101.442299
2028.000000	101.451277
2027.000000	101.467250
2026.000000	101.483862
2025.000000	101.497518
2024.000000	101.506809
2023.000000	101.511844
2022.000000	101.514257
2021.000000	101.514659
2020.000000	101.511217
2019.000000	101.504290
2018.000000	101.500636
2017.000000	101.508071
2016.000000	101.526434
2015.000000	101.548076
2014.000000	101.566561
2013.000000	101.580721
2012.000000	101.591317
2011.000000	101.598904
2010.000000	101.605252
2009.000000	101.612468
2008.000000	101.620105
2007.000000	101.626272
2006.000000	101.631063
2005.000000	101.635476
2004.000000	101.638112
2003.000000	101.637299
2002.000000	101.635657
2001.000000	101.637823
2000.000000	101.643832
1999.000000	101.649337
1998.000000	101.652045
1997.000000	101.652591
1996.000000	101.648630
1995.000000	101.634536
1994.000000	101.610345
1993.000000	101.586871
1992.000000	101.577656
1991.000000	101.586784
1990.000000	101.606539
1989.000000	101.625606
1988.000000	101.637640
1987.000000	101.642941
1986.000000	101.644403
1985.000000	101.643407
1984.000000	101.639753
1983.000000	101.634250
1982.000000	101.629221
1981.000000	101.625794
1980.000000	101.622414
1979.000000	101.617180
1978.000000	101.610255
1977.000000	101.602785
1976.000000	101.594955
1975.000000	101.586561
1974.000000	101.578234
1973.000000	101.570304
1972.000000	101.560802
1971.000000	101.545901
1970.000000	101.522974
1969.000000	101.494097
1968.000000	101.467122
1967.000000	101.451508
1966.000000	101.450411
1965.000000	101.456744
1964.000000	101.457854
1963.000000	101.442839
1962.000000	101.405850
1961.000000	101.349200
1960.000000	101.289069
1959.000000	101.252447
1958.000000	101.257258
1957.000000	101.294121
1956.000000	101.334632
1955.000000	101.358083
1954.000000	101.363609
1953.000000	101.358408
1952.000000	101.345758
1951.000000	101.327994
1950.000000	101.310920
1949.000000	101.298283
1948.000000	101.286636
1947.000000	101.269132
1946.000000	101.240351
1945.000000	101.198015
1944.000000	101.148643
1943.000000	101.112235
1942.000000	101.109592
1941.000000	101.139220
1940.000000	101.175409
1939.000000	101.194379
1938.000000	101.194231
1937.000000	101.185404
1936.000000	101.172890
1935.000000	101.156456
1934.000000	101.139293
1933.000000	101.125608
1932.000000	101.113879
1931.000000	101.100383
1930.000000	101.085903
1929.000000	101.072730
1928.000000	101.058230
1927.000000	101.036060
1926.000000	101.001669
1925.000000	100.956083
1924.000000	100.908804
1923.000000	100.873813
1922.000000	100.851947
1921.000000	100.820095
1920.000000	100.755901
1919.000000	100.676821
1918.000000	100.634369
1917.000000	100.657800
1916.000000	100.719298
1915.000000	100.766905
1914.000000	100.776394
1913.000000	100.756436
1912.000000	100.720053
1911.000000	100.674634
1910.000000	100.632085
1909.000000	100.605172
1908.000000	100.592531
1907.000000	100.581844
1906.000000	100.566896
1905.000000	100.549674
1904.000000	100.529491
1903.000000	100.503524
1902.000000	100.475757
1901.000000	100.452726
1900.000000	100.431882
1899.000000	100.404753
1898.000000	100.369724
1897.000000	100.333154
1896.000000	100.301540
1895.000000	100.279456
1894.000000	100.267378
1893.000000	100.253059
1892.000000	100.216682
1891.000000	100.158629
1890.000000	100.111946
1889.000000	100.109549
1888.000000	100.145203
1887.000000	100.183397
1886.000000	100.201328
1885.000000	100.203207
1884.000000	100.199023
1883.000000	100.190924
1882.000000	100.180881
1881.000000	100.173158
1880.000000	100.165999
1879.000000	100.154036
1878.000000	100.139278
1877.000000	100.127990
1876.000000	100.118826
1875.000000	100.104852
1874.000000	100.080616
1873.000000	100.033917
1872.000000	99.942738
1871.000000	99.805324
1870.000000	99.669531
1869.000000	99.604641
1868.000000	99.636763
1867.000000	99.728457
1866.000000	99.822610
1865.000000	99.886965
1864.000000	99.915801
1863.000000	99.914929
1862.000000	99.897798
1861.000000	99.880043
1860.000000	99.866367
1859.000000	99.851235
1858.000000	99.834354
1857.000000	99.822144
1856.000000	99.813057
1855.000000	99.797834
1854.000000	99.776373
1853.000000	99.757250
1852.000000	99.738639
1851.000000	99.708687
1850.000000	99.665604
1849.000000	99.611989
1848.000000	99.524234
1847.000000	99.362548
1846.000000	99.137480
1845.000000	98.944665
1844.000000	98.896896
1843.000000	99.017056
1842.000000	99.214933
1841.000000	99.370896
1840.000000	99.429629
1839.000000	99.415194
1838.000000	99.378609
1837.000000	99.348982
1836.000000	99.327700
1835.000000	99.303857
1834.000000	99.258134
1833.000000	99.164367
1832.000000	99.016569
1831.000000	98.860572
1830.000000	98.770789
1829.000000	98.773997
1828.000000	98.813892
1827.000000	98.816232
1826.000000	98.776160
1825.000000	98.752098
1824.000000	98.781905
1823.000000	98.840091
1822.000000	98.879876
1821.000000	98.883412
1820.000000	98.859109
1819.000000	98.818433
1818.000000	98.773610
1817.000000	98.738698
1816.000000	98.714348
1815.000000	98.681769
1814.000000	98.623890
1813.000000	98.544932
1812.000000	98.463842
1811.000000	98.398923
1810.000000	98.361677
1809.000000	98.351222
1808.000000	98.349057
1807.000000	98.330877
1806.000000	98.286391
1805.000000	98.217179
1804.000000	98.120387
1803.000000	97.995579
1802.000000	97.867142
1801.000000	97.775141
1800.000000	97.736999
1799.000000	97.734947
1798.000000	97.738718
1797.000000	97.714409
1796.000000	97.615018
1795.000000	97.408151
1794.000000	97.136895
1793.000000	96.921561
1792.000000	96.866765
1791.000000	96.971607
1790.000000	97.140307
1789.000000	97.263563
1788.000000	97.282123
1787.000000	97.203658
1786.000000	97.087249
1785.000000	96.997652
1784.000000	96.951814
1783.000000	96.915793
1782.000000	96.860676
1781.000000	96.800158
1780.000000	96.760736
1779.000000	96.739474
1778.000000	96.707119
1777.000000	96.625767
1776.000000	96.448302
1775.000000	96.145182
1774.000000	95.774879
1773.000000	95.494045
1772.000000	95.433402
1771.000000	95.564113
1770.000000	95.734206
1769.000000	95.838346
1768.000000	95.901590
1767.000000	95.985707
1766.000000	96.069034
1765.000000	96.063247
1764.000000	95.929293
1763.000000	95.737375
1762.000000	95.604488
1761.000000	95.583918
1760.000000	95.621165
1759.000000	95.619485
1758.000000	95.546981
1757.000000	95.462387
1756.000000	95.420993
1755.000000	95.377788
1754.000000	95.226859
1753.000000	94.941093
1752.000000	94.631043
1751.000000	94.442083
1750.000000	94.419201
1749.000000	94.494241
1748.000000	94.576942
1747.000000	94.621323
1746.000000	94.618760
1745.000000	94.571293
1744.000000	94.482176
1743.000000	94.350723
1742.000000	94.177411
1741.000000	93.995985
1740.000000	93.881724
1739.000000	93.868017
1738.000000	93.843213
1737.000000	93.607764
1736.000000	93.106104
1735.000000	92.570238
1734.000000	92.347796
1733.000000	92.570198
1732.000000	93.042677
1731.000000	93.467656
1730.000000	93.709633
1729.000000	93.817247
1728.000000	93.868991
1727.000000	93.883435
1726.000000	93.856837
1725.000000	93.807925
1724.000000	93.761276
1723.000000	93.711541
1722.000000	93.605230
1721.000000	93.351993
1720.000000	92.898670
1719.000000	92.339688
1718.000000	91.917879
1717.000000	91.841040
1716.000000	92.093505
1715.000000	92.474387
1714.000000	92.802765
1713.000000	93.024595
1712.000000	93.145308
1711.000000	93.162486
1710.000000	93.089484
1709.000000	92.964319
1708.000000	92.804366
1707.000000	92.616576
1706.000000	92.456814
1705.000000	92.373874
1704.000000	92.265596
1703.000000	91.928825
1702.000000	91.348864
1701.000000	90.824878
1700.000000	90.660994
1699.000000	90.796425
1698.000000	90.904594
1697.000000	90.842493
1696.000000	90.828229
1695.000000	91.122198
1694.000000	91.672905
1693.000000	92.177792
1692.000000	92.418498
1691.000000	92.430825
1690.000000	92.363466
1689.000000	92.252568
1688.000000	91.975299
1687.000000	91.425476
1686.000000	90.727862
1685.000000	90.235666
1684.000000	90.250395
1683.000000	90.735537
1682.000000	91.355982
1681.000000	91.798664
1680.000000	91.987274
1679.000000	91.988184
1678.000000	91.839121
1677.000000	91.568286
1676.000000	91.301568
1675.000000	91.202892
1674.000000	91.287011
1673.000000	91.383296
1672.000000	91.327214
1671.000000	91.139592
1670.000000	90.986647
1669.000000	91.001722
1668.000000	91.173392
1667.000000	91.373060
1666.000000	91.457388
1665.000000	91.368804
1664.000000	91.179630
1663.000000	91.036718
1662.000000	91.033627
1661.000000	91.133736
1660.000000	91.229397
1659.000000	91.246869
1658.000000	91.140833
1657.000000	90.804357
1656.000000	90.101868
1655.000000	89.091314
1654.000000	88.168955
1653.000000	87.845679
1652.000000	88.292067
1651.000000	89.140713
1650.000000	89.795827
1649.000000	89.932308
1648.000000	89.684542
1647.000000	89.417247
1646.000000	89.391237
1645.000000	89.621387
1644.000000	89.947685
1643.000000	90.188743
1642.000000	90.263229
1641.000000	90.202065
1640.000000	90.047226
1639.000000	89.765668
1638.000000	89.317047
1637.000000	88.802489
1636.000000	88.465271
1635.000000	88.486402
1634.000000	88.805079
1633.000000	89.176474
1632.000000	89.384871
1631.000000	89.376034
1630.000000	89.223298
1629.000000	89.027011
1628.000000	88.845307
1627.000000	88.671983
1626.000000	88.459672
1625.000000	88.184359
1624.000000	87.896067
1623.000000	87.684508
1622.000000	87.575728
1621.000000	87.470399
1620.000000	87.210383
1619.000000	86.733542
1618.000000	86.171442
1617.000000	85.770702
1616.000000	85.681860
1615.000000	85.816852
1614.000000	85.931322
1613.000000	85.847332
1612.000000	85.578024
1611.000000	85.251183
1610.000000	84.969146
1609.000000	84.767482
1608.000000	84.656567
1607.000000	84.639879
1606.000000	84.695863
1605.000000	84.785276
1604.000000	84.885807
1603.000000	84.998612
1602.000000	85.122534
1601.000000	85.244925
1600.000000	85.358127
1599.000000	85.463854
1598.000000	85.559107
1597.000000	85.635633
1596.000000	85.695484
1595.000000	85.750912
1594.000000	85.805622
1593.000000	85.849422
1592.000000	85.874115
1591.000000	85.883017
1590.000000	85.881934
1589.000000	85.870890
1588.000000	85.848589
1587.000000	85.818003
1586.000000	85.783744
1585.000000	85.747610
1584.000000	85.710397
1583.000000	85.677759
1582.000000	85.655806
1581.000000	85.622934
1580.000000	85.502480
1579.000000	85.203406
1578.000000	84.742521
1577.000000	84.320661
1576.000000	84.202374
1575.000000	84.464318
1574.000000	84.887754
1573.000000	85.146865
1572.000000	85.099984
1571.000000	84.873597
1570.000000	84.688918
1569.000000	84.655905
1568.000000	84.726868
1567.000000	84.790386
1566.000000	84.776248
1565.000000	84.678248
1564.000000	84.484027
1563.000000	84.101161
1562.000000	83.418575
1561.000000	82.503482
1560.000000	81.696340
1559.000000	81.395871
1558.000000	81.702945
1557.000000	82.333845
1556.000000	82.915763
1555.000000	83.308169
1554.000000	83.599534
1553.000000	83.880614
1552.000000	84.132265
1551.000000	84.313199
1550.000000	84.442182
1549.000000	84.550565
1548.000000	84.617019
1547.000000	84.598515
1546.000000	84.494875
1545.000000	84.339181
1544.000000	84.135485
1543.000000	83.848770
1542.000000	83.483356
1541.000000	83.168588
1540.000000	83.131410
1539.000000	83.523584
1538.000000	84.240788
1537.000000	84.947563
1536.000000	85.342302
1535.000000	85.408250
1534.000000	85.376468
1533.000000	85.457938
1532.000000	85.661436
1531.000000	85.859383
1530.000000	85.947974
1529.000000	85.909034
1528.000000	85.782257
1527.000000	85.634357
1526.000000	85.515630
1525.000000	85.395013
1524.000000	85.176474
1523.000000	84.841522
1522.000000	84.542468
1521.000000	84.471429
1520.000000	84.638382
1519.000000	84.855345
1518.000000	84.953829
1517.000000	84.943447
1516.000000	84.925521
1515.000000	84.928816
1514.000000	84.901496
1513.000000	84.819039
1512.000000	84.704600
1511.000000	84.532089
1510.000000	84.189873
1509.000000	83.607061
1508.000000	82.904865
1507.000000	82.367851
1506.000000	82.219719
1505.000000	82.411269
1504.000000	82.632405
1503.000000	82.537665
1502.000000	81.961849
1501.000000	80.939286
1500.000000	79.579429
