PE IR       SUBTECH     SPECTRUM    ASCII       PEDS        4.00        
   -1
TE108B2_022.ASC
20/02/27
15:26:16.00
20/02/27
15:26:16.00
Administrator
Sample 022 By Administrator Date Thursday, February 27 2020
1500.000000
#HDR
-1
-1
#GR
cm-1
A
1.0
0.0
4000.000000
-1.000000
2501
8
0.917518
0.875969
#DATA
4000.000000	0.884325
3999.000000	0.884310
3998.000000	0.884300
3997.000000	0.884294
3996.000000	0.884286
3995.000000	0.884278
3994.000000	0.884274
3993.000000	0.884280
3992.000000	0.884286
3991.000000	0.884281
3990.000000	0.884258
3989.000000	0.884227
3988.000000	0.884201
3987.000000	0.884185
3986.000000	0.884172
3985.000000	0.884154
3984.000000	0.884130
3983.000000	0.884111
3982.000000	0.884104
3981.000000	0.884110
3980.000000	0.884122
3979.000000	0.884130
3978.000000	0.884125
3977.000000	0.884097
3976.000000	0.884045
3975.000000	0.883979
3974.000000	0.883921
3973.000000	0.883890
3972.000000	0.883886
3971.000000	0.883892
3970.000000	0.883883
3969.000000	0.883854
3968.000000	0.883825
3967.000000	0.883819
3966.000000	0.883837
3965.000000	0.883858
3964.000000	0.883858
3963.000000	0.883828
3962.000000	0.883782
3961.000000	0.883737
3960.000000	0.883703
3959.000000	0.883676
3958.000000	0.883653
3957.000000	0.883635
3956.000000	0.883621
3955.000000	0.883609
3954.000000	0.883588
3953.000000	0.883555
3952.000000	0.883516
3951.000000	0.883476
3950.000000	0.883434
3949.000000	0.883387
3948.000000	0.883338
3947.000000	0.883299
3946.000000	0.883274
3945.000000	0.883255
3944.000000	0.883222
3943.000000	0.883166
3942.000000	0.883099
3941.000000	0.883041
3940.000000	0.883010
3939.000000	0.883008
3938.000000	0.883024
3937.000000	0.883040
3936.000000	0.883033
3935.000000	0.882986
3934.000000	0.882899
3933.000000	0.882790
3932.000000	0.882696
3931.000000	0.882641
3930.000000	0.882627
3929.000000	0.882630
3928.000000	0.882619
3927.000000	0.882580
3926.000000	0.882520
3925.000000	0.882460
3924.000000	0.882421
3923.000000	0.882405
3922.000000	0.882392
3921.000000	0.882353
3920.000000	0.882277
3919.000000	0.882177
3918.000000	0.882080
3917.000000	0.882013
3916.000000	0.881987
3915.000000	0.881995
3914.000000	0.882018
3913.000000	0.882034
3912.000000	0.882027
3911.000000	0.881992
3910.000000	0.881934
3909.000000	0.881864
3908.000000	0.881783
3907.000000	0.881682
3906.000000	0.881549
3905.000000	0.881384
3904.000000	0.881211
3903.000000	0.881056
3902.000000	0.880940
3901.000000	0.880872
3900.000000	0.880853
3899.000000	0.880882
3898.000000	0.880952
3897.000000	0.881043
3896.000000	0.881126
3895.000000	0.881169
3894.000000	0.881150
3893.000000	0.881069
3892.000000	0.880955
3891.000000	0.880858
3890.000000	0.880806
3889.000000	0.880783
3888.000000	0.880741
3887.000000	0.880647
3886.000000	0.880525
3885.000000	0.880433
3884.000000	0.880416
3883.000000	0.880455
3882.000000	0.880496
3881.000000	0.880498
3880.000000	0.880478
3879.000000	0.880474
3878.000000	0.880504
3877.000000	0.880538
3876.000000	0.880537
3875.000000	0.880484
3874.000000	0.880388
3873.000000	0.880256
3872.000000	0.880090
3871.000000	0.879906
3870.000000	0.879747
3869.000000	0.879663
3868.000000	0.879668
3867.000000	0.879719
3866.000000	0.879753
3865.000000	0.879737
3864.000000	0.879689
3863.000000	0.879649
3862.000000	0.879646
3861.000000	0.879684
3860.000000	0.879748
3859.000000	0.879811
3858.000000	0.879810
3857.000000	0.879653
3856.000000	0.879274
3855.000000	0.878711
3854.000000	0.878133
3853.000000	0.877767
3852.000000	0.877757
3851.000000	0.878079
3850.000000	0.878566
3849.000000	0.879022
3848.000000	0.879329
3847.000000	0.879471
3846.000000	0.879495
3845.000000	0.879455
3844.000000	0.879391
3843.000000	0.879320
3842.000000	0.879234
3841.000000	0.879104
3840.000000	0.878909
3839.000000	0.878663
3838.000000	0.878435
3837.000000	0.878303
3836.000000	0.878307
3835.000000	0.878419
3834.000000	0.878571
3833.000000	0.878696
3832.000000	0.878768
3831.000000	0.878804
3830.000000	0.878827
3829.000000	0.878849
3828.000000	0.878868
3827.000000	0.878883
3826.000000	0.878893
3825.000000	0.878881
3824.000000	0.878807
3823.000000	0.878648
3822.000000	0.878437
3821.000000	0.878262
3820.000000	0.878183
3819.000000	0.878172
3818.000000	0.878135
3817.000000	0.878015
3816.000000	0.877861
3815.000000	0.877792
3814.000000	0.877883
3813.000000	0.878098
3812.000000	0.878327
3811.000000	0.878465
3810.000000	0.878464
3809.000000	0.878335
3808.000000	0.878140
3807.000000	0.877967
3806.000000	0.877884
3805.000000	0.877880
3804.000000	0.877872
3803.000000	0.877776
3802.000000	0.877597
3801.000000	0.877435
3800.000000	0.877401
3799.000000	0.877513
3798.000000	0.877695
3797.000000	0.877849
3796.000000	0.877938
3795.000000	0.877987
3794.000000	0.878038
3793.000000	0.878104
3792.000000	0.878170
3791.000000	0.878216
3790.000000	0.878240
3789.000000	0.878246
3788.000000	0.878237
3787.000000	0.878209
3786.000000	0.878163
3785.000000	0.878111
3784.000000	0.878070
3783.000000	0.878043
3782.000000	0.878018
3781.000000	0.877977
3780.000000	0.877917
3779.000000	0.877861
3778.000000	0.877837
3777.000000	0.877858
3776.000000	0.877909
3775.000000	0.877962
3774.000000	0.877989
3773.000000	0.877971
3772.000000	0.877903
3771.000000	0.877798
3770.000000	0.877690
3769.000000	0.877610
3768.000000	0.877569
3767.000000	0.877558
3766.000000	0.877565
3765.000000	0.877587
3764.000000	0.877628
3763.000000	0.877673
3762.000000	0.877691
3761.000000	0.877657
3760.000000	0.877582
3759.000000	0.877511
3758.000000	0.877490
3757.000000	0.877525
3756.000000	0.877561
3755.000000	0.877512
3754.000000	0.877316
3753.000000	0.876979
3752.000000	0.876578
3751.000000	0.876239
3750.000000	0.876077
3749.000000	0.876125
3748.000000	0.876293
3747.000000	0.876409
3746.000000	0.876347
3745.000000	0.876139
3744.000000	0.875969
3743.000000	0.876024
3742.000000	0.876335
3741.000000	0.876759
3740.000000	0.877091
3739.000000	0.877205
3738.000000	0.877109
3737.000000	0.876902
3736.000000	0.876705
3735.000000	0.876587
3734.000000	0.876563
3733.000000	0.876611
3732.000000	0.876713
3731.000000	0.876859
3730.000000	0.877031
3729.000000	0.877186
3728.000000	0.877278
3727.000000	0.877296
3726.000000	0.877268
3725.000000	0.877243
3724.000000	0.877249
3723.000000	0.877283
3722.000000	0.877329
3721.000000	0.877369
3720.000000	0.877399
3719.000000	0.877430
3718.000000	0.877480
3717.000000	0.877547
3716.000000	0.877603
3715.000000	0.877597
3714.000000	0.877500
3713.000000	0.877331
3712.000000	0.877159
3711.000000	0.877065
3710.000000	0.877092
3709.000000	0.877228
3708.000000	0.877425
3707.000000	0.877632
3706.000000	0.877816
3705.000000	0.877956
3704.000000	0.878044
3703.000000	0.878084
3702.000000	0.878112
3701.000000	0.878176
3700.000000	0.878307
3699.000000	0.878496
3698.000000	0.878702
3697.000000	0.878881
3696.000000	0.879013
3695.000000	0.879098
3694.000000	0.879139
3693.000000	0.879128
3692.000000	0.879048
3691.000000	0.878891
3690.000000	0.878686
3689.000000	0.878511
3688.000000	0.878466
3687.000000	0.878608
3686.000000	0.878908
3685.000000	0.879271
3684.000000	0.879595
3683.000000	0.879826
3682.000000	0.879972
3681.000000	0.880063
3680.000000	0.880114
3679.000000	0.880105
3678.000000	0.880007
3677.000000	0.879833
3676.000000	0.879672
3675.000000	0.879641
3674.000000	0.879790
3673.000000	0.880046
3672.000000	0.880281
3671.000000	0.880424
3670.000000	0.880528
3669.000000	0.880705
3668.000000	0.881013
3667.000000	0.881407
3666.000000	0.881790
3665.000000	0.882087
3664.000000	0.882290
3663.000000	0.882438
3662.000000	0.882576
3661.000000	0.882723
3660.000000	0.882859
3659.000000	0.882954
3658.000000	0.882994
3657.000000	0.883009
3656.000000	0.883060
3655.000000	0.883186
3654.000000	0.883362
3653.000000	0.883507
3652.000000	0.883545
3651.000000	0.883459
3650.000000	0.883321
3649.000000	0.883245
3648.000000	0.883324
3647.000000	0.883576
3646.000000	0.883948
3645.000000	0.884355
3644.000000	0.884719
3643.000000	0.885005
3642.000000	0.885215
3641.000000	0.885372
3640.000000	0.885501
3639.000000	0.885621
3638.000000	0.885740
3637.000000	0.885855
3636.000000	0.885952
3635.000000	0.886028
3634.000000	0.886090
3633.000000	0.886134
3632.000000	0.886133
3631.000000	0.886057
3630.000000	0.885919
3629.000000	0.885802
3628.000000	0.885813
3627.000000	0.886003
3626.000000	0.886324
3625.000000	0.886669
3624.000000	0.886941
3623.000000	0.887098
3622.000000	0.887148
3621.000000	0.887128
3620.000000	0.887096
3619.000000	0.887109
3618.000000	0.887201
3617.000000	0.887358
3616.000000	0.887533
3615.000000	0.887677
3614.000000	0.887776
3613.000000	0.887843
3612.000000	0.887890
3611.000000	0.887919
3610.000000	0.887936
3609.000000	0.887969
3608.000000	0.888058
3607.000000	0.888225
3606.000000	0.888450
3605.000000	0.888682
3604.000000	0.888878
3603.000000	0.889020
3602.000000	0.889119
3601.000000	0.889198
3600.000000	0.889274
3599.000000	0.889357
3598.000000	0.889442
3597.000000	0.889521
3596.000000	0.889588
3595.000000	0.889649
3594.000000	0.889721
3593.000000	0.889815
3592.000000	0.889919
3591.000000	0.890004
3590.000000	0.890041
3589.000000	0.890032
3588.000000	0.890016
3587.000000	0.890045
3586.000000	0.890149
3585.000000	0.890314
3584.000000	0.890494
3583.000000	0.890646
3582.000000	0.890752
3581.000000	0.890827
3580.000000	0.890892
3579.000000	0.890957
3578.000000	0.891021
3577.000000	0.891080
3576.000000	0.891140
3575.000000	0.891210
3574.000000	0.891294
3573.000000	0.891384
3572.000000	0.891460
3571.000000	0.891496
3570.000000	0.891478
3569.000000	0.891423
3568.000000	0.891375
3567.000000	0.891384
3566.000000	0.891468
3565.000000	0.891607
3564.000000	0.891759
3563.000000	0.891885
3562.000000	0.891972
3561.000000	0.892029
3560.000000	0.892077
3559.000000	0.892135
3558.000000	0.892214
3557.000000	0.892309
3556.000000	0.892405
3555.000000	0.892480
3554.000000	0.892519
3553.000000	0.892527
3552.000000	0.892532
3551.000000	0.892564
3550.000000	0.892631
3549.000000	0.892715
3548.000000	0.892790
3547.000000	0.892847
3546.000000	0.892897
3545.000000	0.892958
3544.000000	0.893034
3543.000000	0.893121
3542.000000	0.893210
3541.000000	0.893299
3540.000000	0.893386
3539.000000	0.893466
3538.000000	0.893532
3537.000000	0.893584
3536.000000	0.893638
3535.000000	0.893709
3534.000000	0.893800
3533.000000	0.893898
3532.000000	0.893990
3531.000000	0.894065
3530.000000	0.894127
3529.000000	0.894185
3528.000000	0.894244
3527.000000	0.894304
3526.000000	0.894362
3525.000000	0.894416
3524.000000	0.894475
3523.000000	0.894550
3522.000000	0.894645
3521.000000	0.894751
3520.000000	0.894853
3519.000000	0.894947
3518.000000	0.895041
3517.000000	0.895146
3516.000000	0.895264
3515.000000	0.895386
3514.000000	0.895501
3513.000000	0.895601
3512.000000	0.895692
3511.000000	0.895786
3510.000000	0.895889
3509.000000	0.896004
3508.000000	0.896126
3507.000000	0.896251
3506.000000	0.896370
3505.000000	0.896479
3504.000000	0.896586
3503.000000	0.896708
3502.000000	0.896854
3501.000000	0.897019
3500.000000	0.897183
3499.000000	0.897333
3498.000000	0.897473
3497.000000	0.897612
3496.000000	0.897755
3495.000000	0.897904
3494.000000	0.898061
3493.000000	0.898228
3492.000000	0.898397
3491.000000	0.898554
3490.000000	0.898687
3489.000000	0.898801
3488.000000	0.898914
3487.000000	0.899041
3486.000000	0.899187
3485.000000	0.899345
3484.000000	0.899503
3483.000000	0.899656
3482.000000	0.899807
3481.000000	0.899967
3480.000000	0.900146
3479.000000	0.900342
3478.000000	0.900540
3477.000000	0.900716
3476.000000	0.900859
3475.000000	0.900981
3474.000000	0.901107
3473.000000	0.901253
3472.000000	0.901415
3471.000000	0.901580
3470.000000	0.901741
3469.000000	0.901906
3468.000000	0.902084
3467.000000	0.902281
3466.000000	0.902487
3465.000000	0.902691
3464.000000	0.902880
3463.000000	0.903049
3462.000000	0.903196
3461.000000	0.903333
3460.000000	0.903475
3459.000000	0.903633
3458.000000	0.903809
3457.000000	0.903994
3456.000000	0.904180
3455.000000	0.904366
3454.000000	0.904554
3453.000000	0.904747
3452.000000	0.904935
3451.000000	0.905107
3450.000000	0.905256
3449.000000	0.905385
3448.000000	0.905503
3447.000000	0.905619
3446.000000	0.905745
3445.000000	0.905884
3444.000000	0.906032
3443.000000	0.906178
3442.000000	0.906315
3441.000000	0.906448
3440.000000	0.906589
3439.000000	0.906742
3438.000000	0.906894
3437.000000	0.907033
3436.000000	0.907162
3435.000000	0.907291
3434.000000	0.907427
3433.000000	0.907562
3432.000000	0.907687
3431.000000	0.907803
3430.000000	0.907920
3429.000000	0.908040
3428.000000	0.908158
3427.000000	0.908272
3426.000000	0.908379
3425.000000	0.908478
3424.000000	0.908571
3423.000000	0.908662
3422.000000	0.908762
3421.000000	0.908880
3420.000000	0.909013
3419.000000	0.909149
3418.000000	0.909271
3417.000000	0.909368
3416.000000	0.909442
3415.000000	0.909504
3414.000000	0.909570
3413.000000	0.909652
3412.000000	0.909749
3411.000000	0.909857
3410.000000	0.909963
3409.000000	0.910062
3408.000000	0.910154
3407.000000	0.910240
3406.000000	0.910311
3405.000000	0.910359
3404.000000	0.910386
3403.000000	0.910409
3402.000000	0.910450
3401.000000	0.910517
3400.000000	0.910600
3399.000000	0.910685
3398.000000	0.910764
3397.000000	0.910839
3396.000000	0.910909
3395.000000	0.910969
3394.000000	0.911011
3393.000000	0.911039
3392.000000	0.911067
3391.000000	0.911114
3390.000000	0.911182
3389.000000	0.911256
3388.000000	0.911316
3387.000000	0.911358
3386.000000	0.911391
3385.000000	0.911423
3384.000000	0.911454
3383.000000	0.911480
3382.000000	0.911508
3381.000000	0.911552
3380.000000	0.911619
3379.000000	0.911696
3378.000000	0.911765
3377.000000	0.911808
3376.000000	0.911831
3375.000000	0.911847
3374.000000	0.911873
3373.000000	0.911905
3372.000000	0.911932
3371.000000	0.911944
3370.000000	0.911942
3369.000000	0.911940
3368.000000	0.911958
3367.000000	0.912005
3366.000000	0.912076
3365.000000	0.912151
3364.000000	0.912215
3363.000000	0.912260
3362.000000	0.912288
3361.000000	0.912302
3360.000000	0.912305
3359.000000	0.912307
3358.000000	0.912315
3357.000000	0.912332
3356.000000	0.912351
3355.000000	0.912374
3354.000000	0.912412
3353.000000	0.912469
3352.000000	0.912531
3351.000000	0.912581
3350.000000	0.912611
3349.000000	0.912632
3348.000000	0.912655
3347.000000	0.912679
3346.000000	0.912696
3345.000000	0.912705
3344.000000	0.912713
3343.000000	0.912730
3342.000000	0.912759
3341.000000	0.912790
3340.000000	0.912820
3339.000000	0.912846
3338.000000	0.912874
3337.000000	0.912900
3336.000000	0.912919
3335.000000	0.912933
3334.000000	0.912948
3333.000000	0.912972
3332.000000	0.913000
3331.000000	0.913016
3330.000000	0.913011
3329.000000	0.912991
3328.000000	0.912975
3327.000000	0.912984
3326.000000	0.913019
3325.000000	0.913067
3324.000000	0.913111
3323.000000	0.913146
3322.000000	0.913179
3321.000000	0.913217
3320.000000	0.913259
3319.000000	0.913300
3318.000000	0.913334
3317.000000	0.913364
3316.000000	0.913388
3315.000000	0.913402
3314.000000	0.913402
3313.000000	0.913395
3312.000000	0.913395
3311.000000	0.913413
3310.000000	0.913449
3309.000000	0.913495
3308.000000	0.913544
3307.000000	0.913589
3306.000000	0.913627
3305.000000	0.913662
3304.000000	0.913699
3303.000000	0.913742
3302.000000	0.913788
3301.000000	0.913830
3300.000000	0.913863
3299.000000	0.913887
3298.000000	0.913913
3297.000000	0.913947
3296.000000	0.913991
3295.000000	0.914039
3294.000000	0.914080
3293.000000	0.914111
3292.000000	0.914134
3291.000000	0.914156
3290.000000	0.914180
3289.000000	0.914206
3288.000000	0.914237
3287.000000	0.914275
3286.000000	0.914316
3285.000000	0.914349
3284.000000	0.914370
3283.000000	0.914387
3282.000000	0.914410
3281.000000	0.914443
3280.000000	0.914486
3279.000000	0.914532
3278.000000	0.914577
3277.000000	0.914620
3276.000000	0.914664
3275.000000	0.914712
3274.000000	0.914757
3273.000000	0.914788
3272.000000	0.914797
3271.000000	0.914797
3270.000000	0.914803
3269.000000	0.914824
3268.000000	0.914857
3267.000000	0.914889
3266.000000	0.914915
3265.000000	0.914938
3264.000000	0.914963
3263.000000	0.914996
3262.000000	0.915035
3261.000000	0.915070
3260.000000	0.915097
3259.000000	0.915122
3258.000000	0.915157
3257.000000	0.915204
3256.000000	0.915257
3255.000000	0.915299
3254.000000	0.915320
3253.000000	0.915321
3252.000000	0.915315
3251.000000	0.915321
3250.000000	0.915348
3249.000000	0.915389
3248.000000	0.915426
3247.000000	0.915451
3246.000000	0.915468
3245.000000	0.915482
3244.000000	0.915494
3243.000000	0.915502
3242.000000	0.915513
3241.000000	0.915533
3240.000000	0.915561
3239.000000	0.915594
3238.000000	0.915631
3237.000000	0.915668
3236.000000	0.915695
3235.000000	0.915706
3234.000000	0.915704
3233.000000	0.915703
3232.000000	0.915711
3231.000000	0.915726
3230.000000	0.915743
3229.000000	0.915762
3228.000000	0.915788
3227.000000	0.915820
3226.000000	0.915850
3225.000000	0.915871
3224.000000	0.915886
3223.000000	0.915900
3222.000000	0.915915
3221.000000	0.915931
3220.000000	0.915945
3219.000000	0.915953
3218.000000	0.915959
3217.000000	0.915964
3216.000000	0.915973
3215.000000	0.915986
3214.000000	0.915999
3213.000000	0.916006
3212.000000	0.916005
3211.000000	0.916009
3210.000000	0.916029
3209.000000	0.916066
3208.000000	0.916102
3207.000000	0.916117
3206.000000	0.916112
3205.000000	0.916106
3204.000000	0.916121
3203.000000	0.916162
3202.000000	0.916214
3201.000000	0.916259
3200.000000	0.916285
3199.000000	0.916294
3198.000000	0.916290
3197.000000	0.916276
3196.000000	0.916255
3195.000000	0.916237
3194.000000	0.916233
3193.000000	0.916250
3192.000000	0.916284
3191.000000	0.916321
3190.000000	0.916345
3189.000000	0.916350
3188.000000	0.916349
3187.000000	0.916355
3186.000000	0.916371
3185.000000	0.916391
3184.000000	0.916404
3183.000000	0.916413
3182.000000	0.916419
3181.000000	0.916419
3180.000000	0.916408
3179.000000	0.916395
3178.000000	0.916395
3177.000000	0.916419
3176.000000	0.916456
3175.000000	0.916481
3174.000000	0.916486
3173.000000	0.916478
3172.000000	0.916471
3171.000000	0.916470
3170.000000	0.916468
3169.000000	0.916463
3168.000000	0.916467
3167.000000	0.916494
3166.000000	0.916541
3165.000000	0.916588
3164.000000	0.916619
3163.000000	0.916634
3162.000000	0.916641
3161.000000	0.916645
3160.000000	0.916639
3159.000000	0.916622
3158.000000	0.916604
3157.000000	0.916592
3156.000000	0.916590
3155.000000	0.916592
3154.000000	0.916597
3153.000000	0.916608
3152.000000	0.916626
3151.000000	0.916649
3150.000000	0.916672
3149.000000	0.916696
3148.000000	0.916719
3147.000000	0.916740
3146.000000	0.916757
3145.000000	0.916768
3144.000000	0.916774
3143.000000	0.916774
3142.000000	0.916768
3141.000000	0.916757
3140.000000	0.916749
3139.000000	0.916748
3138.000000	0.916754
3137.000000	0.916766
3136.000000	0.916782
3135.000000	0.916799
3134.000000	0.916815
3133.000000	0.916824
3132.000000	0.916825
3131.000000	0.916823
3130.000000	0.916825
3129.000000	0.916832
3128.000000	0.916848
3127.000000	0.916870
3126.000000	0.916893
3125.000000	0.916911
3124.000000	0.916923
3123.000000	0.916939
3122.000000	0.916965
3121.000000	0.916993
3120.000000	0.917014
3119.000000	0.917028
3118.000000	0.917043
3117.000000	0.917063
3116.000000	0.917088
3115.000000	0.917118
3114.000000	0.917155
3113.000000	0.917198
3112.000000	0.917239
3111.000000	0.917273
3110.000000	0.917294
3109.000000	0.917297
3108.000000	0.917286
3107.000000	0.917270
3106.000000	0.917262
3105.000000	0.917263
3104.000000	0.917264
3103.000000	0.917267
3102.000000	0.917277
3101.000000	0.917299
3100.000000	0.917328
3099.000000	0.917354
3098.000000	0.917375
3097.000000	0.917391
3096.000000	0.917403
3095.000000	0.917415
3094.000000	0.917433
3093.000000	0.917460
3092.000000	0.917488
3091.000000	0.917509
3090.000000	0.917518
3089.000000	0.917511
3088.000000	0.917487
3087.000000	0.917458
3086.000000	0.917441
3085.000000	0.917450
3084.000000	0.917476
3083.000000	0.917497
3082.000000	0.917498
3081.000000	0.917480
3080.000000	0.917460
3079.000000	0.917455
3078.000000	0.917469
3077.000000	0.917491
3076.000000	0.917506
3075.000000	0.917509
3074.000000	0.917505
3073.000000	0.917501
3072.000000	0.917497
3071.000000	0.917486
3070.000000	0.917470
3069.000000	0.917455
3068.000000	0.917449
3067.000000	0.917451
3066.000000	0.917457
3065.000000	0.917458
3064.000000	0.917449
3063.000000	0.917433
3062.000000	0.917420
3061.000000	0.917420
3060.000000	0.917421
3059.000000	0.917408
3058.000000	0.917372
3057.000000	0.917328
3056.000000	0.917297
3055.000000	0.917288
3054.000000	0.917294
3053.000000	0.917299
3052.000000	0.917290
3051.000000	0.917261
3050.000000	0.917216
3049.000000	0.917166
3048.000000	0.917124
3047.000000	0.917098
3046.000000	0.917086
3045.000000	0.917082
3044.000000	0.917076
3043.000000	0.917064
3042.000000	0.917041
3041.000000	0.917009
3040.000000	0.916974
3039.000000	0.916945
3038.000000	0.916928
3037.000000	0.916919
3036.000000	0.916910
3035.000000	0.916900
3034.000000	0.916893
3033.000000	0.916891
3032.000000	0.916892
3031.000000	0.916892
3030.000000	0.916886
3029.000000	0.916875
3028.000000	0.916862
3027.000000	0.916850
3026.000000	0.916840
3025.000000	0.916826
3024.000000	0.916800
3023.000000	0.916758
3022.000000	0.916710
3021.000000	0.916660
3020.000000	0.916603
3019.000000	0.916527
3018.000000	0.916431
3017.000000	0.916324
3016.000000	0.916219
3015.000000	0.916127
3014.000000	0.916058
3013.000000	0.916010
3012.000000	0.915978
3011.000000	0.915958
3010.000000	0.915948
3009.000000	0.915945
3008.000000	0.915945
3007.000000	0.915936
3006.000000	0.915914
3005.000000	0.915882
3004.000000	0.915848
3003.000000	0.915817
3002.000000	0.915786
3001.000000	0.915746
3000.000000	0.915693
2999.000000	0.915635
2998.000000	0.915586
2997.000000	0.915553
2996.000000	0.915528
2995.000000	0.915497
2994.000000	0.915454
2993.000000	0.915403
2992.000000	0.915349
2991.000000	0.915293
2990.000000	0.915239
2989.000000	0.915196
2988.000000	0.915172
2987.000000	0.915161
2986.000000	0.915150
2985.000000	0.915124
2984.000000	0.915077
2983.000000	0.915017
2982.000000	0.914959
2981.000000	0.914918
2980.000000	0.914898
2979.000000	0.914892
2978.000000	0.914887
2977.000000	0.914879
2976.000000	0.914870
2975.000000	0.914870
2974.000000	0.914883
2973.000000	0.914905
2972.000000	0.914926
2971.000000	0.914939
2970.000000	0.914942
2969.000000	0.914935
2968.000000	0.914916
2967.000000	0.914882
2966.000000	0.914833
2965.000000	0.914769
2964.000000	0.914695
2963.000000	0.914616
2962.000000	0.914539
2961.000000	0.914469
2960.000000	0.914411
2959.000000	0.914359
2958.000000	0.914309
2957.000000	0.914260
2956.000000	0.914212
2955.000000	0.914164
2954.000000	0.914113
2953.000000	0.914060
2952.000000	0.914012
2951.000000	0.913979
2950.000000	0.913968
2949.000000	0.913973
2948.000000	0.913982
2947.000000	0.913987
2946.000000	0.913988
2945.000000	0.913992
2944.000000	0.913998
2943.000000	0.914003
2942.000000	0.914004
2941.000000	0.913998
2940.000000	0.913985
2939.000000	0.913961
2938.000000	0.913918
2937.000000	0.913855
2936.000000	0.913781
2935.000000	0.913712
2934.000000	0.913655
2933.000000	0.913605
2932.000000	0.913552
2931.000000	0.913495
2930.000000	0.913436
2929.000000	0.913373
2928.000000	0.913292
2927.000000	0.913179
2926.000000	0.913033
2925.000000	0.912864
2924.000000	0.912689
2923.000000	0.912516
2922.000000	0.912351
2921.000000	0.912203
2920.000000	0.912084
2919.000000	0.912000
2918.000000	0.911937
2917.000000	0.911877
2916.000000	0.911814
2915.000000	0.911761
2914.000000	0.911739
2913.000000	0.911744
2912.000000	0.911756
2911.000000	0.911756
2910.000000	0.911741
2909.000000	0.911718
2908.000000	0.911695
2907.000000	0.911674
2906.000000	0.911659
2905.000000	0.911644
2904.000000	0.911613
2903.000000	0.911559
2902.000000	0.911486
2901.000000	0.911416
2900.000000	0.911365
2899.000000	0.911334
2898.000000	0.911311
2897.000000	0.911287
2896.000000	0.911257
2895.000000	0.911224
2894.000000	0.911194
2893.000000	0.911170
2892.000000	0.911152
2891.000000	0.911130
2890.000000	0.911095
2889.000000	0.911046
2888.000000	0.910992
2887.000000	0.910945
2886.000000	0.910912
2885.000000	0.910891
2884.000000	0.910876
2883.000000	0.910864
2882.000000	0.910850
2881.000000	0.910829
2880.000000	0.910802
2879.000000	0.910775
2878.000000	0.910756
2877.000000	0.910743
2876.000000	0.910726
2875.000000	0.910702
2874.000000	0.910680
2873.000000	0.910676
2872.000000	0.910698
2871.000000	0.910738
2870.000000	0.910778
2869.000000	0.910803
2868.000000	0.910809
2867.000000	0.910801
2866.000000	0.910776
2865.000000	0.910720
2864.000000	0.910621
2863.000000	0.910484
2862.000000	0.910325
2861.000000	0.910159
2860.000000	0.909999
2859.000000	0.909856
2858.000000	0.909740
2857.000000	0.909651
2856.000000	0.909587
2855.000000	0.909543
2854.000000	0.909511
2853.000000	0.909477
2852.000000	0.909428
2851.000000	0.909366
2850.000000	0.909304
2849.000000	0.909254
2848.000000	0.909216
2847.000000	0.909189
2846.000000	0.909174
2845.000000	0.909173
2844.000000	0.909179
2843.000000	0.909187
2842.000000	0.909193
2841.000000	0.909198
2840.000000	0.909192
2839.000000	0.909170
2838.000000	0.909135
2837.000000	0.909097
2836.000000	0.909072
2835.000000	0.909063
2834.000000	0.909065
2833.000000	0.909067
2832.000000	0.909062
2831.000000	0.909053
2830.000000	0.909044
2829.000000	0.909036
2828.000000	0.909020
2827.000000	0.908992
2826.000000	0.908954
2825.000000	0.908915
2824.000000	0.908879
2823.000000	0.908849
2822.000000	0.908832
2821.000000	0.908824
2820.000000	0.908816
2819.000000	0.908792
2818.000000	0.908751
2817.000000	0.908707
2816.000000	0.908672
2815.000000	0.908651
2814.000000	0.908636
2813.000000	0.908616
2812.000000	0.908585
2811.000000	0.908545
2810.000000	0.908506
2809.000000	0.908474
2808.000000	0.908450
2807.000000	0.908434
2806.000000	0.908424
2805.000000	0.908416
2804.000000	0.908404
2803.000000	0.908383
2802.000000	0.908353
2801.000000	0.908323
2800.000000	0.908298
2799.000000	0.908280
2798.000000	0.908265
2797.000000	0.908243
2796.000000	0.908208
2795.000000	0.908161
2794.000000	0.908118
2793.000000	0.908093
2792.000000	0.908090
2791.000000	0.908100
2790.000000	0.908109
2789.000000	0.908108
2788.000000	0.908090
2787.000000	0.908056
2786.000000	0.908016
2785.000000	0.907979
2784.000000	0.907953
2783.000000	0.907941
2782.000000	0.907937
2781.000000	0.907938
2780.000000	0.907938
2779.000000	0.907932
2778.000000	0.907922
2777.000000	0.907908
2776.000000	0.907893
2775.000000	0.907880
2774.000000	0.907866
2773.000000	0.907847
2772.000000	0.907819
2771.000000	0.907790
2770.000000	0.907773
2769.000000	0.907772
2768.000000	0.907776
2767.000000	0.907770
2766.000000	0.907751
2765.000000	0.907727
2764.000000	0.907708
2763.000000	0.907687
2762.000000	0.907656
2761.000000	0.907612
2760.000000	0.907566
2759.000000	0.907535
2758.000000	0.907527
2757.000000	0.907536
2756.000000	0.907549
2755.000000	0.907554
2754.000000	0.907547
2753.000000	0.907526
2752.000000	0.907496
2751.000000	0.907462
2750.000000	0.907435
2749.000000	0.907424
2748.000000	0.907428
2747.000000	0.907440
2746.000000	0.907449
2745.000000	0.907449
2744.000000	0.907444
2743.000000	0.907438
2742.000000	0.907435
2741.000000	0.907436
2740.000000	0.907441
2739.000000	0.907452
2738.000000	0.907466
2737.000000	0.907474
2736.000000	0.907467
2735.000000	0.907444
2734.000000	0.907418
2733.000000	0.907399
2732.000000	0.907388
2731.000000	0.907383
2730.000000	0.907381
2729.000000	0.907384
2728.000000	0.907390
2727.000000	0.907393
2726.000000	0.907386
2725.000000	0.907369
2724.000000	0.907351
2723.000000	0.907341
2722.000000	0.907341
2721.000000	0.907347
2720.000000	0.907353
2719.000000	0.907359
2718.000000	0.907371
2717.000000	0.907388
2716.000000	0.907400
2715.000000	0.907405
2714.000000	0.907404
2713.000000	0.907400
2712.000000	0.907394
2711.000000	0.907383
2710.000000	0.907367
2709.000000	0.907349
2708.000000	0.907334
2707.000000	0.907325
2706.000000	0.907323
2705.000000	0.907327
2704.000000	0.907331
2703.000000	0.907334
2702.000000	0.907335
2701.000000	0.907336
2700.000000	0.907340
2699.000000	0.907353
2698.000000	0.907380
2697.000000	0.907414
2696.000000	0.907443
2695.000000	0.907467
2694.000000	0.907492
2693.000000	0.907518
2692.000000	0.907538
2691.000000	0.907543
2690.000000	0.907544
2689.000000	0.907549
2688.000000	0.907556
2687.000000	0.907554
2686.000000	0.907544
2685.000000	0.907540
2684.000000	0.907548
2683.000000	0.907567
2682.000000	0.907590
2681.000000	0.907608
2680.000000	0.907618
2679.000000	0.907625
2678.000000	0.907637
2677.000000	0.907657
2676.000000	0.907677
2675.000000	0.907688
2674.000000	0.907692
2673.000000	0.907703
2672.000000	0.907725
2671.000000	0.907747
2670.000000	0.907758
2669.000000	0.907756
2668.000000	0.907751
2667.000000	0.907749
2666.000000	0.907753
2665.000000	0.907770
2664.000000	0.907801
2663.000000	0.907838
2662.000000	0.907866
2661.000000	0.907871
2660.000000	0.907858
2659.000000	0.907843
2658.000000	0.907842
2657.000000	0.907858
2656.000000	0.907885
2655.000000	0.907916
2654.000000	0.907949
2653.000000	0.907981
2652.000000	0.908007
2651.000000	0.908030
2650.000000	0.908053
2649.000000	0.908081
2648.000000	0.908111
2647.000000	0.908136
2646.000000	0.908159
2645.000000	0.908180
2644.000000	0.908198
2643.000000	0.908211
2642.000000	0.908221
2641.000000	0.908235
2640.000000	0.908254
2639.000000	0.908274
2638.000000	0.908298
2637.000000	0.908328
2636.000000	0.908361
2635.000000	0.908388
2634.000000	0.908406
2633.000000	0.908414
2632.000000	0.908418
2631.000000	0.908423
2630.000000	0.908440
2629.000000	0.908477
2628.000000	0.908530
2627.000000	0.908580
2626.000000	0.908616
2625.000000	0.908634
2624.000000	0.908639
2623.000000	0.908640
2622.000000	0.908649
2621.000000	0.908672
2620.000000	0.908701
2619.000000	0.908722
2618.000000	0.908729
2617.000000	0.908738
2616.000000	0.908763
2615.000000	0.908808
2614.000000	0.908861
2613.000000	0.908906
2612.000000	0.908937
2611.000000	0.908951
2610.000000	0.908956
2609.000000	0.908964
2608.000000	0.908983
2607.000000	0.909012
2606.000000	0.909041
2605.000000	0.909065
2604.000000	0.909082
2603.000000	0.909095
2602.000000	0.909108
2601.000000	0.909130
2600.000000	0.909167
2599.000000	0.909214
2598.000000	0.909259
2597.000000	0.909290
2596.000000	0.909302
2595.000000	0.909300
2594.000000	0.909297
2593.000000	0.909303
2592.000000	0.909324
2591.000000	0.909360
2590.000000	0.909402
2589.000000	0.909441
2588.000000	0.909474
2587.000000	0.909502
2586.000000	0.909529
2585.000000	0.909557
2584.000000	0.909583
2583.000000	0.909604
2582.000000	0.909618
2581.000000	0.909630
2580.000000	0.909644
2579.000000	0.909662
2578.000000	0.909682
2577.000000	0.909704
2576.000000	0.909728
2575.000000	0.909752
2574.000000	0.909774
2573.000000	0.909795
2572.000000	0.909818
2571.000000	0.909846
2570.000000	0.909880
2569.000000	0.909918
2568.000000	0.909956
2567.000000	0.909991
2566.000000	0.910018
2565.000000	0.910039
2564.000000	0.910056
2563.000000	0.910075
2562.000000	0.910102
2561.000000	0.910132
2560.000000	0.910157
2559.000000	0.910173
2558.000000	0.910185
2557.000000	0.910206
2556.000000	0.910238
2555.000000	0.910271
2554.000000	0.910297
2553.000000	0.910317
2552.000000	0.910339
2551.000000	0.910375
2550.000000	0.910425
2549.000000	0.910480
2548.000000	0.910529
2547.000000	0.910567
2546.000000	0.910592
2545.000000	0.910606
2544.000000	0.910612
2543.000000	0.910618
2542.000000	0.910631
2541.000000	0.910653
2540.000000	0.910678
2539.000000	0.910701
2538.000000	0.910724
2537.000000	0.910746
2536.000000	0.910766
2535.000000	0.910788
2534.000000	0.910822
2533.000000	0.910872
2532.000000	0.910925
2531.000000	0.910963
2530.000000	0.910987
2529.000000	0.911013
2528.000000	0.911054
2527.000000	0.911100
2526.000000	0.911132
2525.000000	0.911143
2524.000000	0.911145
2523.000000	0.911156
2522.000000	0.911183
2521.000000	0.911217
2520.000000	0.911246
2519.000000	0.911265
2518.000000	0.911281
2517.000000	0.911299
2516.000000	0.911320
2515.000000	0.911347
2514.000000	0.911387
2513.000000	0.911439
2512.000000	0.911490
2511.000000	0.911525
2510.000000	0.911547
2509.000000	0.911574
2508.000000	0.911612
2507.000000	0.911654
2506.000000	0.911692
2505.000000	0.911724
2504.000000	0.911752
2503.000000	0.911775
2502.000000	0.911789
2501.000000	0.911794
2500.000000	0.911797
2499.000000	0.911808
2498.000000	0.911833
2497.000000	0.911874
2496.000000	0.911927
2495.000000	0.911985
2494.000000	0.912040
2493.000000	0.912081
2492.000000	0.912102
2491.000000	0.912109
2490.000000	0.912116
2489.000000	0.912133
2488.000000	0.912164
2487.000000	0.912200
2486.000000	0.912237
2485.000000	0.912269
2484.000000	0.912294
2483.000000	0.912311
2482.000000	0.912330
2481.000000	0.912362
2480.000000	0.912403
2479.000000	0.912441
2478.000000	0.912469
2477.000000	0.912495
2476.000000	0.912526
2475.000000	0.912565
2474.000000	0.912611
2473.000000	0.912659
2472.000000	0.912707
2471.000000	0.912749
2470.000000	0.912788
2469.000000	0.912824
2468.000000	0.912854
2467.000000	0.912870
2466.000000	0.912875
2465.000000	0.912886
2464.000000	0.912916
2463.000000	0.912959
2462.000000	0.913001
2461.000000	0.913038
2460.000000	0.913071
2459.000000	0.913102
2458.000000	0.913131
2457.000000	0.913166
2456.000000	0.913210
2455.000000	0.913253
2454.000000	0.913284
2453.000000	0.913299
2452.000000	0.913311
2451.000000	0.913333
2450.000000	0.913364
2449.000000	0.913392
2448.000000	0.913407
2447.000000	0.913413
2446.000000	0.913423
2445.000000	0.913447
2444.000000	0.913478
2443.000000	0.913501
2442.000000	0.913507
2441.000000	0.913505
2440.000000	0.913513
2439.000000	0.913532
2438.000000	0.913551
2437.000000	0.913559
2436.000000	0.913555
2435.000000	0.913548
2434.000000	0.913546
2433.000000	0.913552
2432.000000	0.913561
2431.000000	0.913561
2430.000000	0.913547
2429.000000	0.913527
2428.000000	0.913518
2427.000000	0.913523
2426.000000	0.913532
2425.000000	0.913532
2424.000000	0.913516
2423.000000	0.913489
2422.000000	0.913461
2421.000000	0.913440
2420.000000	0.913435
2419.000000	0.913444
2418.000000	0.913455
2417.000000	0.913457
2416.000000	0.913448
2415.000000	0.913433
2414.000000	0.913412
2413.000000	0.913387
2412.000000	0.913366
2411.000000	0.913359
2410.000000	0.913359
2409.000000	0.913351
2408.000000	0.913318
2407.000000	0.913269
2406.000000	0.913230
2405.000000	0.913217
2404.000000	0.913226
2403.000000	0.913237
2402.000000	0.913235
2401.000000	0.913220
2400.000000	0.913198
2399.000000	0.913177
2398.000000	0.913160
2397.000000	0.913151
2396.000000	0.913151
2395.000000	0.913159
2394.000000	0.913172
2393.000000	0.913185
2392.000000	0.913194
2391.000000	0.913197
2390.000000	0.913191
2389.000000	0.913176
2388.000000	0.913151
2387.000000	0.913118
2386.000000	0.913081
2385.000000	0.913044
2384.000000	0.913012
2383.000000	0.912984
2382.000000	0.912959
2381.000000	0.912928
2380.000000	0.912880
2379.000000	0.912800
2378.000000	0.912682
2377.000000	0.912536
2376.000000	0.912378
2375.000000	0.912222
2374.000000	0.912069
2373.000000	0.911909
2372.000000	0.911728
2371.000000	0.911523
2370.000000	0.911303
2369.000000	0.911085
2368.000000	0.910882
2367.000000	0.910696
2366.000000	0.910526
2365.000000	0.910377
2364.000000	0.910264
2363.000000	0.910192
2362.000000	0.910157
2361.000000	0.910148
2360.000000	0.910161
2359.000000	0.910204
2358.000000	0.910290
2357.000000	0.910427
2356.000000	0.910614
2355.000000	0.910845
2354.000000	0.911108
2353.000000	0.911396
2352.000000	0.911707
2351.000000	0.912031
2350.000000	0.912339
2349.000000	0.912587
2348.000000	0.912753
2347.000000	0.912857
2346.000000	0.912957
2345.000000	0.913116
2344.000000	0.913371
2343.000000	0.913724
2342.000000	0.914134
2341.000000	0.914516
2340.000000	0.914765
2339.000000	0.914796
2338.000000	0.914588
2337.000000	0.914197
2336.000000	0.913733
2335.000000	0.913307
2334.000000	0.912981
2333.000000	0.912762
2332.000000	0.912624
2331.000000	0.912550
2330.000000	0.912532
2329.000000	0.912564
2328.000000	0.912629
2327.000000	0.912706
2326.000000	0.912784
2325.000000	0.912858
2324.000000	0.912930
2323.000000	0.913007
2322.000000	0.913099
2321.000000	0.913206
2320.000000	0.913318
2319.000000	0.913425
2318.000000	0.913528
2317.000000	0.913625
2316.000000	0.913712
2315.000000	0.913779
2314.000000	0.913833
2313.000000	0.913888
2312.000000	0.913959
2311.000000	0.914044
2310.000000	0.914128
2309.000000	0.914195
2308.000000	0.914237
2307.000000	0.914265
2306.000000	0.914302
2305.000000	0.914362
2304.000000	0.914434
2303.000000	0.914497
2302.000000	0.914537
2301.000000	0.914558
2300.000000	0.914569
2299.000000	0.914581
2298.000000	0.914601
2297.000000	0.914633
2296.000000	0.914671
2295.000000	0.914710
2294.000000	0.914745
2293.000000	0.914777
2292.000000	0.914805
2291.000000	0.914830
2290.000000	0.914851
2289.000000	0.914872
2288.000000	0.914894
2287.000000	0.914914
2286.000000	0.914928
2285.000000	0.914936
2284.000000	0.914942
2283.000000	0.914953
2282.000000	0.914975
2281.000000	0.915010
2280.000000	0.915047
2279.000000	0.915080
2278.000000	0.915112
2277.000000	0.915150
2276.000000	0.915193
2275.000000	0.915229
2274.000000	0.915246
2273.000000	0.915244
2272.000000	0.915233
2271.000000	0.915227
2270.000000	0.915236
2269.000000	0.915262
2268.000000	0.915298
2267.000000	0.915332
2266.000000	0.915355
2265.000000	0.915371
2264.000000	0.915387
2263.000000	0.915407
2262.000000	0.915425
2261.000000	0.915435
2260.000000	0.915435
2259.000000	0.915439
2258.000000	0.915456
2257.000000	0.915483
2256.000000	0.915501
2255.000000	0.915500
2254.000000	0.915491
2253.000000	0.915493
2252.000000	0.915512
2251.000000	0.915540
2250.000000	0.915570
2249.000000	0.915598
2248.000000	0.915623
2247.000000	0.915640
2246.000000	0.915652
2245.000000	0.915667
2244.000000	0.915687
2243.000000	0.915703
2242.000000	0.915713
2241.000000	0.915719
2240.000000	0.915726
2239.000000	0.915735
2238.000000	0.915743
2237.000000	0.915751
2236.000000	0.915759
2235.000000	0.915764
2234.000000	0.915761
2233.000000	0.915753
2232.000000	0.915752
2231.000000	0.915763
2230.000000	0.915785
2229.000000	0.915808
2228.000000	0.915818
2227.000000	0.915811
2226.000000	0.915799
2225.000000	0.915796
2224.000000	0.915812
2223.000000	0.915839
2222.000000	0.915866
2221.000000	0.915883
2220.000000	0.915889
2219.000000	0.915887
2218.000000	0.915880
2217.000000	0.915871
2216.000000	0.915866
2215.000000	0.915870
2214.000000	0.915886
2213.000000	0.915907
2212.000000	0.915917
2211.000000	0.915908
2210.000000	0.915884
2209.000000	0.915861
2208.000000	0.915846
2207.000000	0.915836
2206.000000	0.915825
2205.000000	0.915815
2204.000000	0.915804
2203.000000	0.915794
2202.000000	0.915784
2201.000000	0.915773
2200.000000	0.915758
2199.000000	0.915731
2198.000000	0.915699
2197.000000	0.915675
2196.000000	0.915670
2195.000000	0.915682
2194.000000	0.915695
2193.000000	0.915695
2192.000000	0.915677
2191.000000	0.915645
2190.000000	0.915613
2189.000000	0.915593
2188.000000	0.915586
2187.000000	0.915582
2186.000000	0.915575
2185.000000	0.915563
2184.000000	0.915550
2183.000000	0.915536
2182.000000	0.915517
2181.000000	0.915495
2180.000000	0.915473
2179.000000	0.915457
2178.000000	0.915446
2177.000000	0.915438
2176.000000	0.915428
2175.000000	0.915413
2174.000000	0.915394
2173.000000	0.915375
2172.000000	0.915354
2171.000000	0.915329
2170.000000	0.915302
2169.000000	0.915281
2168.000000	0.915267
2167.000000	0.915255
2166.000000	0.915239
2165.000000	0.915216
2164.000000	0.915189
2163.000000	0.915157
2162.000000	0.915125
2161.000000	0.915097
2160.000000	0.915080
2159.000000	0.915070
2158.000000	0.915060
2157.000000	0.915040
2156.000000	0.915006
2155.000000	0.914967
2154.000000	0.914934
2153.000000	0.914914
2152.000000	0.914902
2151.000000	0.914889
2150.000000	0.914871
2149.000000	0.914845
2148.000000	0.914806
2147.000000	0.914750
2146.000000	0.914688
2145.000000	0.914637
2144.000000	0.914607
2143.000000	0.914594
2142.000000	0.914588
2141.000000	0.914578
2140.000000	0.914560
2139.000000	0.914530
2138.000000	0.914488
2137.000000	0.914441
2136.000000	0.914396
2135.000000	0.914362
2134.000000	0.914341
2133.000000	0.914325
2132.000000	0.914299
2131.000000	0.914257
2130.000000	0.914205
2129.000000	0.914153
2128.000000	0.914106
2127.000000	0.914063
2126.000000	0.914023
2125.000000	0.913991
2124.000000	0.913972
2123.000000	0.913960
2122.000000	0.913949
2121.000000	0.913933
2120.000000	0.913906
2119.000000	0.913867
2118.000000	0.913824
2117.000000	0.913788
2116.000000	0.913758
2115.000000	0.913724
2114.000000	0.913680
2113.000000	0.913629
2112.000000	0.913581
2111.000000	0.913537
2110.000000	0.913495
2109.000000	0.913457
2108.000000	0.913418
2107.000000	0.913372
2106.000000	0.913313
2105.000000	0.913250
2104.000000	0.913199
2103.000000	0.913167
2102.000000	0.913148
2101.000000	0.913132
2100.000000	0.913109
2099.000000	0.913075
2098.000000	0.913032
2097.000000	0.912987
2096.000000	0.912948
2095.000000	0.912915
2094.000000	0.912883
2093.000000	0.912848
2092.000000	0.912806
2091.000000	0.912753
2090.000000	0.912695
2089.000000	0.912644
2088.000000	0.912609
2087.000000	0.912590
2086.000000	0.912578
2085.000000	0.912564
2084.000000	0.912540
2083.000000	0.912496
2082.000000	0.912433
2081.000000	0.912364
2080.000000	0.912303
2079.000000	0.912257
2078.000000	0.912219
2077.000000	0.912179
2076.000000	0.912132
2075.000000	0.912079
2074.000000	0.912027
2073.000000	0.911980
2072.000000	0.911940
2071.000000	0.911904
2070.000000	0.911870
2069.000000	0.911834
2068.000000	0.911790
2067.000000	0.911735
2066.000000	0.911670
2065.000000	0.911607
2064.000000	0.911559
2063.000000	0.911527
2062.000000	0.911506
2061.000000	0.911483
2060.000000	0.911448
2059.000000	0.911398
2058.000000	0.911341
2057.000000	0.911294
2056.000000	0.911262
2055.000000	0.911238
2054.000000	0.911206
2053.000000	0.911163
2052.000000	0.911117
2051.000000	0.911083
2050.000000	0.911058
2049.000000	0.911032
2048.000000	0.910996
2047.000000	0.910950
2046.000000	0.910901
2045.000000	0.910853
2044.000000	0.910805
2043.000000	0.910750
2042.000000	0.910691
2041.000000	0.910637
2040.000000	0.910596
2039.000000	0.910569
2038.000000	0.910546
2037.000000	0.910518
2036.000000	0.910482
2035.000000	0.910439
2034.000000	0.910389
2033.000000	0.910344
2032.000000	0.910315
2031.000000	0.910302
2030.000000	0.910283
2029.000000	0.910237
2028.000000	0.910163
2027.000000	0.910090
2026.000000	0.910036
2025.000000	0.909996
2024.000000	0.909947
2023.000000	0.909882
2022.000000	0.909816
2021.000000	0.909762
2020.000000	0.909717
2019.000000	0.909670
2018.000000	0.909619
2017.000000	0.909574
2016.000000	0.909546
2015.000000	0.909530
2014.000000	0.909517
2013.000000	0.909493
2012.000000	0.909453
2011.000000	0.909403
2010.000000	0.909350
2009.000000	0.909296
2008.000000	0.909240
2007.000000	0.909185
2006.000000	0.909135
2005.000000	0.909095
2004.000000	0.909057
2003.000000	0.909013
2002.000000	0.908964
2001.000000	0.908913
2000.000000	0.908868
1999.000000	0.908836
1998.000000	0.908823
1997.000000	0.908824
1996.000000	0.908818
1995.000000	0.908786
1994.000000	0.908728
1993.000000	0.908663
1992.000000	0.908607
1991.000000	0.908561
1990.000000	0.908521
1989.000000	0.908488
1988.000000	0.908465
1987.000000	0.908450
1986.000000	0.908441
1985.000000	0.908438
1984.000000	0.908436
1983.000000	0.908431
1982.000000	0.908418
1981.000000	0.908392
1980.000000	0.908354
1979.000000	0.908311
1978.000000	0.908270
1977.000000	0.908234
1976.000000	0.908197
1975.000000	0.908160
1974.000000	0.908131
1973.000000	0.908115
1972.000000	0.908108
1971.000000	0.908090
1970.000000	0.908052
1969.000000	0.908001
1968.000000	0.907958
1967.000000	0.907946
1966.000000	0.907959
1965.000000	0.907970
1964.000000	0.907955
1963.000000	0.907924
1962.000000	0.907909
1961.000000	0.907921
1960.000000	0.907932
1959.000000	0.907910
1958.000000	0.907860
1957.000000	0.907812
1956.000000	0.907786
1955.000000	0.907773
1954.000000	0.907759
1953.000000	0.907742
1952.000000	0.907730
1951.000000	0.907726
1950.000000	0.907723
1949.000000	0.907715
1948.000000	0.907703
1947.000000	0.907694
1946.000000	0.907693
1945.000000	0.907686
1944.000000	0.907654
1943.000000	0.907605
1942.000000	0.907570
1941.000000	0.907576
1940.000000	0.907612
1939.000000	0.907644
1938.000000	0.907654
1937.000000	0.907648
1936.000000	0.907633
1935.000000	0.907617
1934.000000	0.907604
1933.000000	0.907602
1932.000000	0.907604
1931.000000	0.907604
1930.000000	0.907603
1929.000000	0.907611
1928.000000	0.907627
1927.000000	0.907636
1926.000000	0.907624
1925.000000	0.907586
1924.000000	0.907535
1923.000000	0.907496
1922.000000	0.907491
1921.000000	0.907513
1920.000000	0.907529
1919.000000	0.907513
1918.000000	0.907483
1917.000000	0.907481
1916.000000	0.907519
1915.000000	0.907571
1914.000000	0.907613
1913.000000	0.907638
1912.000000	0.907649
1911.000000	0.907643
1910.000000	0.907626
1909.000000	0.907618
1908.000000	0.907630
1907.000000	0.907656
1906.000000	0.907680
1905.000000	0.907696
1904.000000	0.907703
1903.000000	0.907704
1902.000000	0.907706
1901.000000	0.907722
1900.000000	0.907753
1899.000000	0.907783
1898.000000	0.907798
1897.000000	0.907794
1896.000000	0.907775
1895.000000	0.907749
1894.000000	0.907732
1893.000000	0.907731
1892.000000	0.907734
1891.000000	0.907715
1890.000000	0.907673
1889.000000	0.907637
1888.000000	0.907640
1887.000000	0.907685
1886.000000	0.907754
1885.000000	0.907824
1884.000000	0.907872
1883.000000	0.907881
1882.000000	0.907858
1881.000000	0.907829
1880.000000	0.907815
1879.000000	0.907817
1878.000000	0.907826
1877.000000	0.907838
1876.000000	0.907854
1875.000000	0.907866
1874.000000	0.907870
1873.000000	0.907858
1872.000000	0.907814
1871.000000	0.907726
1870.000000	0.907618
1869.000000	0.907546
1868.000000	0.907552
1867.000000	0.907622
1866.000000	0.907710
1865.000000	0.907780
1864.000000	0.907822
1863.000000	0.907837
1862.000000	0.907837
1861.000000	0.907837
1860.000000	0.907850
1859.000000	0.907871
1858.000000	0.907888
1857.000000	0.907904
1856.000000	0.907925
1855.000000	0.907948
1854.000000	0.907969
1853.000000	0.907985
1852.000000	0.907991
1851.000000	0.907977
1850.000000	0.907947
1849.000000	0.907922
1848.000000	0.907904
1847.000000	0.907856
1846.000000	0.907745
1845.000000	0.907606
1844.000000	0.907535
1843.000000	0.907600
1842.000000	0.907775
1841.000000	0.907967
1840.000000	0.908098
1839.000000	0.908157
1838.000000	0.908176
1837.000000	0.908188
1836.000000	0.908205
1835.000000	0.908223
1834.000000	0.908238
1833.000000	0.908236
1832.000000	0.908200
1831.000000	0.908134
1830.000000	0.908083
1829.000000	0.908095
1828.000000	0.908161
1827.000000	0.908222
1826.000000	0.908243
1825.000000	0.908251
1824.000000	0.908296
1823.000000	0.908379
1822.000000	0.908467
1821.000000	0.908535
1820.000000	0.908588
1819.000000	0.908632
1818.000000	0.908669
1817.000000	0.908706
1816.000000	0.908752
1815.000000	0.908801
1814.000000	0.908834
1813.000000	0.908840
1812.000000	0.908828
1811.000000	0.908815
1810.000000	0.908822
1809.000000	0.908862
1808.000000	0.908929
1807.000000	0.908995
1806.000000	0.909036
1805.000000	0.909047
1804.000000	0.909031
1803.000000	0.908993
1802.000000	0.908949
1801.000000	0.908928
1800.000000	0.908954
1799.000000	0.909021
1798.000000	0.909106
1797.000000	0.909188
1796.000000	0.909234
1795.000000	0.909200
1794.000000	0.909077
1793.000000	0.908935
1792.000000	0.908885
1791.000000	0.908987
1790.000000	0.909204
1789.000000	0.909440
1788.000000	0.909606
1787.000000	0.909666
1786.000000	0.909652
1785.000000	0.909637
1784.000000	0.909670
1783.000000	0.909730
1782.000000	0.909774
1781.000000	0.909791
1780.000000	0.909818
1779.000000	0.909880
1778.000000	0.909962
1777.000000	0.910029
1776.000000	0.910033
1775.000000	0.909926
1774.000000	0.909715
1773.000000	0.909507
1772.000000	0.909446
1771.000000	0.909576
1770.000000	0.909797
1769.000000	0.909981
1768.000000	0.910107
1767.000000	0.910237
1766.000000	0.910401
1765.000000	0.910545
1764.000000	0.910597
1763.000000	0.910560
1762.000000	0.910513
1761.000000	0.910539
1760.000000	0.910646
1759.000000	0.910768
1758.000000	0.910840
1757.000000	0.910873
1756.000000	0.910930
1755.000000	0.911022
1754.000000	0.911076
1753.000000	0.911017
1752.000000	0.910875
1751.000000	0.910770
1750.000000	0.910793
1749.000000	0.910930
1748.000000	0.911113
1747.000000	0.911289
1746.000000	0.911436
1745.000000	0.911542
1744.000000	0.911603
1743.000000	0.911620
1742.000000	0.911599
1741.000000	0.911547
1740.000000	0.911511
1739.000000	0.911549
1738.000000	0.911646
1737.000000	0.911660
1736.000000	0.911449
1735.000000	0.911068
1734.000000	0.910789
1733.000000	0.910856
1732.000000	0.911245
1731.000000	0.911721
1730.000000	0.912088
1729.000000	0.912318
1728.000000	0.912473
1727.000000	0.912582
1726.000000	0.912641
1725.000000	0.912659
1724.000000	0.912673
1723.000000	0.912707
1722.000000	0.912740
1721.000000	0.912705
1720.000000	0.912517
1719.000000	0.912168
1718.000000	0.911805
1717.000000	0.911649
1716.000000	0.911801
1715.000000	0.912152
1714.000000	0.912522
1713.000000	0.912819
1712.000000	0.913044
1711.000000	0.913202
1710.000000	0.913285
1709.000000	0.913306
1708.000000	0.913281
1707.000000	0.913203
1706.000000	0.913100
1705.000000	0.913051
1704.000000	0.913064
1703.000000	0.912986
1702.000000	0.912668
1701.000000	0.912224
1700.000000	0.911974
1699.000000	0.912058
1698.000000	0.912266
1697.000000	0.912330
1696.000000	0.912286
1695.000000	0.912408
1694.000000	0.912820
1693.000000	0.913341
1692.000000	0.913703
1691.000000	0.913828
1690.000000	0.913833
1689.000000	0.913828
1688.000000	0.913762
1687.000000	0.913488
1686.000000	0.912977
1685.000000	0.912458
1684.000000	0.912277
1683.000000	0.912579
1682.000000	0.913160
1681.000000	0.913683
1680.000000	0.913974
1679.000000	0.914070
1678.000000	0.914045
1677.000000	0.913916
1676.000000	0.913733
1675.000000	0.913629
1674.000000	0.913700
1673.000000	0.913866
1672.000000	0.913954
1671.000000	0.913892
1670.000000	0.913777
1669.000000	0.913762
1668.000000	0.913904
1667.000000	0.914135
1666.000000	0.914331
1665.000000	0.914397
1664.000000	0.914333
1663.000000	0.914236
1662.000000	0.914219
1661.000000	0.914316
1660.000000	0.914454
1659.000000	0.914549
1658.000000	0.914564
1657.000000	0.914453
1656.000000	0.914104
1655.000000	0.913441
1654.000000	0.912635
1653.000000	0.912115
1652.000000	0.912230
1651.000000	0.912893
1650.000000	0.913633
1649.000000	0.914022
1648.000000	0.913989
1647.000000	0.913785
1646.000000	0.913703
1645.000000	0.913858
1644.000000	0.914171
1643.000000	0.914479
1642.000000	0.914663
1641.000000	0.914710
1640.000000	0.914672
1639.000000	0.914560
1638.000000	0.914324
1637.000000	0.913968
1636.000000	0.913643
1635.000000	0.913558
1634.000000	0.913778
1633.000000	0.914162
1632.000000	0.914506
1631.000000	0.914697
1630.000000	0.914742
1629.000000	0.914703
1628.000000	0.914644
1627.000000	0.914598
1626.000000	0.914557
1625.000000	0.914493
1624.000000	0.914414
1623.000000	0.914383
1622.000000	0.914452
1621.000000	0.914577
1620.000000	0.914620
1619.000000	0.914462
1618.000000	0.914137
1617.000000	0.913854
1616.000000	0.913840
1615.000000	0.914146
1614.000000	0.914594
1613.000000	0.914946
1612.000000	0.915092
1611.000000	0.915086
1610.000000	0.915022
1609.000000	0.914948
1608.000000	0.914875
1607.000000	0.914820
1606.000000	0.914796
1605.000000	0.914789
1604.000000	0.914786
1603.000000	0.914794
1602.000000	0.914824
1601.000000	0.914868
1600.000000	0.914903
1599.000000	0.914915
1598.000000	0.914906
1597.000000	0.914885
1596.000000	0.914868
1595.000000	0.914875
1594.000000	0.914914
1593.000000	0.914966
1592.000000	0.915010
1591.000000	0.915041
1590.000000	0.915066
1589.000000	0.915090
1588.000000	0.915115
1587.000000	0.915144
1586.000000	0.915177
1585.000000	0.915201
1584.000000	0.915200
1583.000000	0.915174
1582.000000	0.915150
1581.000000	0.915152
1580.000000	0.915146
1579.000000	0.915031
1578.000000	0.914735
1577.000000	0.914344
1576.000000	0.914098
1575.000000	0.914194
1574.000000	0.914562
1573.000000	0.914921
1572.000000	0.915038
1571.000000	0.914929
1570.000000	0.914790
1569.000000	0.914787
1568.000000	0.914932
1567.000000	0.915126
1566.000000	0.915270
1565.000000	0.915332
1564.000000	0.915317
1563.000000	0.915187
1562.000000	0.914825
1561.000000	0.914170
1560.000000	0.913400
1559.000000	0.912903
1558.000000	0.912948
1557.000000	0.913424
1556.000000	0.913975
1555.000000	0.914360
1554.000000	0.914595
1553.000000	0.914791
1552.000000	0.914967
1551.000000	0.915083
1550.000000	0.915144
1549.000000	0.915189
1548.000000	0.915217
1547.000000	0.915177
1546.000000	0.915048
1545.000000	0.914861
1544.000000	0.914641
1543.000000	0.914364
1542.000000	0.913997
1541.000000	0.913591
1540.000000	0.913323
1539.000000	0.913395
1538.000000	0.913846
1537.000000	0.914460
1536.000000	0.914919
1535.000000	0.915068
1534.000000	0.915022
1533.000000	0.915004
1532.000000	0.915112
1531.000000	0.915275
1530.000000	0.915383
1529.000000	0.915391
1528.000000	0.915311
1527.000000	0.915196
1526.000000	0.915110
1525.000000	0.915066
1524.000000	0.914978
1523.000000	0.914758
1522.000000	0.914466
1521.000000	0.914307
1520.000000	0.914415
1519.000000	0.914698
1518.000000	0.914959
1517.000000	0.915113
1516.000000	0.915216
1515.000000	0.915319
1514.000000	0.915387
1513.000000	0.915380
1512.000000	0.915334
1511.000000	0.915291
1510.000000	0.915193
1509.000000	0.914918
1508.000000	0.914461
1507.000000	0.914040
1506.000000	0.913967
1505.000000	0.914378
1504.000000	0.915106
1503.000000	0.915831
1502.000000	0.916339
1501.000000	0.916616
1500.000000	0.916737
