PE IR       SUBTECH     SPECTRUM    ASCII       PEDS        4.00        
   -1
TE108B2_006.ASC
20/02/27
13:47:17.00
20/02/27
13:47:17.00
Administrator
Sample 006 By Administrator Date Thursday, February 27 2020
1500.000000
#HDR
-1
-1
#GR
cm-1
EGY
1.0
0.0
4000.000000
-1.000000
2501
8
105.604339
70.967678
#DATA
4000.000000	70.967678
3999.000000	71.001010
3998.000000	71.033722
3997.000000	71.065833
3996.000000	71.097824
3995.000000	71.130100
3994.000000	71.162623
3993.000000	71.195209
3992.000000	71.227873
3991.000000	71.260734
3990.000000	71.293806
3989.000000	71.326998
3988.000000	71.360115
3987.000000	71.392824
3986.000000	71.424910
3985.000000	71.456605
3984.000000	71.488406
3983.000000	71.520541
3982.000000	71.552848
3981.000000	71.585125
3980.000000	71.617180
3979.000000	71.648573
3978.000000	71.678811
3977.000000	71.708029
3976.000000	71.737138
3975.000000	71.767092
3974.000000	71.798183
3973.000000	71.830080
3972.000000	71.862254
3971.000000	71.894317
3970.000000	71.926282
3969.000000	71.958539
3968.000000	71.991265
3967.000000	72.023800
3966.000000	72.055014
3965.000000	72.084438
3964.000000	72.112779
3963.000000	72.141263
3962.000000	72.170776
3961.000000	72.201612
3960.000000	72.233573
3959.000000	72.266072
3958.000000	72.298448
3957.000000	72.330326
3956.000000	72.361480
3955.000000	72.391305
3954.000000	72.418810
3953.000000	72.443403
3952.000000	72.465681
3951.000000	72.487564
3950.000000	72.511738
3949.000000	72.540299
3948.000000	72.572994
3947.000000	72.606716
3946.000000	72.637690
3945.000000	72.664992
3944.000000	72.691751
3943.000000	72.722660
3942.000000	72.760230
3941.000000	72.803254
3940.000000	72.848008
3939.000000	72.890295
3938.000000	72.926718
3937.000000	72.955083
3936.000000	72.974859
3935.000000	72.988130
3934.000000	73.000226
3933.000000	73.018450
3932.000000	73.048349
3931.000000	73.089999
3930.000000	73.137569
3929.000000	73.182924
3928.000000	73.220591
3927.000000	73.250501
3926.000000	73.277134
3925.000000	73.305736
3924.000000	73.338159
3923.000000	73.371223
3922.000000	73.399234
3921.000000	73.418913
3920.000000	73.432892
3919.000000	73.449175
3918.000000	73.476942
3917.000000	73.521423
3916.000000	73.580628
3915.000000	73.646345
3914.000000	73.708874
3913.000000	73.762251
3912.000000	73.805684
3911.000000	73.840358
3910.000000	73.864938
3909.000000	73.874161
3908.000000	73.862229
3907.000000	73.828970
3906.000000	73.783562
3905.000000	73.742009
3904.000000	73.719479
3903.000000	73.723875
3902.000000	73.755841
3901.000000	73.812989
3900.000000	73.892407
3899.000000	73.988747
3898.000000	74.090980
3897.000000	74.182419
3896.000000	74.245499
3895.000000	74.270570
3894.000000	74.264056
3893.000000	74.248452
3892.000000	74.249412
3891.000000	74.276756
3890.000000	74.316347
3889.000000	74.342891
3888.000000	74.344341
3887.000000	74.334471
3886.000000	74.340841
3885.000000	74.379289
3884.000000	74.440756
3883.000000	74.502909
3882.000000	74.553332
3881.000000	74.598743
3880.000000	74.651931
3879.000000	74.713494
3878.000000	74.769711
3877.000000	74.806554
3876.000000	74.820563
3875.000000	74.815011
3874.000000	74.791050
3873.000000	74.749546
3872.000000	74.702067
3871.000000	74.673449
3870.000000	74.686894
3869.000000	74.743812
3868.000000	74.820985
3867.000000	74.889649
3866.000000	74.938699
3865.000000	74.979321
3864.000000	75.029723
3863.000000	75.097887
3862.000000	75.177984
3861.000000	75.255538
3860.000000	75.308668
3859.000000	75.305256
3858.000000	75.211770
3857.000000	75.019800
3856.000000	74.771695
3855.000000	74.556320
3854.000000	74.467733
3853.000000	74.552772
3852.000000	74.785624
3851.000000	75.087094
3850.000000	75.371216
3849.000000	75.584229
3848.000000	75.713625
3847.000000	75.774428
3846.000000	75.791010
3845.000000	75.785706
3844.000000	75.771421
3843.000000	75.746971
3842.000000	75.700747
3841.000000	75.626383
3840.000000	75.539390
3839.000000	75.476948
3838.000000	75.476911
3837.000000	75.551510
3836.000000	75.678778
3835.000000	75.818530
3834.000000	75.939346
3833.000000	76.033524
3832.000000	76.110757
3831.000000	76.180931
3830.000000	76.244813
3829.000000	76.298574
3828.000000	76.341171
3827.000000	76.372263
3826.000000	76.384592
3825.000000	76.365843
3824.000000	76.314472
3823.000000	76.252255
3822.000000	76.213837
3821.000000	76.217149
3820.000000	76.245830
3819.000000	76.266459
3818.000000	76.266541
3817.000000	76.272913
3816.000000	76.328550
3815.000000	76.451722
3814.000000	76.617382
3813.000000	76.775001
3812.000000	76.879757
3811.000000	76.911917
3810.000000	76.880513
3809.000000	76.818983
3808.000000	76.771030
3807.000000	76.763931
3806.000000	76.786883
3805.000000	76.800254
3804.000000	76.775727
3803.000000	76.729221
3802.000000	76.711286
3801.000000	76.762547
3800.000000	76.879023
3799.000000	77.019831
3798.000000	77.144050
3797.000000	77.238699
3796.000000	77.315006
3795.000000	77.386702
3794.000000	77.456011
3793.000000	77.516995
3792.000000	77.565475
3791.000000	77.602751
3790.000000	77.632304
3789.000000	77.656418
3788.000000	77.676508
3787.000000	77.694959
3786.000000	77.714951
3785.000000	77.737790
3784.000000	77.760574
3783.000000	77.777706
3782.000000	77.786678
3781.000000	77.793269
3780.000000	77.809604
3779.000000	77.845192
3778.000000	77.899148
3777.000000	77.960797
3776.000000	78.016375
3775.000000	78.054237
3774.000000	78.067285
3773.000000	78.055941
3772.000000	78.031446
3771.000000	78.012850
3770.000000	78.016000
3769.000000	78.043755
3768.000000	78.087627
3767.000000	78.137992
3766.000000	78.190427
3765.000000	78.242454
3764.000000	78.287563
3763.000000	78.316439
3762.000000	78.325329
3761.000000	78.322516
3760.000000	78.324767
3759.000000	78.344393
3758.000000	78.375831
3757.000000	78.393005
3756.000000	78.362479
3755.000000	78.265065
3754.000000	78.112709
3753.000000	77.949329
3752.000000	77.832899
3751.000000	77.805956
3750.000000	77.866523
3749.000000	77.961317
3748.000000	78.017199
3747.000000	77.997733
3746.000000	77.940054
3745.000000	77.931908
3744.000000	78.041954
3743.000000	78.262299
3742.000000	78.513694
3741.000000	78.703677
3740.000000	78.783014
3739.000000	78.762996
3738.000000	78.693545
3737.000000	78.628567
3736.000000	78.602038
3735.000000	78.622230
3734.000000	78.682251
3733.000000	78.773609
3732.000000	78.889071
3731.000000	79.015170
3730.000000	79.129121
3729.000000	79.210262
3728.000000	79.255176
3727.000000	79.278817
3726.000000	79.300385
3725.000000	79.329910
3724.000000	79.367684
3723.000000	79.411457
3722.000000	79.460440
3721.000000	79.514071
3720.000000	79.570325
3719.000000	79.625125
3718.000000	79.670279
3717.000000	79.691658
3716.000000	79.674004
3715.000000	79.613662
3714.000000	79.529328
3713.000000	79.458127
3712.000000	79.436580
3711.000000	79.480430
3710.000000	79.578553
3709.000000	79.703140
3708.000000	79.824965
3707.000000	79.922629
3706.000000	79.984774
3705.000000	80.010910
3704.000000	80.012706
3703.000000	80.011020
3702.000000	80.025905
3701.000000	80.065258
3700.000000	80.121829
3699.000000	80.180910
3698.000000	80.230429
3697.000000	80.264889
3696.000000	80.282026
3695.000000	80.277947
3694.000000	80.245311
3693.000000	80.176664
3692.000000	80.073405
3691.000000	79.956770
3690.000000	79.869750
3689.000000	79.859019
3688.000000	79.945490
3687.000000	80.106577
3686.000000	80.288572
3685.000000	80.439564
3684.000000	80.534848
3683.000000	80.578191
3682.000000	80.583722
3681.000000	80.556556
3680.000000	80.488090
3679.000000	80.370964
3678.000000	80.222775
3677.000000	80.092926
3676.000000	80.034654
3675.000000	80.061839
3674.000000	80.134150
3673.000000	80.193175
3672.000000	80.216764
3671.000000	80.235885
3670.000000	80.298886
3669.000000	80.423981
3668.000000	80.585656
3667.000000	80.739996
3666.000000	80.856458
3665.000000	80.929531
3664.000000	80.970567
3663.000000	80.993636
3662.000000	81.005493
3661.000000	81.002269
3660.000000	80.975483
3659.000000	80.925157
3658.000000	80.869027
3657.000000	80.835062
3656.000000	80.838317
3655.000000	80.862104
3654.000000	80.864457
3653.000000	80.809135
3652.000000	80.697116
3651.000000	80.571522
3650.000000	80.492052
3649.000000	80.499811
3648.000000	80.596873
3647.000000	80.750664
3646.000000	80.914885
3645.000000	81.052589
3644.000000	81.148160
3643.000000	81.205580
3642.000000	81.237933
3641.000000	81.257402
3640.000000	81.270943
3639.000000	81.280487
3638.000000	81.284980
3637.000000	81.283310
3636.000000	81.275978
3635.000000	81.261387
3634.000000	81.228585
3633.000000	81.158547
3632.000000	81.042199
3631.000000	80.902706
3630.000000	80.795535
3629.000000	80.775759
3628.000000	80.858726
3627.000000	81.008764
3626.000000	81.165014
3625.000000	81.277211
3624.000000	81.323919
3623.000000	81.309074
3622.000000	81.252936
3621.000000	81.185781
3620.000000	81.139773
3619.000000	81.134519
3618.000000	81.166123
3617.000000	81.211004
3616.000000	81.243784
3615.000000	81.253128
3614.000000	81.243323
3613.000000	81.223824
3612.000000	81.200914
3611.000000	81.179417
3610.000000	81.168516
3609.000000	81.180512
3608.000000	81.221519
3607.000000	81.283646
3606.000000	81.348090
3605.000000	81.396414
3604.000000	81.420393
3603.000000	81.423488
3602.000000	81.415571
3601.000000	81.405919
3600.000000	81.398658
3599.000000	81.392322
3598.000000	81.383658
3597.000000	81.372619
3596.000000	81.363991
3595.000000	81.363415
3594.000000	81.370485
3593.000000	81.375410
3592.000000	81.363503
3591.000000	81.326162
3590.000000	81.270323
3589.000000	81.217950
3588.000000	81.193649
3587.000000	81.209474
3586.000000	81.257984
3585.000000	81.318810
3584.000000	81.371574
3583.000000	81.405636
3582.000000	81.421286
3581.000000	81.425000
3580.000000	81.423731
3579.000000	81.421703
3578.000000	81.420186
3577.000000	81.419059
3576.000000	81.418226
3575.000000	81.417635
3574.000000	81.415698
3573.000000	81.407428
3572.000000	81.384925
3571.000000	81.342119
3570.000000	81.282017
3569.000000	81.219883
3568.000000	81.177426
3567.000000	81.169905
3566.000000	81.196623
3565.000000	81.242248
3564.000000	81.287533
3563.000000	81.320135
3562.000000	81.338200
3561.000000	81.346693
3560.000000	81.351433
3559.000000	81.355298
3558.000000	81.357766
3557.000000	81.356553
3556.000000	81.349770
3555.000000	81.337800
3554.000000	81.323919
3553.000000	81.312683
3552.000000	81.306352
3551.000000	81.302303
3550.000000	81.294518
3549.000000	81.278857
3548.000000	81.257302
3547.000000	81.237212
3546.000000	81.226203
3545.000000	81.227387
3544.000000	81.238184
3543.000000	81.252644
3542.000000	81.264602
3541.000000	81.269881
3540.000000	81.267097
3539.000000	81.257511
3538.000000	81.244402
3537.000000	81.231736
3536.000000	81.222194
3535.000000	81.215496
3534.000000	81.208545
3533.000000	81.197585
3532.000000	81.180711
3531.000000	81.158767
3530.000000	81.134351
3529.000000	81.110142
3528.000000	81.087575
3527.000000	81.066532
3526.000000	81.046198
3525.000000	81.026537
3524.000000	81.008867
3523.000000	80.994682
3522.000000	80.983871
3521.000000	80.974463
3520.000000	80.964167
3519.000000	80.951921
3518.000000	80.937921
3517.000000	80.922631
3516.000000	80.906079
3515.000000	80.887846
3514.000000	80.867378
3513.000000	80.844411
3512.000000	80.819570
3511.000000	80.794570
3510.000000	80.771330
3509.000000	80.750257
3508.000000	80.729284
3507.000000	80.704994
3506.000000	80.675382
3505.000000	80.642030
3504.000000	80.609514
3503.000000	80.582305
3502.000000	80.561554
3501.000000	80.544429
3500.000000	80.526379
3499.000000	80.504310
3498.000000	80.478240
3497.000000	80.450450
3496.000000	80.423356
3495.000000	80.397873
3494.000000	80.373327
3493.000000	80.348425
3492.000000	80.322263
3491.000000	80.294815
3490.000000	80.267018
3489.000000	80.240478
3488.000000	80.216636
3487.000000	80.195713
3486.000000	80.176475
3485.000000	80.157330
3484.000000	80.137930
3483.000000	80.119700
3482.000000	80.104832
3481.000000	80.094695
3480.000000	80.088935
3479.000000	80.085826
3478.000000	80.083465
3477.000000	80.081007
3476.000000	80.079060
3475.000000	80.078954
3474.000000	80.081519
3473.000000	80.086397
3472.000000	80.092394
3471.000000	80.098463
3470.000000	80.104510
3469.000000	80.111502
3468.000000	80.120803
3467.000000	80.133202
3466.000000	80.148378
3465.000000	80.165239
3464.000000	80.182789
3463.000000	80.200656
3462.000000	80.218942
3461.000000	80.237746
3460.000000	80.256873
3459.000000	80.275854
3458.000000	80.294130
3457.000000	80.311289
3456.000000	80.327228
3455.000000	80.342101
3454.000000	80.356044
3453.000000	80.368832
3452.000000	80.379706
3451.000000	80.387688
3450.000000	80.392552
3449.000000	80.395915
3448.000000	80.401192
3447.000000	80.411763
3446.000000	80.428792
3445.000000	80.450854
3444.000000	80.475803
3443.000000	80.502833
3442.000000	80.532646
3441.000000	80.566173
3440.000000	80.603652
3439.000000	80.644867
3438.000000	80.689771
3437.000000	80.738657
3436.000000	80.791988
3435.000000	80.850135
3434.000000	80.913029
3433.000000	80.979856
3432.000000	81.049198
3431.000000	81.119648
3430.000000	81.190309
3429.000000	81.260686
3428.000000	81.330268
3427.000000	81.398312
3426.000000	81.463934
3425.000000	81.526370
3424.000000	81.585363
3423.000000	81.641547
3422.000000	81.696373
3421.000000	81.751331
3420.000000	81.806939
3419.000000	81.862404
3418.000000	81.916177
3417.000000	81.966864
3416.000000	82.013788
3415.000000	82.057036
3414.000000	82.097190
3413.000000	82.134997
3412.000000	82.171031
3411.000000	82.205475
3410.000000	82.238184
3409.000000	82.269047
3408.000000	82.298327
3407.000000	82.326600
3406.000000	82.354336
3405.000000	82.381590
3404.000000	82.408222
3403.000000	82.434448
3402.000000	82.461166
3401.000000	82.489762
3400.000000	82.521533
3399.000000	82.557039
3398.000000	82.595650
3397.000000	82.635590
3396.000000	82.674649
3395.000000	82.711339
3394.000000	82.745776
3393.000000	82.779609
3392.000000	82.814888
3391.000000	82.852579
3390.000000	82.891815
3389.000000	82.930457
3388.000000	82.966565
3387.000000	82.999530
3386.000000	83.030060
3385.000000	83.059362
3384.000000	83.088375
3383.000000	83.117495
3382.000000	83.146573
3381.000000	83.175093
3380.000000	83.202530
3379.000000	83.228739
3378.000000	83.254048
3377.000000	83.278992
3376.000000	83.303986
3375.000000	83.329031
3374.000000	83.353520
3373.000000	83.376405
3372.000000	83.396986
3371.000000	83.415746
3370.000000	83.434286
3369.000000	83.454247
3368.000000	83.476311
3367.000000	83.500187
3366.000000	83.525223
3365.000000	83.550746
3364.000000	83.576005
3363.000000	83.600264
3362.000000	83.623207
3361.000000	83.645153
3360.000000	83.666713
3359.000000	83.688254
3358.000000	83.709742
3357.000000	83.731064
3356.000000	83.752317
3355.000000	83.773675
3354.000000	83.795023
3353.000000	83.815960
3352.000000	83.836318
3351.000000	83.856586
3350.000000	83.877600
3349.000000	83.899781
3348.000000	83.922728
3347.000000	83.945567
3346.000000	83.967595
3345.000000	83.988656
3344.000000	84.009086
3343.000000	84.029368
3342.000000	84.049702
3341.000000	84.069856
3340.000000	84.089496
3339.000000	84.108702
3338.000000	84.128052
3337.000000	84.148169
3336.000000	84.169277
3335.000000	84.191131
3334.000000	84.213192
3333.000000	84.234804
3332.000000	84.255421
3331.000000	84.274861
3330.000000	84.293330
3329.000000	84.311215
3328.000000	84.328928
3327.000000	84.346917
3326.000000	84.365573
3325.000000	84.384977
3324.000000	84.404842
3323.000000	84.424786
3322.000000	84.444601
3321.000000	84.464226
3320.000000	84.483608
3319.000000	84.502658
3318.000000	84.521223
3317.000000	84.539068
3316.000000	84.556081
3315.000000	84.572564
3314.000000	84.589119
3313.000000	84.606041
3312.000000	84.622977
3311.000000	84.639305
3310.000000	84.654738
3309.000000	84.669492
3308.000000	84.684119
3307.000000	84.699457
3306.000000	84.716548
3305.000000	84.736135
3304.000000	84.758010
3303.000000	84.780943
3302.000000	84.803372
3301.000000	84.824261
3300.000000	84.843488
3299.000000	84.861637
3298.000000	84.879425
3297.000000	84.897147
3296.000000	84.914563
3295.000000	84.931343
3294.000000	84.947629
3293.000000	84.964157
3292.000000	84.981842
3291.000000	85.001197
3290.000000	85.022064
3289.000000	85.043765
3288.000000	85.065510
3287.000000	85.086765
3286.000000	85.107341
3285.000000	85.127306
3284.000000	85.146889
3283.000000	85.166383
3282.000000	85.185964
3281.000000	85.205543
3280.000000	85.224844
3279.000000	85.243660
3278.000000	85.261967
3277.000000	85.279904
3276.000000	85.297744
3275.000000	85.315867
3274.000000	85.334588
3273.000000	85.354029
3272.000000	85.374260
3271.000000	85.395489
3270.000000	85.417853
3269.000000	85.441033
3268.000000	85.464335
3267.000000	85.487264
3266.000000	85.509829
3265.000000	85.532250
3264.000000	85.554603
3263.000000	85.576848
3262.000000	85.598980
3261.000000	85.620974
3260.000000	85.642709
3259.000000	85.664126
3258.000000	85.685415
3257.000000	85.706993
3256.000000	85.729370
3255.000000	85.752966
3254.000000	85.777844
3253.000000	85.803512
3252.000000	85.829155
3251.000000	85.854115
3250.000000	85.878055
3249.000000	85.900818
3248.000000	85.922568
3247.000000	85.944170
3246.000000	85.966975
3245.000000	85.991812
3244.000000	86.018292
3243.000000	86.045312
3242.000000	86.072071
3241.000000	86.098424
3240.000000	86.124465
3239.000000	86.150140
3238.000000	86.175227
3237.000000	86.199473
3236.000000	86.222786
3235.000000	86.245522
3234.000000	86.268567
3233.000000	86.292894
3232.000000	86.318866
3231.000000	86.345952
3230.000000	86.373123
3229.000000	86.399587
3228.000000	86.425273
3227.000000	86.450697
3226.000000	86.476287
3225.000000	86.501826
3224.000000	86.526633
3223.000000	86.550307
3222.000000	86.573181
3221.000000	86.596083
3220.000000	86.619763
3219.000000	86.644479
3218.000000	86.669843
3217.000000	86.695077
3216.000000	86.719672
3215.000000	86.743903
3214.000000	86.768498
3213.000000	86.793824
3212.000000	86.819692
3211.000000	86.846006
3210.000000	86.873173
3209.000000	86.901706
3208.000000	86.931734
3207.000000	86.963149
3206.000000	86.995907
3205.000000	87.029876
3204.000000	87.064598
3203.000000	87.099504
3202.000000	87.134284
3201.000000	87.168911
3200.000000	87.203533
3199.000000	87.238539
3198.000000	87.274480
3197.000000	87.311563
3196.000000	87.349325
3195.000000	87.387030
3194.000000	87.424278
3193.000000	87.461081
3192.000000	87.497566
3191.000000	87.533861
3190.000000	87.570134
3189.000000	87.606423
3188.000000	87.642527
3187.000000	87.678294
3186.000000	87.713947
3185.000000	87.749861
3184.000000	87.786078
3183.000000	87.822231
3182.000000	87.857912
3181.000000	87.892990
3180.000000	87.927689
3179.000000	87.962543
3178.000000	87.998157
3177.000000	88.034773
3176.000000	88.072094
3175.000000	88.109656
3174.000000	88.147229
3173.000000	88.184735
3172.000000	88.221987
3171.000000	88.258827
3170.000000	88.295443
3169.000000	88.332291
3168.000000	88.369689
3167.000000	88.407646
3166.000000	88.445986
3165.000000	88.484474
3164.000000	88.522909
3163.000000	88.561322
3162.000000	88.600013
3161.000000	88.639221
3160.000000	88.678811
3159.000000	88.718449
3158.000000	88.757965
3157.000000	88.797327
3156.000000	88.836341
3155.000000	88.874699
3154.000000	88.912448
3153.000000	88.950231
3152.000000	88.988949
3151.000000	89.029141
3150.000000	89.070578
3149.000000	89.112346
3148.000000	89.153371
3147.000000	89.193046
3146.000000	89.231466
3145.000000	89.269125
3144.000000	89.306479
3143.000000	89.343739
3142.000000	89.380837
3141.000000	89.417482
3140.000000	89.453420
3139.000000	89.488776
3138.000000	89.523994
3137.000000	89.559312
3136.000000	89.594476
3135.000000	89.629149
3134.000000	89.663447
3133.000000	89.697820
3132.000000	89.732465
3131.000000	89.767075
3130.000000	89.801184
3129.000000	89.834603
3128.000000	89.867470
3127.000000	89.899954
3126.000000	89.931912
3125.000000	89.962848
3124.000000	89.992278
3123.000000	90.020215
3122.000000	90.047239
3121.000000	90.074049
3120.000000	90.101004
3119.000000	90.128090
3118.000000	90.155235
3117.000000	90.182639
3116.000000	90.210803
3115.000000	90.240163
3114.000000	90.270485
3113.000000	90.300649
3112.000000	90.329325
3111.000000	90.356025
3110.000000	90.381472
3109.000000	90.406966
3108.000000	90.433526
3107.000000	90.461515
3106.000000	90.490705
3105.000000	90.520522
3104.000000	90.550480
3103.000000	90.580626
3102.000000	90.611494
3101.000000	90.643504
3100.000000	90.676477
3099.000000	90.709769
3098.000000	90.742807
3097.000000	90.775468
3096.000000	90.808051
3095.000000	90.840869
3094.000000	90.873761
3093.000000	90.906069
3092.000000	90.937268
3091.000000	90.967524
3090.000000	90.997389
3089.000000	91.027034
3088.000000	91.056103
3087.000000	91.084273
3086.000000	91.111553
3085.000000	91.137956
3084.000000	91.163249
3083.000000	91.187145
3082.000000	91.209496
3081.000000	91.230272
3080.000000	91.249701
3079.000000	91.268501
3078.000000	91.287525
3077.000000	91.306874
3076.000000	91.325588
3075.000000	91.342359
3074.000000	91.356357
3073.000000	91.367322
3072.000000	91.375310
3071.000000	91.380740
3070.000000	91.384532
3069.000000	91.388004
3068.000000	91.392712
3067.000000	91.400289
3066.000000	91.411982
3065.000000	91.428024
3064.000000	91.447651
3063.000000	91.469899
3062.000000	91.494225
3061.000000	91.520329
3060.000000	91.547787
3059.000000	91.576203
3058.000000	91.605553
3057.000000	91.636078
3056.000000	91.667839
3055.000000	91.700356
3054.000000	91.732539
3053.000000	91.763049
3052.000000	91.791102
3051.000000	91.817073
3050.000000	91.842051
3049.000000	91.866663
3048.000000	91.890521
3047.000000	91.912768
3046.000000	91.932784
3045.000000	91.950304
3044.000000	91.965356
3043.000000	91.978413
3042.000000	91.990317
3041.000000	92.001700
3040.000000	92.012564
3039.000000	92.022463
3038.000000	92.030879
3037.000000	92.037337
3036.000000	92.041470
3035.000000	92.043125
3034.000000	92.042170
3033.000000	92.038069
3032.000000	92.029794
3031.000000	92.016085
3030.000000	91.995438
3029.000000	91.965970
3028.000000	91.926046
3027.000000	91.875521
3026.000000	91.816216
3025.000000	91.751220
3024.000000	91.684177
3023.000000	91.619385
3022.000000	91.561966
3021.000000	91.517430
3020.000000	91.491176
3019.000000	91.488276
3018.000000	91.512837
3017.000000	91.566692
3016.000000	91.648622
3015.000000	91.754851
3014.000000	91.879915
3013.000000	92.017009
3012.000000	92.158373
3011.000000	92.296501
3010.000000	92.425432
3009.000000	92.541092
3008.000000	92.641119
3007.000000	92.724883
3006.000000	92.793484
3005.000000	92.849169
3004.000000	92.894470
3003.000000	92.931709
3002.000000	92.962744
3001.000000	92.988735
3000.000000	93.010281
2999.000000	93.028085
2998.000000	93.043309
2997.000000	93.057068
2996.000000	93.069666
2995.000000	93.080490
2994.000000	93.088500
2993.000000	93.092830
2992.000000	93.093354
2991.000000	93.090921
2990.000000	93.086777
2989.000000	93.081390
2988.000000	93.073811
2987.000000	93.062037
2986.000000	93.043787
2985.000000	93.017244
2984.000000	92.982088
2983.000000	92.940303
2982.000000	92.895367
2981.000000	92.849746
2980.000000	92.802871
2979.000000	92.751424
2978.000000	92.691142
2977.000000	92.618166
2976.000000	92.529443
2975.000000	92.422817
2974.000000	92.297165
2973.000000	92.152481
2972.000000	91.990035
2971.000000	91.812617
2970.000000	91.624466
2969.000000	91.430867
2968.000000	91.237995
2967.000000	91.052970
2966.000000	90.883372
2965.000000	90.735911
2964.000000	90.615375
2963.000000	90.524427
2962.000000	90.463618
2961.000000	90.431201
2960.000000	90.423408
2959.000000	90.435500
2958.000000	90.462639
2957.000000	90.500017
2956.000000	90.542891
2955.000000	90.587176
2954.000000	90.629753
2953.000000	90.667807
2952.000000	90.697886
2951.000000	90.715599
2950.000000	90.715901
2949.000000	90.693629
2948.000000	90.644367
2947.000000	90.565429
2946.000000	90.455939
2945.000000	90.315924
2944.000000	90.145772
2943.000000	89.946882
2942.000000	89.722587
2941.000000	89.478295
2940.000000	89.221120
2939.000000	88.959513
2938.000000	88.702257
2937.000000	88.456430
2936.000000	88.225474
2935.000000	88.008660
2934.000000	87.802119
2933.000000	87.600809
2932.000000	87.400985
2931.000000	87.202479
2930.000000	87.009700
2929.000000	86.831301
2928.000000	86.679386
2927.000000	86.568660
2926.000000	86.514439
2925.000000	86.529673
2924.000000	86.622374
2923.000000	86.794638
2922.000000	87.042464
2921.000000	87.355994
2920.000000	87.720940
2919.000000	88.121582
2918.000000	88.543307
2917.000000	88.973367
2916.000000	89.400359
2915.000000	89.814228
2914.000000	90.206595
2913.000000	90.570865
2912.000000	90.902323
2911.000000	91.198742
2910.000000	91.460889
2909.000000	91.692080
2908.000000	91.897068
2907.000000	92.081022
2906.000000	92.248549
2905.000000	92.402940
2904.000000	92.546368
2903.000000	92.681006
2902.000000	92.809581
2901.000000	92.934529
2900.000000	93.056895
2899.000000	93.176441
2898.000000	93.292522
2897.000000	93.404650
2896.000000	93.512703
2895.000000	93.617103
2894.000000	93.718664
2893.000000	93.817892
2892.000000	93.914510
2891.000000	94.007725
2890.000000	94.096588
2889.000000	94.179889
2888.000000	94.256145
2887.000000	94.324064
2886.000000	94.382823
2885.000000	94.431842
2884.000000	94.470729
2883.000000	94.499579
2882.000000	94.518692
2881.000000	94.527596
2880.000000	94.524828
2879.000000	94.508980
2878.000000	94.479401
2877.000000	94.435428
2876.000000	94.375603
2875.000000	94.298304
2874.000000	94.202656
2873.000000	94.087828
2872.000000	93.951414
2871.000000	93.789107
2870.000000	93.596375
2869.000000	93.370875
2868.000000	93.114525
2867.000000	92.834820
2866.000000	92.544951
2865.000000	92.262587
2864.000000	92.007828
2863.000000	91.800464
2862.000000	91.656624
2861.000000	91.584990
2860.000000	91.584903
2859.000000	91.647339
2858.000000	91.758173
2857.000000	91.902106
2856.000000	92.066303
2855.000000	92.243108
2854.000000	92.430727
2853.000000	92.631857
2852.000000	92.851573
2851.000000	93.095282
2850.000000	93.366115
2849.000000	93.661985
2848.000000	93.974395
2847.000000	94.290315
2846.000000	94.596093
2845.000000	94.880830
2844.000000	95.138360
2843.000000	95.367520
2842.000000	95.570677
2841.000000	95.751231
2840.000000	95.912102
2839.000000	96.055846
2838.000000	96.185044
2837.000000	96.301810
2836.000000	96.407415
2835.000000	96.502992
2834.000000	96.590214
2833.000000	96.670811
2832.000000	96.745805
2831.000000	96.815809
2830.000000	96.881721
2829.000000	96.944530
2828.000000	97.004633
2827.000000	97.061890
2826.000000	97.116280
2825.000000	97.168119
2824.000000	97.217788
2823.000000	97.265632
2822.000000	97.311984
2821.000000	97.356969
2820.000000	97.400375
2819.000000	97.441899
2818.000000	97.481365
2817.000000	97.518661
2816.000000	97.553778
2815.000000	97.587065
2814.000000	97.619016
2813.000000	97.649680
2812.000000	97.678717
2811.000000	97.706203
2810.000000	97.732819
2809.000000	97.758992
2808.000000	97.784446
2807.000000	97.808948
2806.000000	97.832911
2805.000000	97.856792
2804.000000	97.880409
2803.000000	97.903347
2802.000000	97.925602
2801.000000	97.947347
2800.000000	97.968496
2799.000000	97.989043
2798.000000	98.009462
2797.000000	98.030242
2796.000000	98.051317
2795.000000	98.072442
2794.000000	98.093909
2793.000000	98.116493
2792.000000	98.140979
2791.000000	98.168082
2790.000000	98.198463
2789.000000	98.232329
2788.000000	98.269208
2787.000000	98.308401
2786.000000	98.349365
2785.000000	98.391385
2784.000000	98.433322
2783.000000	98.474134
2782.000000	98.513400
2781.000000	98.551047
2780.000000	98.586966
2779.000000	98.621223
2778.000000	98.654202
2777.000000	98.686118
2776.000000	98.716745
2775.000000	98.745972
2774.000000	98.774259
2773.000000	98.802136
2772.000000	98.829620
2771.000000	98.856480
2770.000000	98.882711
2769.000000	98.908371
2768.000000	98.933333
2767.000000	98.957592
2766.000000	98.981469
2765.000000	99.005208
2764.000000	99.028714
2763.000000	99.051989
2762.000000	99.075351
2761.000000	99.098898
2760.000000	99.122205
2759.000000	99.144938
2758.000000	99.167318
2757.000000	99.189601
2756.000000	99.211572
2755.000000	99.232959
2754.000000	99.253873
2753.000000	99.274421
2752.000000	99.294340
2751.000000	99.313483
2750.000000	99.332251
2749.000000	99.351067
2748.000000	99.369864
2747.000000	99.388459
2746.000000	99.407002
2745.000000	99.425567
2744.000000	99.443787
2743.000000	99.461400
2742.000000	99.478760
2741.000000	99.496330
2740.000000	99.514045
2739.000000	99.531659
2738.000000	99.549281
2737.000000	99.567072
2736.000000	99.584758
2735.000000	99.601988
2734.000000	99.618878
2733.000000	99.635760
2732.000000	99.652726
2731.000000	99.669779
2730.000000	99.687047
2729.000000	99.704414
2728.000000	99.721353
2727.000000	99.737569
2726.000000	99.753473
2725.000000	99.769618
2724.000000	99.786061
2723.000000	99.802653
2722.000000	99.819454
2721.000000	99.836388
2720.000000	99.852930
2719.000000	99.868670
2718.000000	99.883809
2717.000000	99.898680
2716.000000	99.913209
2715.000000	99.927318
2714.000000	99.941339
2713.000000	99.955426
2712.000000	99.968993
2711.000000	99.981366
2710.000000	99.992754
2709.000000	100.004037
2708.000000	100.015867
2707.000000	100.028458
2706.000000	100.042003
2705.000000	100.056756
2704.000000	100.072901
2703.000000	100.090677
2702.000000	100.110397
2701.000000	100.131984
2700.000000	100.154784
2699.000000	100.178149
2698.000000	100.201893
2697.000000	100.225895
2696.000000	100.249709
2695.000000	100.272947
2694.000000	100.295644
2693.000000	100.317906
2692.000000	100.339602
2691.000000	100.360734
2690.000000	100.381650
2689.000000	100.402513
2688.000000	100.423035
2687.000000	100.443082
2686.000000	100.463024
2685.000000	100.483040
2684.000000	100.502655
2683.000000	100.521468
2682.000000	100.539856
2681.000000	100.558417
2680.000000	100.577142
2679.000000	100.595631
2678.000000	100.613686
2677.000000	100.631161
2676.000000	100.647675
2675.000000	100.663073
2674.000000	100.677885
2673.000000	100.692817
2672.000000	100.708023
2671.000000	100.723247
2670.000000	100.738337
2669.000000	100.753257
2668.000000	100.767988
2667.000000	100.782783
2666.000000	100.798088
2665.000000	100.813841
2664.000000	100.829266
2663.000000	100.843785
2662.000000	100.857738
2661.000000	100.871848
2660.000000	100.886443
2659.000000	100.901568
2658.000000	100.917352
2657.000000	100.933815
2656.000000	100.950762
2655.000000	100.968251
2654.000000	100.986705
2653.000000	101.006181
2652.000000	101.026028
2651.000000	101.045690
2650.000000	101.065346
2649.000000	101.085356
2648.000000	101.105608
2647.000000	101.125798
2646.000000	101.145844
2645.000000	101.165590
2644.000000	101.184692
2643.000000	101.203199
2642.000000	101.221665
2641.000000	101.240255
2640.000000	101.258359
2639.000000	101.275576
2638.000000	101.292435
2637.000000	101.309579
2636.000000	101.326822
2635.000000	101.343603
2634.000000	101.359816
2633.000000	101.375621
2632.000000	101.390987
2631.000000	101.405975
2630.000000	101.420976
2629.000000	101.436108
2628.000000	101.450898
2627.000000	101.465062
2626.000000	101.479031
2625.000000	101.493169
2624.000000	101.507130
2623.000000	101.520589
2622.000000	101.533985
2621.000000	101.547850
2620.000000	101.561956
2619.000000	101.575800
2618.000000	101.589453
2617.000000	101.603202
2616.000000	101.616833
2615.000000	101.629957
2614.000000	101.642650
2613.000000	101.655116
2612.000000	101.667149
2611.000000	101.678496
2610.000000	101.689362
2609.000000	101.699910
2608.000000	101.709719
2607.000000	101.718349
2606.000000	101.726069
2605.000000	101.733441
2604.000000	101.740561
2603.000000	101.747247
2602.000000	101.753574
2601.000000	101.759652
2600.000000	101.765295
2599.000000	101.770415
2598.000000	101.775376
2597.000000	101.780542
2596.000000	101.785997
2595.000000	101.792158
2594.000000	101.800058
2593.000000	101.810451
2592.000000	101.823143
2591.000000	101.837761
2590.000000	101.854612
2589.000000	101.874194
2588.000000	101.896426
2587.000000	101.920988
2586.000000	101.947885
2585.000000	101.977010
2584.000000	102.007633
2583.000000	102.038950
2582.000000	102.070662
2581.000000	102.102424
2580.000000	102.133324
2579.000000	102.162604
2578.000000	102.190429
2577.000000	102.217305
2576.000000	102.243196
2575.000000	102.267814
2574.000000	102.291247
2573.000000	102.313651
2572.000000	102.334830
2571.000000	102.354803
2570.000000	102.374265
2569.000000	102.393771
2568.000000	102.412905
2567.000000	102.430974
2566.000000	102.448088
2565.000000	102.464835
2564.000000	102.481323
2563.000000	102.497239
2562.000000	102.512534
2561.000000	102.527379
2560.000000	102.541771
2559.000000	102.555741
2558.000000	102.569596
2557.000000	102.583417
2556.000000	102.596774
2555.000000	102.609495
2554.000000	102.622233
2553.000000	102.635648
2552.000000	102.649497
2551.000000	102.663109
2550.000000	102.676345
2549.000000	102.689462
2548.000000	102.702496
2547.000000	102.715394
2546.000000	102.728347
2545.000000	102.741424
2544.000000	102.754282
2543.000000	102.766803
2542.000000	102.779535
2541.000000	102.792964
2540.000000	102.806823
2539.000000	102.820648
2538.000000	102.834480
2537.000000	102.848449
2536.000000	102.862209
2535.000000	102.875456
2534.000000	102.888508
2533.000000	102.901748
2532.000000	102.914959
2531.000000	102.927809
2530.000000	102.940512
2529.000000	102.953397
2528.000000	102.966301
2527.000000	102.978957
2526.000000	102.991513
2525.000000	103.004122
2524.000000	103.016553
2523.000000	103.028758
2522.000000	103.041229
2521.000000	103.054153
2520.000000	103.066819
2519.000000	103.078566
2518.000000	103.089791
2517.000000	103.101353
2516.000000	103.113459
2515.000000	103.125761
2514.000000	103.138006
2513.000000	103.149918
2512.000000	103.160975
2511.000000	103.171042
2510.000000	103.180827
2509.000000	103.191083
2508.000000	103.201782
2507.000000	103.212572
2506.000000	103.223480
2505.000000	103.234574
2504.000000	103.245524
2503.000000	103.256168
2502.000000	103.266998
2501.000000	103.278461
2500.000000	103.290269
2499.000000	103.302000
2498.000000	103.313827
2497.000000	103.326068
2496.000000	103.338588
2495.000000	103.351240
2494.000000	103.364246
2493.000000	103.377534
2492.000000	103.390377
2491.000000	103.402415
2490.000000	103.414391
2489.000000	103.427134
2488.000000	103.440416
2487.000000	103.453540
2486.000000	103.466419
2485.000000	103.479306
2484.000000	103.492055
2483.000000	103.504476
2482.000000	103.516896
2481.000000	103.529590
2480.000000	103.542131
2479.000000	103.554020
2478.000000	103.565474
2477.000000	103.576926
2476.000000	103.588289
2475.000000	103.599365
2474.000000	103.610349
2473.000000	103.621217
2472.000000	103.631279
2471.000000	103.640121
2470.000000	103.648411
2469.000000	103.656977
2468.000000	103.665652
2467.000000	103.673869
2466.000000	103.681800
2465.000000	103.690052
2464.000000	103.698674
2463.000000	103.707286
2462.000000	103.715778
2461.000000	103.724157
2460.000000	103.732194
2459.000000	103.739915
2458.000000	103.747922
2457.000000	103.756527
2456.000000	103.765147
2455.000000	103.773256
2454.000000	103.781320
2453.000000	103.789957
2452.000000	103.798787
2451.000000	103.807017
2450.000000	103.814673
2449.000000	103.822378
2448.000000	103.830309
2447.000000	103.838229
2446.000000	103.846159
2445.000000	103.854249
2444.000000	103.862311
2443.000000	103.870148
2442.000000	103.877968
2441.000000	103.885879
2440.000000	103.893460
2439.000000	103.900445
2438.000000	103.907291
2437.000000	103.914432
2436.000000	103.921536
2435.000000	103.928162
2434.000000	103.934543
2433.000000	103.941039
2432.000000	103.947373
2431.000000	103.953141
2430.000000	103.958528
2429.000000	103.963906
2428.000000	103.969338
2427.000000	103.975120
2426.000000	103.982051
2425.000000	103.990362
2424.000000	103.999039
2423.000000	104.006992
2422.000000	104.014298
2421.000000	104.021539
2420.000000	104.028640
2419.000000	104.035216
2418.000000	104.041376
2417.000000	104.047332
2416.000000	104.052823
2415.000000	104.057821
2414.000000	104.063123
2413.000000	104.069342
2412.000000	104.075902
2411.000000	104.081988
2410.000000	104.087883
2409.000000	104.094381
2408.000000	104.101385
2407.000000	104.108140
2406.000000	104.114468
2405.000000	104.120854
2404.000000	104.127623
2403.000000	104.134838
2402.000000	104.142615
2401.000000	104.150804
2400.000000	104.158773
2399.000000	104.166223
2398.000000	104.173711
2397.000000	104.181741
2396.000000	104.189950
2395.000000	104.197918
2394.000000	104.206081
2393.000000	104.214942
2392.000000	104.223985
2391.000000	104.232235
2390.000000	104.239321
2389.000000	104.245091
2388.000000	104.248757
2387.000000	104.249323
2386.000000	104.246262
2385.000000	104.238749
2384.000000	104.224657
2383.000000	104.201241
2382.000000	104.166393
2381.000000	104.118462
2380.000000	104.055477
2379.000000	103.975650
2378.000000	103.878339
2377.000000	103.763637
2376.000000	103.631443
2375.000000	103.481931
2374.000000	103.316690
2373.000000	103.138638
2372.000000	102.951188
2371.000000	102.758272
2370.000000	102.564774
2369.000000	102.376007
2368.000000	102.196975
2367.000000	102.032745
2366.000000	101.889009
2365.000000	101.771319
2364.000000	101.683927
2363.000000	101.629901
2362.000000	101.611806
2361.000000	101.631370
2360.000000	101.688923
2359.000000	101.784076
2358.000000	101.916558
2357.000000	102.085356
2356.000000	102.287368
2355.000000	102.518093
2354.000000	102.773098
2353.000000	103.045466
2352.000000	103.318007
2351.000000	103.557029
2350.000000	103.718179
2349.000000	103.766082
2348.000000	103.695607
2347.000000	103.536552
2346.000000	103.336157
2345.000000	103.134703
2344.000000	102.953581
2343.000000	102.800116
2342.000000	102.676494
2341.000000	102.582657
2340.000000	102.515590
2339.000000	102.470766
2338.000000	102.444733
2337.000000	102.435282
2336.000000	102.440206
2335.000000	102.457549
2334.000000	102.486443
2333.000000	102.526503
2332.000000	102.576926
2331.000000	102.636987
2330.000000	102.706441
2329.000000	102.784377
2328.000000	102.868465
2327.000000	102.956258
2326.000000	103.046473
2325.000000	103.138278
2324.000000	103.230416
2323.000000	103.321975
2322.000000	103.412926
2321.000000	103.502771
2320.000000	103.589637
2319.000000	103.671787
2318.000000	103.749195
2317.000000	103.822586
2316.000000	103.891903
2315.000000	103.956768
2314.000000	104.017493
2313.000000	104.074402
2312.000000	104.126968
2311.000000	104.174705
2310.000000	104.218183
2309.000000	104.258126
2308.000000	104.294357
2307.000000	104.326606
2306.000000	104.355505
2305.000000	104.381759
2304.000000	104.405239
2303.000000	104.425928
2302.000000	104.444821
2301.000000	104.462798
2300.000000	104.479462
2299.000000	104.494187
2298.000000	104.507416
2297.000000	104.519853
2296.000000	104.531316
2295.000000	104.541527
2294.000000	104.551119
2293.000000	104.560713
2292.000000	104.569882
2291.000000	104.578160
2290.000000	104.586133
2289.000000	104.594343
2288.000000	104.602081
2287.000000	104.608506
2286.000000	104.613976
2285.000000	104.618977
2284.000000	104.622655
2283.000000	104.623895
2282.000000	104.623091
2281.000000	104.621456
2280.000000	104.619285
2279.000000	104.616254
2278.000000	104.612775
2277.000000	104.609645
2276.000000	104.606841
2275.000000	104.603875
2274.000000	104.600851
2273.000000	104.598091
2272.000000	104.595324
2271.000000	104.592311
2270.000000	104.589594
2269.000000	104.587598
2268.000000	104.585699
2267.000000	104.583255
2266.000000	104.580744
2265.000000	104.578823
2264.000000	104.577130
2263.000000	104.575187
2262.000000	104.573619
2261.000000	104.573182
2260.000000	104.573344
2259.000000	104.573136
2258.000000	104.572719
2257.000000	104.572870
2256.000000	104.573576
2255.000000	104.574362
2254.000000	104.575406
2253.000000	104.577146
2252.000000	104.579406
2251.000000	104.581939
2250.000000	104.585168
2249.000000	104.589348
2248.000000	104.593760
2247.000000	104.597803
2246.000000	104.602071
2245.000000	104.607293
2244.000000	104.613091
2243.000000	104.618879
2242.000000	104.625066
2241.000000	104.632129
2240.000000	104.639418
2239.000000	104.646138
2238.000000	104.652683
2237.000000	104.659749
2236.000000	104.666941
2235.000000	104.673547
2234.000000	104.679879
2233.000000	104.686590
2232.000000	104.693413
2231.000000	104.699809
2230.000000	104.706080
2229.000000	104.712602
2228.000000	104.718766
2227.000000	104.723936
2226.000000	104.728673
2225.000000	104.733774
2224.000000	104.738894
2223.000000	104.743336
2222.000000	104.747381
2221.000000	104.751606
2220.000000	104.755707
2219.000000	104.759221
2218.000000	104.762587
2217.000000	104.766280
2216.000000	104.769719
2215.000000	104.772240
2214.000000	104.774303
2213.000000	104.776581
2212.000000	104.778814
2211.000000	104.780726
2210.000000	104.783030
2209.000000	104.786201
2208.000000	104.789304
2207.000000	104.791395
2206.000000	104.793101
2205.000000	104.795420
2204.000000	104.797976
2203.000000	104.799943
2202.000000	104.801687
2201.000000	104.803940
2200.000000	104.806251
2199.000000	104.807789
2198.000000	104.808875
2197.000000	104.810239
2196.000000	104.811567
2195.000000	104.812243
2194.000000	104.812689
2193.000000	104.813531
2192.000000	104.814251
2191.000000	104.814129
2190.000000	104.813676
2189.000000	104.813739
2188.000000	104.814011
2187.000000	104.813866
2186.000000	104.813741
2185.000000	104.814249
2184.000000	104.814758
2183.000000	104.814356
2182.000000	104.813395
2181.000000	104.812684
2180.000000	104.812013
2179.000000	104.810832
2178.000000	104.809485
2177.000000	104.808366
2176.000000	104.806689
2175.000000	104.803228
2174.000000	104.797206
2173.000000	104.787589
2172.000000	104.773621
2171.000000	104.757990
2170.000000	104.747549
2169.000000	104.747912
2168.000000	104.757804
2167.000000	104.770682
2166.000000	104.781110
2165.000000	104.787666
2164.000000	104.790952
2163.000000	104.791742
2162.000000	104.791091
2161.000000	104.789980
2160.000000	104.788532
2159.000000	104.786813
2158.000000	104.785883
2157.000000	104.786512
2156.000000	104.787539
2155.000000	104.787212
2154.000000	104.785563
2153.000000	104.783842
2152.000000	104.782339
2151.000000	104.780604
2150.000000	104.779127
2149.000000	104.778820
2148.000000	104.779308
2147.000000	104.779543
2146.000000	104.779655
2145.000000	104.780385
2144.000000	104.781208
2143.000000	104.780933
2142.000000	104.779764
2141.000000	104.778845
2140.000000	104.778095
2139.000000	104.776399
2138.000000	104.773792
2137.000000	104.771611
2136.000000	104.770481
2135.000000	104.769790
2134.000000	104.769133
2133.000000	104.768713
2132.000000	104.768352
2131.000000	104.767552
2130.000000	104.766560
2129.000000	104.766061
2128.000000	104.765880
2127.000000	104.765222
2126.000000	104.764119
2125.000000	104.763470
2124.000000	104.763742
2123.000000	104.764647
2122.000000	104.765900
2121.000000	104.767310
2120.000000	104.768404
2119.000000	104.768911
2118.000000	104.769376
2117.000000	104.770516
2116.000000	104.772363
2115.000000	104.774710
2114.000000	104.777805
2113.000000	104.781853
2112.000000	104.786455
2111.000000	104.791250
2110.000000	104.796448
2109.000000	104.802133
2108.000000	104.807887
2107.000000	104.813662
2106.000000	104.820011
2105.000000	104.826885
2104.000000	104.833366
2103.000000	104.839185
2102.000000	104.845172
2101.000000	104.851577
2100.000000	104.857477
2099.000000	104.862604
2098.000000	104.868079
2097.000000	104.874441
2096.000000	104.880723
2095.000000	104.886438
2094.000000	104.892582
2093.000000	104.899541
2092.000000	104.906070
2091.000000	104.911718
2090.000000	104.918200
2089.000000	104.926718
2088.000000	104.935894
2087.000000	104.944083
2086.000000	104.951776
2085.000000	104.959909
2084.000000	104.967806
2083.000000	104.974838
2082.000000	104.982179
2081.000000	104.990710
2080.000000	104.999001
2079.000000	105.005679
2078.000000	105.012064
2077.000000	105.020051
2076.000000	105.029004
2075.000000	105.037249
2074.000000	105.045143
2073.000000	105.054070
2072.000000	105.063689
2071.000000	105.072739
2070.000000	105.081360
2069.000000	105.090136
2068.000000	105.098100
2067.000000	105.104379
2066.000000	105.110795
2065.000000	105.120142
2064.000000	105.132515
2063.000000	105.145657
2062.000000	105.158151
2061.000000	105.170029
2060.000000	105.181141
2059.000000	105.191321
2058.000000	105.201543
2057.000000	105.212746
2056.000000	105.224134
2055.000000	105.234498
2054.000000	105.244307
2053.000000	105.254617
2052.000000	105.265028
2051.000000	105.274740
2050.000000	105.284439
2049.000000	105.295019
2048.000000	105.305559
2047.000000	105.314708
2046.000000	105.322879
2045.000000	105.330957
2044.000000	105.338228
2043.000000	105.343984
2042.000000	105.349833
2041.000000	105.357807
2040.000000	105.367256
2039.000000	105.376050
2038.000000	105.383718
2037.000000	105.390915
2036.000000	105.397082
2035.000000	105.401245
2034.000000	105.403764
2033.000000	105.404499
2032.000000	105.400896
2031.000000	105.391744
2030.000000	105.382138
2029.000000	105.380697
2028.000000	105.391153
2027.000000	105.409193
2026.000000	105.427538
2025.000000	105.441646
2024.000000	105.450660
2023.000000	105.455866
2022.000000	105.459089
2021.000000	105.460941
2020.000000	105.460591
2019.000000	105.458640
2018.000000	105.459226
2017.000000	105.466807
2016.000000	105.481147
2015.000000	105.497670
2014.000000	105.512381
2013.000000	105.524310
2012.000000	105.533846
2011.000000	105.541489
2010.000000	105.548377
2009.000000	105.555721
2008.000000	105.563296
2007.000000	105.570067
2006.000000	105.576036
2005.000000	105.581808
2004.000000	105.586862
2003.000000	105.590222
2002.000000	105.592392
2001.000000	105.594681
2000.000000	105.597173
1999.000000	105.599336
1998.000000	105.601736
1997.000000	105.604339
1996.000000	105.603607
1995.000000	105.594838
1994.000000	105.578704
1993.000000	105.563087
1992.000000	105.556689
1991.000000	105.561591
1990.000000	105.572692
1989.000000	105.583167
1988.000000	105.589511
1987.000000	105.592168
1986.000000	105.592771
1985.000000	105.591693
1984.000000	105.588368
1983.000000	105.583194
1982.000000	105.577762
1981.000000	105.572947
1980.000000	105.567905
1979.000000	105.561521
1978.000000	105.553905
1977.000000	105.545834
1976.000000	105.537665
1975.000000	105.529491
1974.000000	105.521551
1973.000000	105.513642
1972.000000	105.504398
1971.000000	105.491700
1970.000000	105.474152
1969.000000	105.452968
1968.000000	105.432703
1967.000000	105.418764
1966.000000	105.412729
1965.000000	105.410341
1964.000000	105.403908
1963.000000	105.384971
1962.000000	105.346072
1961.000000	105.287078
1960.000000	105.224148
1959.000000	105.186072
1958.000000	105.191829
1957.000000	105.231366
1956.000000	105.274612
1955.000000	105.299217
1954.000000	105.303824
1953.000000	105.296889
1952.000000	105.283458
1951.000000	105.266206
1950.000000	105.250057
1949.000000	105.238623
1948.000000	105.229508
1947.000000	105.216942
1946.000000	105.196442
1945.000000	105.166393
1944.000000	105.130923
1943.000000	105.102708
1942.000000	105.095424
1941.000000	105.108941
1940.000000	105.127285
1939.000000	105.134993
1938.000000	105.130382
1937.000000	105.119944
1936.000000	105.106974
1935.000000	105.091518
1934.000000	105.075697
1933.000000	105.061987
1932.000000	105.049065
1931.000000	105.034557
1930.000000	105.019403
1929.000000	105.005263
1928.000000	104.990004
1927.000000	104.969169
1926.000000	104.940319
1925.000000	104.904985
1924.000000	104.869358
1923.000000	104.841626
1922.000000	104.821784
1921.000000	104.795271
1920.000000	104.748008
1919.000000	104.690637
1918.000000	104.655320
1917.000000	104.660699
1916.000000	104.689695
1915.000000	104.709769
1914.000000	104.705599
1913.000000	104.682681
1912.000000	104.649474
1911.000000	104.610901
1910.000000	104.574427
1909.000000	104.547586
1908.000000	104.528782
1907.000000	104.509940
1906.000000	104.487713
1905.000000	104.464477
1904.000000	104.440561
1903.000000	104.414046
1902.000000	104.386709
1901.000000	104.362066
1900.000000	104.338454
1899.000000	104.310965
1898.000000	104.279212
1897.000000	104.247712
1896.000000	104.220686
1895.000000	104.200687
1894.000000	104.187493
1893.000000	104.173102
1892.000000	104.145167
1891.000000	104.104170
1890.000000	104.070795
1889.000000	104.065230
1888.000000	104.083160
1887.000000	104.102484
1886.000000	104.109543
1885.000000	104.107373
1884.000000	104.101907
1883.000000	104.093688
1882.000000	104.083310
1881.000000	104.073380
1880.000000	104.063283
1879.000000	104.050327
1878.000000	104.036125
1877.000000	104.024349
1876.000000	104.013607
1875.000000	103.999367
1874.000000	103.978667
1873.000000	103.944526
1872.000000	103.883373
1871.000000	103.793636
1870.000000	103.704363
1869.000000	103.658133
1868.000000	103.671204
1867.000000	103.720924
1866.000000	103.772564
1865.000000	103.806305
1864.000000	103.818162
1863.000000	103.811287
1862.000000	103.794058
1861.000000	103.776419
1860.000000	103.761279
1859.000000	103.745021
1858.000000	103.727408
1857.000000	103.712476
1856.000000	103.699321
1855.000000	103.682410
1854.000000	103.662018
1853.000000	103.643386
1852.000000	103.624665
1851.000000	103.597877
1850.000000	103.562196
1849.000000	103.520080
1848.000000	103.457243
1847.000000	103.348580
1846.000000	103.200094
1845.000000	103.070968
1844.000000	103.031303
1843.000000	103.095476
1842.000000	103.207754
1841.000000	103.294112
1840.000000	103.320170
1839.000000	103.300647
1838.000000	103.267188
1837.000000	103.238062
1836.000000	103.214190
1835.000000	103.188558
1834.000000	103.148889
1833.000000	103.078863
1832.000000	102.974837
1831.000000	102.865371
1830.000000	102.796766
1829.000000	102.785748
1828.000000	102.797443
1827.000000	102.785855
1826.000000	102.748053
1825.000000	102.720232
1824.000000	102.725649
1823.000000	102.748336
1822.000000	102.759408
1821.000000	102.748062
1820.000000	102.719632
1819.000000	102.681151
1818.000000	102.640003
1817.000000	102.604639
1816.000000	102.575296
1815.000000	102.540471
1814.000000	102.489824
1813.000000	102.425732
1812.000000	102.359200
1811.000000	102.301216
1810.000000	102.259527
1809.000000	102.234553
1808.000000	102.215108
1807.000000	102.185648
1806.000000	102.139233
1805.000000	102.076589
1804.000000	101.995981
1803.000000	101.897528
1802.000000	101.797017
1801.000000	101.719583
1800.000000	101.675483
1799.000000	101.652912
1798.000000	101.633066
1797.000000	101.595579
1796.000000	101.511687
1795.000000	101.361014
1794.000000	101.169887
1793.000000	101.012913
1792.000000	100.955238
1791.000000	100.996631
1790.000000	101.077993
1789.000000	101.131531
1788.000000	101.119973
1787.000000	101.047533
1786.000000	100.951069
1785.000000	100.871606
1784.000000	100.820183
1783.000000	100.775475
1782.000000	100.719022
1781.000000	100.659164
1780.000000	100.612568
1779.000000	100.577786
1778.000000	100.537010
1777.000000	100.466651
1776.000000	100.336730
1775.000000	100.128109
1774.000000	99.877246
1773.000000	99.682497
1772.000000	99.625819
1771.000000	99.688997
1770.000000	99.776907
1769.000000	99.823892
1768.000000	99.845661
1767.000000	99.880392
1766.000000	99.914031
1765.000000	99.891286
1764.000000	99.787924
1763.000000	99.647767
1762.000000	99.543541
1761.000000	99.508126
1760.000000	99.507248
1759.000000	99.480466
1758.000000	99.408105
1757.000000	99.327302
1756.000000	99.272902
1755.000000	99.216568
1754.000000	99.091557
1753.000000	98.880743
1752.000000	98.653978
1751.000000	98.503363
1750.000000	98.457521
1749.000000	98.473002
1748.000000	98.492092
1747.000000	98.485801
1746.000000	98.449838
1745.000000	98.386795
1744.000000	98.299217
1743.000000	98.186522
1742.000000	98.048815
1741.000000	97.907133
1740.000000	97.808608
1739.000000	97.774554
1738.000000	97.735892
1737.000000	97.568120
1736.000000	97.235820
1735.000000	96.883148
1734.000000	96.727292
1733.000000	96.850818
1732.000000	97.131975
1731.000000	97.384095
1730.000000	97.521805
1729.000000	97.575250
1728.000000	97.593615
1727.000000	97.588908
1726.000000	97.559291
1725.000000	97.516508
1724.000000	97.475274
1723.000000	97.431608
1722.000000	97.352087
1721.000000	97.180317
1720.000000	96.882422
1719.000000	96.516691
1718.000000	96.235407
1717.000000	96.169837
1716.000000	96.310665
1715.000000	96.531278
1714.000000	96.717453
1713.000000	96.835416
1712.000000	96.889200
1711.000000	96.877682
1710.000000	96.809545
1709.000000	96.709274
1708.000000	96.588404
1707.000000	96.451349
1706.000000	96.332851
1705.000000	96.263576
1704.000000	96.180027
1703.000000	95.955361
1702.000000	95.580339
1701.000000	95.241626
1700.000000	95.128163
1699.000000	95.200175
1698.000000	95.252822
1697.000000	95.198474
1696.000000	95.176609
1695.000000	95.351743
1694.000000	95.690554
1693.000000	96.001062
1692.000000	96.144543
1691.000000	96.143046
1690.000000	96.090480
1689.000000	96.010054
1688.000000	95.824364
1687.000000	95.466185
1686.000000	95.014227
1685.000000	94.691693
1684.000000	94.688951
1683.000000	94.982609
1682.000000	95.360882
1681.000000	95.626411
1680.000000	95.731559
1679.000000	95.718627
1678.000000	95.611588
1677.000000	95.428013
1676.000000	95.246522
1675.000000	95.169530
1674.000000	95.206126
1673.000000	95.249629
1672.000000	95.197373
1671.000000	95.062441
1670.000000	94.948394
1669.000000	94.938154
1668.000000	95.024735
1667.000000	95.128737
1666.000000	95.161740
1665.000000	95.088059
1664.000000	94.951847
1663.000000	94.843221
1662.000000	94.819757
1661.000000	94.859186
1660.000000	94.895867
1659.000000	94.885186
1658.000000	94.799096
1657.000000	94.569438
1656.000000	94.109237
1655.000000	93.453394
1654.000000	92.850794
1653.000000	92.623904
1652.000000	92.881724
1651.000000	93.394167
1650.000000	93.786260
1649.000000	93.852313
1648.000000	93.675240
1647.000000	93.483175
1646.000000	93.440115
1645.000000	93.556724
1644.000000	93.733976
1643.000000	93.858471
1642.000000	93.878777
1641.000000	93.813988
1640.000000	93.690445
1639.000000	93.487121
1638.000000	93.177873
1637.000000	92.825368
1636.000000	92.581895
1635.000000	92.560818
1634.000000	92.723714
1633.000000	92.917063
1632.000000	93.006257
1631.000000	92.958028
1630.000000	92.818209
1629.000000	92.648410
1628.000000	92.483209
1627.000000	92.316925
1626.000000	92.118220
1625.000000	91.870358
1624.000000	91.603527
1623.000000	91.375053
1622.000000	91.206400
1621.000000	91.043869
1620.000000	90.796211
1619.000000	90.426469
1618.000000	90.011077
1617.000000	89.693290
1616.000000	89.556294
1615.000000	89.538527
1614.000000	89.487277
1613.000000	89.297800
1612.000000	88.989360
1611.000000	88.654479
1610.000000	88.368500
1609.000000	88.161787
1608.000000	88.044681
1607.000000	88.018640
1606.000000	88.065487
1605.000000	88.153446
1604.000000	88.260547
1603.000000	88.380272
1602.000000	88.506691
1601.000000	88.629404
1600.000000	88.743453
1599.000000	88.850641
1598.000000	88.949280
1597.000000	89.033332
1596.000000	89.102604
1595.000000	89.163469
1594.000000	89.217642
1593.000000	89.258751
1592.000000	89.281799
1591.000000	89.288893
1590.000000	89.284029
1589.000000	89.268378
1588.000000	89.242717
1587.000000	89.210068
1586.000000	89.173865
1585.000000	89.135883
1584.000000	89.097906
1583.000000	89.065036
1582.000000	89.042165
1581.000000	89.015823
1580.000000	88.936840
1579.000000	88.746077
1578.000000	88.452033
1577.000000	88.179827
1576.000000	88.095896
1575.000000	88.249051
1574.000000	88.502121
1573.000000	88.650363
1572.000000	88.604638
1571.000000	88.443746
1570.000000	88.305209
1569.000000	88.256789
1568.000000	88.268529
1567.000000	88.271502
1566.000000	88.222394
1565.000000	88.117335
1564.000000	87.948837
1563.000000	87.660315
1562.000000	87.184408
1561.000000	86.565984
1560.000000	86.021700
1559.000000	85.805075
1558.000000	85.982216
1557.000000	86.376278
1556.000000	86.752514
1555.000000	87.020444
1554.000000	87.232584
1553.000000	87.442854
1552.000000	87.636752
1551.000000	87.786704
1550.000000	87.903544
1549.000000	88.006534
1548.000000	88.082508
1547.000000	88.105460
1546.000000	88.076646
1545.000000	88.017626
1544.000000	87.930400
1543.000000	87.791282
1542.000000	87.601205
1541.000000	87.440666
1540.000000	87.452771
1539.000000	87.733910
1538.000000	88.219081
1537.000000	88.697137
1536.000000	88.977523
1535.000000	89.048382
1534.000000	89.053728
1533.000000	89.125689
1532.000000	89.270315
1531.000000	89.408321
1530.000000	89.474709
1529.000000	89.457517
1528.000000	89.381325
1527.000000	89.288557
1526.000000	89.211623
1525.000000	89.131090
1524.000000	88.985819
1523.000000	88.763222
1522.000000	88.558425
1521.000000	88.491837
1520.000000	88.569190
1519.000000	88.671248
1518.000000	88.690780
1517.000000	88.633639
1516.000000	88.566301
1515.000000	88.512882
1514.000000	88.447491
1513.000000	88.358153
1512.000000	88.257568
1511.000000	88.123339
1510.000000	87.877893
1509.000000	87.469945
1508.000000	86.970315
1507.000000	86.553414
1506.000000	86.354959
1505.000000	86.336787
1504.000000	86.292955
1503.000000	85.991595
1502.000000	85.312543
1501.000000	84.264066
1500.000000	82.912353
