PE IR       SUBTECH     SPECTRUM    ASCII       PEDS        4.00        
   -1
TE108B2_019.ASC
20/02/27
14:26:00.00
20/02/27
14:26:00.00
Administrator
Sample 019 By Administrator Date Thursday, February 27 2020
1500.000000
#HDR
-1
-1
#GR
cm-1
A
1.0
0.0
4000.000000
-1.000000
2501
8
0.849754
0.808604
#DATA
4000.000000	0.815166
3999.000000	0.815158
3998.000000	0.815146
3997.000000	0.815135
3996.000000	0.815131
3995.000000	0.815142
3994.000000	0.815164
3993.000000	0.815185
3992.000000	0.815194
3991.000000	0.815186
3990.000000	0.815166
3989.000000	0.815142
3988.000000	0.815121
3987.000000	0.815111
3986.000000	0.815110
3985.000000	0.815116
3984.000000	0.815120
3983.000000	0.815119
3982.000000	0.815114
3981.000000	0.815105
3980.000000	0.815087
3979.000000	0.815052
3978.000000	0.815006
3977.000000	0.814962
3976.000000	0.814941
3975.000000	0.814945
3974.000000	0.814963
3973.000000	0.814979
3972.000000	0.814986
3971.000000	0.814980
3970.000000	0.814958
3969.000000	0.814916
3968.000000	0.814856
3967.000000	0.814796
3966.000000	0.814751
3965.000000	0.814727
3964.000000	0.814715
3963.000000	0.814699
3962.000000	0.814672
3961.000000	0.814636
3960.000000	0.814602
3959.000000	0.814576
3958.000000	0.814557
3957.000000	0.814542
3956.000000	0.814527
3955.000000	0.814507
3954.000000	0.814481
3953.000000	0.814456
3952.000000	0.814438
3951.000000	0.814427
3950.000000	0.814413
3949.000000	0.814386
3948.000000	0.814349
3947.000000	0.814314
3946.000000	0.814293
3945.000000	0.814285
3944.000000	0.814272
3943.000000	0.814236
3942.000000	0.814168
3941.000000	0.814082
3940.000000	0.814006
3939.000000	0.813957
3938.000000	0.813937
3937.000000	0.813932
3936.000000	0.813929
3935.000000	0.813919
3934.000000	0.813898
3933.000000	0.813859
3932.000000	0.813797
3931.000000	0.813718
3930.000000	0.813637
3929.000000	0.813569
3928.000000	0.813519
3927.000000	0.813480
3926.000000	0.813441
3925.000000	0.813399
3924.000000	0.813359
3923.000000	0.813320
3922.000000	0.813278
3921.000000	0.813228
3920.000000	0.813176
3919.000000	0.813132
3918.000000	0.813102
3917.000000	0.813081
3916.000000	0.813058
3915.000000	0.813032
3914.000000	0.813008
3913.000000	0.812990
3912.000000	0.812972
3911.000000	0.812944
3910.000000	0.812901
3909.000000	0.812847
3908.000000	0.812791
3907.000000	0.812733
3906.000000	0.812669
3905.000000	0.812599
3904.000000	0.812530
3903.000000	0.812474
3902.000000	0.812435
3901.000000	0.812403
3900.000000	0.812368
3899.000000	0.812326
3898.000000	0.812288
3897.000000	0.812266
3896.000000	0.812263
3895.000000	0.812265
3894.000000	0.812256
3893.000000	0.812226
3892.000000	0.812180
3891.000000	0.812132
3890.000000	0.812092
3889.000000	0.812060
3888.000000	0.812028
3887.000000	0.811985
3886.000000	0.811933
3885.000000	0.811883
3884.000000	0.811847
3883.000000	0.811829
3882.000000	0.811821
3881.000000	0.811810
3880.000000	0.811793
3879.000000	0.811778
3878.000000	0.811771
3877.000000	0.811766
3876.000000	0.811746
3875.000000	0.811696
3874.000000	0.811618
3873.000000	0.811528
3872.000000	0.811442
3871.000000	0.811368
3870.000000	0.811304
3869.000000	0.811252
3868.000000	0.811215
3867.000000	0.811193
3866.000000	0.811177
3865.000000	0.811153
3864.000000	0.811117
3863.000000	0.811079
3862.000000	0.811054
3861.000000	0.811048
3860.000000	0.811050
3859.000000	0.811044
3858.000000	0.811010
3857.000000	0.810935
3856.000000	0.810813
3855.000000	0.810648
3854.000000	0.810474
3853.000000	0.810341
3852.000000	0.810297
3851.000000	0.810351
3850.000000	0.810464
3849.000000	0.810577
3848.000000	0.810640
3847.000000	0.810646
3846.000000	0.810612
3845.000000	0.810566
3844.000000	0.810520
3843.000000	0.810475
3842.000000	0.810429
3841.000000	0.810379
3840.000000	0.810325
3839.000000	0.810263
3838.000000	0.810190
3837.000000	0.810118
3836.000000	0.810069
3835.000000	0.810062
3834.000000	0.810094
3833.000000	0.810143
3832.000000	0.810182
3831.000000	0.810201
3830.000000	0.810203
3829.000000	0.810200
3828.000000	0.810194
3827.000000	0.810183
3826.000000	0.810159
3825.000000	0.810123
3824.000000	0.810076
3823.000000	0.810019
3822.000000	0.809949
3821.000000	0.809869
3820.000000	0.809786
3819.000000	0.809713
3818.000000	0.809656
3817.000000	0.809613
3816.000000	0.809581
3815.000000	0.809562
3814.000000	0.809566
3813.000000	0.809599
3812.000000	0.809651
3811.000000	0.809695
3810.000000	0.809707
3809.000000	0.809678
3808.000000	0.809616
3807.000000	0.809544
3806.000000	0.809487
3805.000000	0.809457
3804.000000	0.809448
3803.000000	0.809434
3802.000000	0.809395
3801.000000	0.809336
3800.000000	0.809287
3799.000000	0.809282
3798.000000	0.809323
3797.000000	0.809390
3796.000000	0.809455
3795.000000	0.809505
3794.000000	0.809541
3793.000000	0.809569
3792.000000	0.809589
3791.000000	0.809595
3790.000000	0.809585
3789.000000	0.809561
3788.000000	0.809529
3787.000000	0.809496
3786.000000	0.809470
3785.000000	0.809453
3784.000000	0.809447
3783.000000	0.809444
3782.000000	0.809437
3781.000000	0.809419
3780.000000	0.809389
3779.000000	0.809357
3778.000000	0.809335
3777.000000	0.809326
3776.000000	0.809320
3775.000000	0.809300
3774.000000	0.809263
3773.000000	0.809218
3772.000000	0.809185
3771.000000	0.809175
3770.000000	0.809182
3769.000000	0.809196
3768.000000	0.809203
3767.000000	0.809199
3766.000000	0.809185
3765.000000	0.809169
3764.000000	0.809156
3763.000000	0.809150
3762.000000	0.809141
3761.000000	0.809117
3760.000000	0.809072
3759.000000	0.809017
3758.000000	0.808972
3757.000000	0.808952
3756.000000	0.808954
3755.000000	0.808959
3754.000000	0.808938
3753.000000	0.808878
3752.000000	0.808786
3751.000000	0.808691
3750.000000	0.808625
3749.000000	0.808604
3748.000000	0.808623
3747.000000	0.808655
3746.000000	0.808668
3745.000000	0.808651
3744.000000	0.808626
3743.000000	0.808628
3742.000000	0.808675
3741.000000	0.808753
3740.000000	0.808824
3739.000000	0.808855
3738.000000	0.808846
3737.000000	0.808817
3736.000000	0.808791
3735.000000	0.808774
3734.000000	0.808763
3733.000000	0.808758
3732.000000	0.808764
3731.000000	0.808787
3730.000000	0.808827
3729.000000	0.808879
3728.000000	0.808929
3727.000000	0.808964
3726.000000	0.808981
3725.000000	0.808990
3724.000000	0.809006
3723.000000	0.809037
3722.000000	0.809078
3721.000000	0.809120
3720.000000	0.809157
3719.000000	0.809190
3718.000000	0.809221
3717.000000	0.809248
3716.000000	0.809269
3715.000000	0.809282
3714.000000	0.809283
3713.000000	0.809270
3712.000000	0.809253
3711.000000	0.809251
3710.000000	0.809287
3709.000000	0.809371
3708.000000	0.809490
3707.000000	0.809620
3706.000000	0.809743
3705.000000	0.809852
3704.000000	0.809954
3703.000000	0.810060
3702.000000	0.810175
3701.000000	0.810303
3700.000000	0.810438
3699.000000	0.810571
3698.000000	0.810696
3697.000000	0.810806
3696.000000	0.810903
3695.000000	0.810987
3694.000000	0.811056
3693.000000	0.811101
3692.000000	0.811117
3691.000000	0.811105
3690.000000	0.811081
3689.000000	0.811073
3688.000000	0.811108
3687.000000	0.811200
3686.000000	0.811340
3685.000000	0.811503
3684.000000	0.811660
3683.000000	0.811796
3682.000000	0.811908
3681.000000	0.812004
3680.000000	0.812088
3679.000000	0.812159
3678.000000	0.812219
3677.000000	0.812270
3676.000000	0.812323
3675.000000	0.812397
3674.000000	0.812506
3673.000000	0.812650
3672.000000	0.812812
3671.000000	0.812969
3670.000000	0.813117
3669.000000	0.813268
3668.000000	0.813443
3667.000000	0.813643
3666.000000	0.813851
3665.000000	0.814045
3664.000000	0.814216
3663.000000	0.814371
3662.000000	0.814516
3661.000000	0.814650
3660.000000	0.814762
3659.000000	0.814851
3658.000000	0.814932
3657.000000	0.815023
3656.000000	0.815135
3655.000000	0.815261
3654.000000	0.815385
3653.000000	0.815492
3652.000000	0.815575
3651.000000	0.815642
3650.000000	0.815710
3649.000000	0.815795
3648.000000	0.815911
3647.000000	0.816056
3646.000000	0.816221
3645.000000	0.816391
3644.000000	0.816554
3643.000000	0.816705
3642.000000	0.816842
3641.000000	0.816967
3640.000000	0.817086
3639.000000	0.817205
3638.000000	0.817325
3637.000000	0.817441
3636.000000	0.817543
3635.000000	0.817619
3634.000000	0.817667
3633.000000	0.817698
3632.000000	0.817727
3631.000000	0.817765
3630.000000	0.817814
3629.000000	0.817879
3628.000000	0.817969
3627.000000	0.818091
3626.000000	0.818237
3625.000000	0.818386
3624.000000	0.818511
3623.000000	0.818595
3622.000000	0.818646
3621.000000	0.818691
3620.000000	0.818757
3619.000000	0.818852
3618.000000	0.818968
3617.000000	0.819082
3616.000000	0.819178
3615.000000	0.819256
3614.000000	0.819331
3613.000000	0.819415
3612.000000	0.819510
3611.000000	0.819608
3610.000000	0.819702
3609.000000	0.819789
3608.000000	0.819871
3607.000000	0.819956
3606.000000	0.820054
3605.000000	0.820165
3604.000000	0.820284
3603.000000	0.820393
3602.000000	0.820482
3601.000000	0.820549
3600.000000	0.820607
3599.000000	0.820666
3598.000000	0.820732
3597.000000	0.820802
3596.000000	0.820873
3595.000000	0.820940
3594.000000	0.821001
3593.000000	0.821059
3592.000000	0.821120
3591.000000	0.821194
3590.000000	0.821279
3589.000000	0.821366
3588.000000	0.821440
3587.000000	0.821499
3586.000000	0.821547
3585.000000	0.821598
3584.000000	0.821656
3583.000000	0.821722
3582.000000	0.821791
3581.000000	0.821861
3580.000000	0.821932
3579.000000	0.822004
3578.000000	0.822077
3577.000000	0.822144
3576.000000	0.822204
3575.000000	0.822257
3574.000000	0.822306
3573.000000	0.822350
3572.000000	0.822386
3571.000000	0.822415
3570.000000	0.822445
3569.000000	0.822491
3568.000000	0.822555
3567.000000	0.822627
3566.000000	0.822692
3565.000000	0.822749
3564.000000	0.822812
3563.000000	0.822897
3562.000000	0.823002
3561.000000	0.823109
3560.000000	0.823195
3559.000000	0.823254
3558.000000	0.823294
3557.000000	0.823326
3556.000000	0.823357
3555.000000	0.823390
3554.000000	0.823431
3553.000000	0.823489
3552.000000	0.823561
3551.000000	0.823639
3550.000000	0.823711
3549.000000	0.823777
3548.000000	0.823841
3547.000000	0.823905
3546.000000	0.823968
3545.000000	0.824029
3544.000000	0.824093
3543.000000	0.824169
3542.000000	0.824261
3541.000000	0.824360
3540.000000	0.824450
3539.000000	0.824522
3538.000000	0.824579
3537.000000	0.824634
3536.000000	0.824696
3535.000000	0.824765
3534.000000	0.824837
3533.000000	0.824909
3532.000000	0.824986
3531.000000	0.825070
3530.000000	0.825160
3529.000000	0.825249
3528.000000	0.825331
3527.000000	0.825403
3526.000000	0.825470
3525.000000	0.825541
3524.000000	0.825625
3523.000000	0.825728
3522.000000	0.825845
3521.000000	0.825966
3520.000000	0.826083
3519.000000	0.826204
3518.000000	0.826338
3517.000000	0.826486
3516.000000	0.826634
3515.000000	0.826764
3514.000000	0.826875
3513.000000	0.826980
3512.000000	0.827092
3511.000000	0.827212
3510.000000	0.827329
3509.000000	0.827438
3508.000000	0.827548
3507.000000	0.827671
3506.000000	0.827810
3505.000000	0.827953
3504.000000	0.828088
3503.000000	0.828211
3502.000000	0.828333
3501.000000	0.828465
3500.000000	0.828609
3499.000000	0.828756
3498.000000	0.828900
3497.000000	0.829042
3496.000000	0.829188
3495.000000	0.829342
3494.000000	0.829496
3493.000000	0.829640
3492.000000	0.829772
3491.000000	0.829899
3490.000000	0.830029
3489.000000	0.830163
3488.000000	0.830298
3487.000000	0.830435
3486.000000	0.830582
3485.000000	0.830748
3484.000000	0.830927
3483.000000	0.831101
3482.000000	0.831251
3481.000000	0.831376
3480.000000	0.831492
3479.000000	0.831618
3478.000000	0.831760
3477.000000	0.831907
3476.000000	0.832046
3475.000000	0.832178
3474.000000	0.832319
3473.000000	0.832485
3472.000000	0.832674
3471.000000	0.832866
3470.000000	0.833033
3469.000000	0.833167
3468.000000	0.833280
3467.000000	0.833399
3466.000000	0.833543
3465.000000	0.833714
3464.000000	0.833896
3463.000000	0.834068
3462.000000	0.834220
3461.000000	0.834360
3460.000000	0.834506
3459.000000	0.834670
3458.000000	0.834848
3457.000000	0.835025
3456.000000	0.835192
3455.000000	0.835351
3454.000000	0.835512
3453.000000	0.835678
3452.000000	0.835840
3451.000000	0.835985
3450.000000	0.836109
3449.000000	0.836218
3448.000000	0.836329
3447.000000	0.836453
3446.000000	0.836587
3445.000000	0.836719
3444.000000	0.836841
3443.000000	0.836954
3442.000000	0.837066
3441.000000	0.837183
3440.000000	0.837301
3439.000000	0.837410
3438.000000	0.837504
3437.000000	0.837591
3436.000000	0.837687
3435.000000	0.837806
3434.000000	0.837940
3433.000000	0.838073
3432.000000	0.838192
3431.000000	0.838298
3430.000000	0.838398
3429.000000	0.838496
3428.000000	0.838594
3427.000000	0.838696
3426.000000	0.838809
3425.000000	0.838932
3424.000000	0.839057
3423.000000	0.839173
3422.000000	0.839276
3421.000000	0.839368
3420.000000	0.839450
3419.000000	0.839528
3418.000000	0.839607
3417.000000	0.839695
3416.000000	0.839794
3415.000000	0.839897
3414.000000	0.839996
3413.000000	0.840086
3412.000000	0.840170
3411.000000	0.840250
3410.000000	0.840325
3409.000000	0.840396
3408.000000	0.840467
3407.000000	0.840545
3406.000000	0.840630
3405.000000	0.840713
3404.000000	0.840779
3403.000000	0.840823
3402.000000	0.840853
3401.000000	0.840888
3400.000000	0.840936
3399.000000	0.840992
3398.000000	0.841045
3397.000000	0.841089
3396.000000	0.841128
3395.000000	0.841166
3394.000000	0.841203
3393.000000	0.841237
3392.000000	0.841266
3391.000000	0.841294
3390.000000	0.841333
3389.000000	0.841387
3388.000000	0.841452
3387.000000	0.841514
3386.000000	0.841565
3385.000000	0.841607
3384.000000	0.841647
3383.000000	0.841690
3382.000000	0.841728
3381.000000	0.841760
3380.000000	0.841792
3379.000000	0.841833
3378.000000	0.841882
3377.000000	0.841928
3376.000000	0.841963
3375.000000	0.841996
3374.000000	0.842036
3373.000000	0.842078
3372.000000	0.842102
3371.000000	0.842101
3370.000000	0.842090
3369.000000	0.842095
3368.000000	0.842133
3367.000000	0.842194
3366.000000	0.842259
3365.000000	0.842311
3364.000000	0.842351
3363.000000	0.842384
3362.000000	0.842419
3361.000000	0.842454
3360.000000	0.842486
3359.000000	0.842512
3358.000000	0.842538
3357.000000	0.842572
3356.000000	0.842612
3355.000000	0.842654
3354.000000	0.842690
3353.000000	0.842716
3352.000000	0.842727
3351.000000	0.842722
3350.000000	0.842707
3349.000000	0.842694
3348.000000	0.842694
3347.000000	0.842706
3346.000000	0.842725
3345.000000	0.842745
3344.000000	0.842768
3343.000000	0.842795
3342.000000	0.842828
3341.000000	0.842867
3340.000000	0.842904
3339.000000	0.842934
3338.000000	0.842956
3337.000000	0.842976
3336.000000	0.843001
3335.000000	0.843030
3334.000000	0.843056
3333.000000	0.843078
3332.000000	0.843099
3331.000000	0.843122
3330.000000	0.843144
3329.000000	0.843161
3328.000000	0.843175
3327.000000	0.843189
3326.000000	0.843206
3325.000000	0.843228
3324.000000	0.843257
3323.000000	0.843301
3322.000000	0.843362
3321.000000	0.843433
3320.000000	0.843499
3319.000000	0.843550
3318.000000	0.843589
3317.000000	0.843626
3316.000000	0.843667
3315.000000	0.843708
3314.000000	0.843746
3313.000000	0.843778
3312.000000	0.843807
3311.000000	0.843829
3310.000000	0.843846
3309.000000	0.843860
3308.000000	0.843876
3307.000000	0.843897
3306.000000	0.843920
3305.000000	0.843941
3304.000000	0.843962
3303.000000	0.843987
3302.000000	0.844026
3301.000000	0.844080
3300.000000	0.844146
3299.000000	0.844211
3298.000000	0.844256
3297.000000	0.844270
3296.000000	0.844261
3295.000000	0.844247
3294.000000	0.844251
3293.000000	0.844283
3292.000000	0.844333
3291.000000	0.844384
3290.000000	0.844422
3289.000000	0.844447
3288.000000	0.844467
3287.000000	0.844493
3286.000000	0.844525
3285.000000	0.844555
3284.000000	0.844578
3283.000000	0.844598
3282.000000	0.844624
3281.000000	0.844662
3280.000000	0.844704
3279.000000	0.844739
3278.000000	0.844764
3277.000000	0.844783
3276.000000	0.844802
3275.000000	0.844820
3274.000000	0.844834
3273.000000	0.844845
3272.000000	0.844856
3271.000000	0.844874
3270.000000	0.844902
3269.000000	0.844941
3268.000000	0.844984
3267.000000	0.845025
3266.000000	0.845059
3265.000000	0.845086
3264.000000	0.845108
3263.000000	0.845127
3262.000000	0.845147
3261.000000	0.845173
3260.000000	0.845209
3259.000000	0.845252
3258.000000	0.845295
3257.000000	0.845327
3256.000000	0.845348
3255.000000	0.845362
3254.000000	0.845375
3253.000000	0.845387
3252.000000	0.845397
3251.000000	0.845411
3250.000000	0.845436
3249.000000	0.845472
3248.000000	0.845512
3247.000000	0.845546
3246.000000	0.845573
3245.000000	0.845600
3244.000000	0.845630
3243.000000	0.845660
3242.000000	0.845684
3241.000000	0.845704
3240.000000	0.845726
3239.000000	0.845749
3238.000000	0.845770
3237.000000	0.845787
3236.000000	0.845801
3235.000000	0.845818
3234.000000	0.845838
3233.000000	0.845861
3232.000000	0.845886
3231.000000	0.845910
3230.000000	0.845936
3229.000000	0.845969
3228.000000	0.846014
3227.000000	0.846065
3226.000000	0.846106
3225.000000	0.846127
3224.000000	0.846133
3223.000000	0.846140
3222.000000	0.846156
3221.000000	0.846180
3220.000000	0.846202
3219.000000	0.846220
3218.000000	0.846235
3217.000000	0.846253
3216.000000	0.846276
3215.000000	0.846296
3214.000000	0.846306
3213.000000	0.846308
3212.000000	0.846315
3211.000000	0.846337
3210.000000	0.846369
3209.000000	0.846399
3208.000000	0.846422
3207.000000	0.846449
3206.000000	0.846491
3205.000000	0.846543
3204.000000	0.846590
3203.000000	0.846618
3202.000000	0.846628
3201.000000	0.846629
3200.000000	0.846630
3199.000000	0.846636
3198.000000	0.846645
3197.000000	0.846659
3196.000000	0.846675
3195.000000	0.846695
3194.000000	0.846719
3193.000000	0.846746
3192.000000	0.846770
3191.000000	0.846790
3190.000000	0.846806
3189.000000	0.846821
3188.000000	0.846833
3187.000000	0.846842
3186.000000	0.846852
3185.000000	0.846872
3184.000000	0.846901
3183.000000	0.846927
3182.000000	0.846938
3181.000000	0.846936
3180.000000	0.846935
3179.000000	0.846946
3178.000000	0.846967
3177.000000	0.846988
3176.000000	0.847010
3175.000000	0.847044
3174.000000	0.847096
3173.000000	0.847153
3172.000000	0.847192
3171.000000	0.847206
3170.000000	0.847205
3169.000000	0.847208
3168.000000	0.847227
3167.000000	0.847253
3166.000000	0.847275
3165.000000	0.847290
3164.000000	0.847299
3163.000000	0.847307
3162.000000	0.847315
3161.000000	0.847320
3160.000000	0.847329
3159.000000	0.847346
3158.000000	0.847372
3157.000000	0.847406
3156.000000	0.847440
3155.000000	0.847462
3154.000000	0.847465
3153.000000	0.847452
3152.000000	0.847438
3151.000000	0.847439
3150.000000	0.847459
3149.000000	0.847488
3148.000000	0.847515
3147.000000	0.847534
3146.000000	0.847547
3145.000000	0.847556
3144.000000	0.847567
3143.000000	0.847585
3142.000000	0.847608
3141.000000	0.847629
3140.000000	0.847646
3139.000000	0.847667
3138.000000	0.847700
3137.000000	0.847743
3136.000000	0.847786
3135.000000	0.847822
3134.000000	0.847854
3133.000000	0.847880
3132.000000	0.847899
3131.000000	0.847912
3130.000000	0.847929
3129.000000	0.847957
3128.000000	0.847994
3127.000000	0.848030
3126.000000	0.848061
3125.000000	0.848089
3124.000000	0.848121
3123.000000	0.848158
3122.000000	0.848194
3121.000000	0.848225
3120.000000	0.848246
3119.000000	0.848259
3118.000000	0.848270
3117.000000	0.848284
3116.000000	0.848305
3115.000000	0.848330
3114.000000	0.848354
3113.000000	0.848373
3112.000000	0.848381
3111.000000	0.848379
3110.000000	0.848375
3109.000000	0.848378
3108.000000	0.848391
3107.000000	0.848413
3106.000000	0.848445
3105.000000	0.848485
3104.000000	0.848530
3103.000000	0.848574
3102.000000	0.848606
3101.000000	0.848621
3100.000000	0.848621
3099.000000	0.848614
3098.000000	0.848608
3097.000000	0.848606
3096.000000	0.848604
3095.000000	0.848602
3094.000000	0.848604
3093.000000	0.848615
3092.000000	0.848634
3091.000000	0.848659
3090.000000	0.848680
3089.000000	0.848692
3088.000000	0.848696
3087.000000	0.848697
3086.000000	0.848700
3085.000000	0.848702
3084.000000	0.848698
3083.000000	0.848686
3082.000000	0.848671
3081.000000	0.848660
3080.000000	0.848657
3079.000000	0.848663
3078.000000	0.848678
3077.000000	0.848702
3076.000000	0.848728
3075.000000	0.848750
3074.000000	0.848761
3073.000000	0.848762
3072.000000	0.848755
3071.000000	0.848747
3070.000000	0.848739
3069.000000	0.848731
3068.000000	0.848724
3067.000000	0.848722
3066.000000	0.848728
3065.000000	0.848736
3064.000000	0.848739
3063.000000	0.848734
3062.000000	0.848728
3061.000000	0.848727
3060.000000	0.848728
3059.000000	0.848722
3058.000000	0.848708
3057.000000	0.848689
3056.000000	0.848671
3055.000000	0.848660
3054.000000	0.848657
3053.000000	0.848660
3052.000000	0.848658
3051.000000	0.848647
3050.000000	0.848628
3049.000000	0.848607
3048.000000	0.848586
3047.000000	0.848566
3046.000000	0.848558
3045.000000	0.848565
3044.000000	0.848580
3043.000000	0.848583
3042.000000	0.848565
3041.000000	0.848539
3040.000000	0.848523
3039.000000	0.848525
3038.000000	0.848533
3037.000000	0.848535
3036.000000	0.848528
3035.000000	0.848518
3034.000000	0.848514
3033.000000	0.848513
3032.000000	0.848507
3031.000000	0.848488
3030.000000	0.848459
3029.000000	0.848428
3028.000000	0.848408
3027.000000	0.848403
3026.000000	0.848411
3025.000000	0.848424
3024.000000	0.848432
3023.000000	0.848430
3022.000000	0.848420
3021.000000	0.848407
3020.000000	0.848389
3019.000000	0.848366
3018.000000	0.848336
3017.000000	0.848301
3016.000000	0.848266
3015.000000	0.848232
3014.000000	0.848199
3013.000000	0.848172
3012.000000	0.848158
3011.000000	0.848157
3010.000000	0.848162
3009.000000	0.848153
3008.000000	0.848120
3007.000000	0.848067
3006.000000	0.848010
3005.000000	0.847965
3004.000000	0.847934
3003.000000	0.847912
3002.000000	0.847893
3001.000000	0.847878
3000.000000	0.847864
2999.000000	0.847847
2998.000000	0.847823
2997.000000	0.847790
2996.000000	0.847750
2995.000000	0.847711
2994.000000	0.847674
2993.000000	0.847637
2992.000000	0.847594
2991.000000	0.847546
2990.000000	0.847504
2989.000000	0.847482
2988.000000	0.847479
2987.000000	0.847482
2986.000000	0.847472
2985.000000	0.847439
2984.000000	0.847387
2983.000000	0.847333
2982.000000	0.847293
2981.000000	0.847273
2980.000000	0.847273
2979.000000	0.847288
2978.000000	0.847311
2977.000000	0.847332
2976.000000	0.847342
2975.000000	0.847337
2974.000000	0.847324
2973.000000	0.847307
2972.000000	0.847288
2971.000000	0.847267
2970.000000	0.847245
2969.000000	0.847229
2968.000000	0.847221
2967.000000	0.847219
2966.000000	0.847218
2965.000000	0.847214
2964.000000	0.847208
2963.000000	0.847201
2962.000000	0.847191
2961.000000	0.847170
2960.000000	0.847129
2959.000000	0.847071
2958.000000	0.847011
2957.000000	0.846967
2956.000000	0.846938
2955.000000	0.846911
2954.000000	0.846874
2953.000000	0.846826
2952.000000	0.846776
2951.000000	0.846732
2950.000000	0.846697
2949.000000	0.846669
2948.000000	0.846648
2947.000000	0.846637
2946.000000	0.846636
2945.000000	0.846636
2944.000000	0.846623
2943.000000	0.846591
2942.000000	0.846555
2941.000000	0.846532
2940.000000	0.846523
2939.000000	0.846512
2938.000000	0.846488
2937.000000	0.846457
2936.000000	0.846433
2935.000000	0.846416
2934.000000	0.846398
2933.000000	0.846370
2932.000000	0.846331
2931.000000	0.846287
2930.000000	0.846246
2929.000000	0.846208
2928.000000	0.846173
2927.000000	0.846137
2926.000000	0.846100
2925.000000	0.846066
2924.000000	0.846035
2923.000000	0.845995
2922.000000	0.845937
2921.000000	0.845862
2920.000000	0.845789
2919.000000	0.845734
2918.000000	0.845694
2917.000000	0.845656
2916.000000	0.845608
2915.000000	0.845552
2914.000000	0.845499
2913.000000	0.845461
2912.000000	0.845434
2911.000000	0.845407
2910.000000	0.845371
2909.000000	0.845326
2908.000000	0.845279
2907.000000	0.845237
2906.000000	0.845200
2905.000000	0.845166
2904.000000	0.845130
2903.000000	0.845086
2902.000000	0.845037
2901.000000	0.844993
2900.000000	0.844962
2899.000000	0.844945
2898.000000	0.844926
2897.000000	0.844891
2896.000000	0.844836
2895.000000	0.844773
2894.000000	0.844722
2893.000000	0.844689
2892.000000	0.844667
2891.000000	0.844640
2890.000000	0.844600
2889.000000	0.844550
2888.000000	0.844497
2887.000000	0.844447
2886.000000	0.844404
2885.000000	0.844364
2884.000000	0.844319
2883.000000	0.844260
2882.000000	0.844191
2881.000000	0.844130
2880.000000	0.844088
2879.000000	0.844067
2878.000000	0.844051
2877.000000	0.844027
2876.000000	0.843993
2875.000000	0.843954
2874.000000	0.843918
2873.000000	0.843885
2872.000000	0.843847
2871.000000	0.843800
2870.000000	0.843745
2869.000000	0.843692
2868.000000	0.843650
2867.000000	0.843621
2866.000000	0.843601
2865.000000	0.843577
2864.000000	0.843540
2863.000000	0.843488
2862.000000	0.843430
2861.000000	0.843375
2860.000000	0.843325
2859.000000	0.843273
2858.000000	0.843215
2857.000000	0.843156
2856.000000	0.843111
2855.000000	0.843083
2854.000000	0.843067
2853.000000	0.843047
2852.000000	0.843019
2851.000000	0.842986
2850.000000	0.842959
2849.000000	0.842942
2848.000000	0.842930
2847.000000	0.842918
2846.000000	0.842903
2845.000000	0.842883
2844.000000	0.842855
2843.000000	0.842821
2842.000000	0.842784
2841.000000	0.842747
2840.000000	0.842713
2839.000000	0.842685
2838.000000	0.842665
2837.000000	0.842647
2836.000000	0.842624
2835.000000	0.842595
2834.000000	0.842565
2833.000000	0.842539
2832.000000	0.842514
2831.000000	0.842482
2830.000000	0.842443
2829.000000	0.842405
2828.000000	0.842375
2827.000000	0.842355
2826.000000	0.842338
2825.000000	0.842317
2824.000000	0.842292
2823.000000	0.842263
2822.000000	0.842232
2821.000000	0.842196
2820.000000	0.842161
2819.000000	0.842133
2818.000000	0.842112
2817.000000	0.842095
2816.000000	0.842071
2815.000000	0.842038
2814.000000	0.841999
2813.000000	0.841956
2812.000000	0.841916
2811.000000	0.841885
2810.000000	0.841866
2809.000000	0.841854
2808.000000	0.841838
2807.000000	0.841817
2806.000000	0.841797
2805.000000	0.841781
2804.000000	0.841766
2803.000000	0.841747
2802.000000	0.841726
2801.000000	0.841705
2800.000000	0.841683
2799.000000	0.841656
2798.000000	0.841627
2797.000000	0.841602
2796.000000	0.841584
2795.000000	0.841566
2794.000000	0.841540
2793.000000	0.841506
2792.000000	0.841470
2791.000000	0.841438
2790.000000	0.841410
2789.000000	0.841388
2788.000000	0.841369
2787.000000	0.841357
2786.000000	0.841355
2785.000000	0.841361
2784.000000	0.841366
2783.000000	0.841359
2782.000000	0.841336
2781.000000	0.841301
2780.000000	0.841266
2779.000000	0.841238
2778.000000	0.841215
2777.000000	0.841197
2776.000000	0.841180
2775.000000	0.841166
2774.000000	0.841154
2773.000000	0.841141
2772.000000	0.841127
2771.000000	0.841108
2770.000000	0.841083
2769.000000	0.841050
2768.000000	0.841015
2767.000000	0.840990
2766.000000	0.840985
2765.000000	0.841002
2764.000000	0.841023
2763.000000	0.841028
2762.000000	0.841006
2761.000000	0.840967
2760.000000	0.840922
2759.000000	0.840885
2758.000000	0.840862
2757.000000	0.840854
2756.000000	0.840852
2755.000000	0.840847
2754.000000	0.840835
2753.000000	0.840827
2752.000000	0.840828
2751.000000	0.840836
2750.000000	0.840843
2749.000000	0.840844
2748.000000	0.840838
2747.000000	0.840830
2746.000000	0.840827
2745.000000	0.840838
2744.000000	0.840863
2743.000000	0.840890
2742.000000	0.840901
2741.000000	0.840888
2740.000000	0.840862
2739.000000	0.840837
2738.000000	0.840820
2737.000000	0.840808
2736.000000	0.840794
2735.000000	0.840781
2734.000000	0.840771
2733.000000	0.840766
2732.000000	0.840763
2731.000000	0.840760
2730.000000	0.840753
2729.000000	0.840739
2728.000000	0.840722
2727.000000	0.840707
2726.000000	0.840704
2725.000000	0.840711
2724.000000	0.840720
2723.000000	0.840720
2722.000000	0.840712
2721.000000	0.840701
2720.000000	0.840695
2719.000000	0.840695
2718.000000	0.840701
2717.000000	0.840706
2716.000000	0.840709
2715.000000	0.840711
2714.000000	0.840713
2713.000000	0.840715
2712.000000	0.840712
2711.000000	0.840700
2710.000000	0.840683
2709.000000	0.840671
2708.000000	0.840669
2707.000000	0.840673
2706.000000	0.840676
2705.000000	0.840672
2704.000000	0.840660
2703.000000	0.840642
2702.000000	0.840621
2701.000000	0.840600
2700.000000	0.840587
2699.000000	0.840593
2698.000000	0.840624
2697.000000	0.840667
2696.000000	0.840704
2695.000000	0.840721
2694.000000	0.840718
2693.000000	0.840709
2692.000000	0.840705
2691.000000	0.840711
2690.000000	0.840726
2689.000000	0.840746
2688.000000	0.840762
2687.000000	0.840770
2686.000000	0.840775
2685.000000	0.840789
2684.000000	0.840807
2683.000000	0.840818
2682.000000	0.840817
2681.000000	0.840815
2680.000000	0.840822
2679.000000	0.840834
2678.000000	0.840837
2677.000000	0.840828
2676.000000	0.840815
2675.000000	0.840810
2674.000000	0.840816
2673.000000	0.840828
2672.000000	0.840839
2671.000000	0.840850
2670.000000	0.840865
2669.000000	0.840889
2668.000000	0.840912
2667.000000	0.840925
2666.000000	0.840927
2665.000000	0.840928
2664.000000	0.840938
2663.000000	0.840951
2662.000000	0.840960
2661.000000	0.840964
2660.000000	0.840977
2659.000000	0.841005
2658.000000	0.841043
2657.000000	0.841079
2656.000000	0.841105
2655.000000	0.841125
2654.000000	0.841146
2653.000000	0.841173
2652.000000	0.841203
2651.000000	0.841232
2650.000000	0.841256
2649.000000	0.841275
2648.000000	0.841291
2647.000000	0.841305
2646.000000	0.841321
2645.000000	0.841342
2644.000000	0.841367
2643.000000	0.841390
2642.000000	0.841413
2641.000000	0.841434
2640.000000	0.841456
2639.000000	0.841474
2638.000000	0.841485
2637.000000	0.841492
2636.000000	0.841499
2635.000000	0.841509
2634.000000	0.841524
2633.000000	0.841541
2632.000000	0.841556
2631.000000	0.841564
2630.000000	0.841563
2629.000000	0.841559
2628.000000	0.841563
2627.000000	0.841580
2626.000000	0.841610
2625.000000	0.841647
2624.000000	0.841685
2623.000000	0.841721
2622.000000	0.841758
2621.000000	0.841795
2620.000000	0.841829
2619.000000	0.841852
2618.000000	0.841861
2617.000000	0.841861
2616.000000	0.841863
2615.000000	0.841872
2614.000000	0.841882
2613.000000	0.841890
2612.000000	0.841902
2611.000000	0.841926
2610.000000	0.841963
2609.000000	0.842009
2608.000000	0.842055
2607.000000	0.842093
2606.000000	0.842116
2605.000000	0.842124
2604.000000	0.842124
2603.000000	0.842127
2602.000000	0.842140
2601.000000	0.842164
2600.000000	0.842193
2599.000000	0.842218
2598.000000	0.842234
2597.000000	0.842245
2596.000000	0.842257
2595.000000	0.842278
2594.000000	0.842306
2593.000000	0.842334
2592.000000	0.842360
2591.000000	0.842385
2590.000000	0.842414
2589.000000	0.842448
2588.000000	0.842482
2587.000000	0.842510
2586.000000	0.842525
2585.000000	0.842531
2584.000000	0.842536
2583.000000	0.842548
2582.000000	0.842567
2581.000000	0.842587
2580.000000	0.842607
2579.000000	0.842631
2578.000000	0.842661
2577.000000	0.842694
2576.000000	0.842722
2575.000000	0.842741
2574.000000	0.842754
2573.000000	0.842770
2572.000000	0.842796
2571.000000	0.842828
2570.000000	0.842857
2569.000000	0.842876
2568.000000	0.842888
2567.000000	0.842901
2566.000000	0.842920
2565.000000	0.842946
2564.000000	0.842976
2563.000000	0.843008
2562.000000	0.843040
2561.000000	0.843070
2560.000000	0.843100
2559.000000	0.843134
2558.000000	0.843173
2557.000000	0.843209
2556.000000	0.843235
2555.000000	0.843252
2554.000000	0.843270
2553.000000	0.843297
2552.000000	0.843333
2551.000000	0.843370
2550.000000	0.843401
2549.000000	0.843423
2548.000000	0.843440
2547.000000	0.843456
2546.000000	0.843479
2545.000000	0.843509
2544.000000	0.843539
2543.000000	0.843566
2542.000000	0.843590
2541.000000	0.843617
2540.000000	0.843652
2539.000000	0.843694
2538.000000	0.843733
2537.000000	0.843764
2536.000000	0.843781
2535.000000	0.843792
2534.000000	0.843803
2533.000000	0.843816
2532.000000	0.843829
2531.000000	0.843838
2530.000000	0.843849
2529.000000	0.843868
2528.000000	0.843905
2527.000000	0.843957
2526.000000	0.844015
2525.000000	0.844067
2524.000000	0.844105
2523.000000	0.844135
2522.000000	0.844161
2521.000000	0.844185
2520.000000	0.844202
2519.000000	0.844212
2518.000000	0.844222
2517.000000	0.844239
2516.000000	0.844261
2515.000000	0.844281
2514.000000	0.844298
2513.000000	0.844315
2512.000000	0.844339
2511.000000	0.844373
2510.000000	0.844416
2509.000000	0.844459
2508.000000	0.844496
2507.000000	0.844521
2506.000000	0.844541
2505.000000	0.844564
2504.000000	0.844595
2503.000000	0.844632
2502.000000	0.844667
2501.000000	0.844697
2500.000000	0.844722
2499.000000	0.844747
2498.000000	0.844773
2497.000000	0.844799
2496.000000	0.844822
2495.000000	0.844837
2494.000000	0.844847
2493.000000	0.844862
2492.000000	0.844889
2491.000000	0.844929
2490.000000	0.844973
2489.000000	0.845008
2488.000000	0.845025
2487.000000	0.845035
2486.000000	0.845051
2485.000000	0.845083
2484.000000	0.845126
2483.000000	0.845167
2482.000000	0.845200
2481.000000	0.845224
2480.000000	0.845242
2479.000000	0.845262
2478.000000	0.845288
2477.000000	0.845320
2476.000000	0.845349
2475.000000	0.845370
2474.000000	0.845389
2473.000000	0.845415
2472.000000	0.845448
2471.000000	0.845484
2470.000000	0.845517
2469.000000	0.845545
2468.000000	0.845573
2467.000000	0.845609
2466.000000	0.845651
2465.000000	0.845693
2464.000000	0.845729
2463.000000	0.845759
2462.000000	0.845789
2461.000000	0.845825
2460.000000	0.845861
2459.000000	0.845892
2458.000000	0.845912
2457.000000	0.845923
2456.000000	0.845925
2455.000000	0.845924
2454.000000	0.845927
2453.000000	0.845938
2452.000000	0.845952
2451.000000	0.845966
2450.000000	0.845981
2449.000000	0.846001
2448.000000	0.846023
2447.000000	0.846036
2446.000000	0.846039
2445.000000	0.846039
2444.000000	0.846041
2443.000000	0.846043
2442.000000	0.846043
2441.000000	0.846046
2440.000000	0.846057
2439.000000	0.846076
2438.000000	0.846090
2437.000000	0.846089
2436.000000	0.846077
2435.000000	0.846062
2434.000000	0.846053
2433.000000	0.846051
2432.000000	0.846054
2431.000000	0.846058
2430.000000	0.846059
2429.000000	0.846056
2428.000000	0.846045
2427.000000	0.846030
2426.000000	0.846016
2425.000000	0.846009
2424.000000	0.846006
2423.000000	0.845999
2422.000000	0.845982
2421.000000	0.845957
2420.000000	0.845930
2419.000000	0.845908
2418.000000	0.845892
2417.000000	0.845884
2416.000000	0.845878
2415.000000	0.845871
2414.000000	0.845859
2413.000000	0.845843
2412.000000	0.845827
2411.000000	0.845809
2410.000000	0.845787
2409.000000	0.845764
2408.000000	0.845744
2407.000000	0.845731
2406.000000	0.845717
2405.000000	0.845694
2404.000000	0.845661
2403.000000	0.845627
2402.000000	0.845608
2401.000000	0.845610
2400.000000	0.845625
2399.000000	0.845640
2398.000000	0.845644
2397.000000	0.845639
2396.000000	0.845629
2395.000000	0.845615
2394.000000	0.845595
2393.000000	0.845570
2392.000000	0.845548
2391.000000	0.845538
2390.000000	0.845536
2389.000000	0.845531
2388.000000	0.845516
2387.000000	0.845499
2386.000000	0.845494
2385.000000	0.845503
2384.000000	0.845516
2383.000000	0.845523
2382.000000	0.845522
2381.000000	0.845521
2380.000000	0.845523
2379.000000	0.845531
2378.000000	0.845543
2377.000000	0.845556
2376.000000	0.845562
2375.000000	0.845558
2374.000000	0.845546
2373.000000	0.845542
2372.000000	0.845554
2371.000000	0.845579
2370.000000	0.845610
2369.000000	0.845641
2368.000000	0.845675
2367.000000	0.845708
2366.000000	0.845732
2365.000000	0.845738
2364.000000	0.845728
2363.000000	0.845714
2362.000000	0.845706
2361.000000	0.845708
2360.000000	0.845715
2359.000000	0.845718
2358.000000	0.845708
2357.000000	0.845684
2356.000000	0.845656
2355.000000	0.845634
2354.000000	0.845620
2353.000000	0.845614
2352.000000	0.845622
2351.000000	0.845660
2350.000000	0.845741
2349.000000	0.845871
2348.000000	0.846055
2347.000000	0.846303
2346.000000	0.846634
2345.000000	0.847065
2344.000000	0.847594
2343.000000	0.848196
2342.000000	0.848813
2341.000000	0.849350
2340.000000	0.849693
2339.000000	0.849754
2338.000000	0.849529
2337.000000	0.849101
2336.000000	0.848597
2335.000000	0.848130
2334.000000	0.847759
2333.000000	0.847489
2332.000000	0.847294
2331.000000	0.847146
2330.000000	0.847032
2329.000000	0.846950
2328.000000	0.846898
2327.000000	0.846862
2326.000000	0.846829
2325.000000	0.846794
2324.000000	0.846766
2323.000000	0.846751
2322.000000	0.846750
2321.000000	0.846753
2320.000000	0.846753
2319.000000	0.846753
2318.000000	0.846758
2317.000000	0.846770
2316.000000	0.846786
2315.000000	0.846797
2314.000000	0.846803
2313.000000	0.846808
2312.000000	0.846817
2311.000000	0.846831
2310.000000	0.846845
2309.000000	0.846858
2308.000000	0.846873
2307.000000	0.846893
2306.000000	0.846913
2305.000000	0.846925
2304.000000	0.846928
2303.000000	0.846925
2302.000000	0.846923
2301.000000	0.846922
2300.000000	0.846922
2299.000000	0.846925
2298.000000	0.846933
2297.000000	0.846945
2296.000000	0.846961
2295.000000	0.846981
2294.000000	0.847001
2293.000000	0.847019
2292.000000	0.847032
2291.000000	0.847042
2290.000000	0.847055
2289.000000	0.847073
2288.000000	0.847099
2287.000000	0.847127
2286.000000	0.847151
2285.000000	0.847168
2284.000000	0.847182
2283.000000	0.847196
2282.000000	0.847212
2281.000000	0.847234
2280.000000	0.847265
2279.000000	0.847312
2278.000000	0.847371
2277.000000	0.847428
2276.000000	0.847464
2275.000000	0.847477
2274.000000	0.847482
2273.000000	0.847491
2272.000000	0.847505
2271.000000	0.847511
2270.000000	0.847504
2269.000000	0.847492
2268.000000	0.847487
2267.000000	0.847497
2266.000000	0.847519
2265.000000	0.847547
2264.000000	0.847572
2263.000000	0.847587
2262.000000	0.847593
2261.000000	0.847601
2260.000000	0.847624
2259.000000	0.847658
2258.000000	0.847687
2257.000000	0.847695
2256.000000	0.847685
2255.000000	0.847675
2254.000000	0.847678
2253.000000	0.847697
2252.000000	0.847723
2251.000000	0.847749
2250.000000	0.847770
2249.000000	0.847784
2248.000000	0.847789
2247.000000	0.847787
2246.000000	0.847783
2245.000000	0.847784
2244.000000	0.847794
2243.000000	0.847813
2242.000000	0.847835
2241.000000	0.847856
2240.000000	0.847869
2239.000000	0.847875
2238.000000	0.847877
2237.000000	0.847879
2236.000000	0.847885
2235.000000	0.847893
2234.000000	0.847901
2233.000000	0.847905
2232.000000	0.847905
2231.000000	0.847902
2230.000000	0.847903
2229.000000	0.847910
2228.000000	0.847922
2227.000000	0.847933
2226.000000	0.847942
2225.000000	0.847943
2224.000000	0.847939
2223.000000	0.847932
2222.000000	0.847929
2221.000000	0.847935
2220.000000	0.847947
2219.000000	0.847956
2218.000000	0.847964
2217.000000	0.847973
2216.000000	0.847982
2215.000000	0.847983
2214.000000	0.847971
2213.000000	0.847950
2212.000000	0.847926
2211.000000	0.847905
2210.000000	0.847895
2209.000000	0.847901
2208.000000	0.847922
2207.000000	0.847942
2206.000000	0.847946
2205.000000	0.847932
2204.000000	0.847912
2203.000000	0.847896
2202.000000	0.847884
2201.000000	0.847870
2200.000000	0.847856
2199.000000	0.847845
2198.000000	0.847839
2197.000000	0.847835
2196.000000	0.847831
2195.000000	0.847826
2194.000000	0.847818
2193.000000	0.847801
2192.000000	0.847777
2191.000000	0.847751
2190.000000	0.847730
2189.000000	0.847715
2188.000000	0.847705
2187.000000	0.847698
2186.000000	0.847693
2185.000000	0.847685
2184.000000	0.847675
2183.000000	0.847663
2182.000000	0.847653
2181.000000	0.847646
2180.000000	0.847640
2179.000000	0.847635
2178.000000	0.847627
2177.000000	0.847613
2176.000000	0.847588
2175.000000	0.847554
2174.000000	0.847518
2173.000000	0.847488
2172.000000	0.847467
2171.000000	0.847450
2170.000000	0.847431
2169.000000	0.847406
2168.000000	0.847382
2167.000000	0.847364
2166.000000	0.847353
2165.000000	0.847342
2164.000000	0.847329
2163.000000	0.847313
2162.000000	0.847292
2161.000000	0.847265
2160.000000	0.847233
2159.000000	0.847200
2158.000000	0.847169
2157.000000	0.847136
2156.000000	0.847096
2155.000000	0.847056
2154.000000	0.847028
2153.000000	0.847014
2152.000000	0.847005
2151.000000	0.846992
2150.000000	0.846974
2149.000000	0.846954
2148.000000	0.846931
2147.000000	0.846899
2146.000000	0.846859
2145.000000	0.846820
2144.000000	0.846792
2143.000000	0.846777
2142.000000	0.846767
2141.000000	0.846747
2140.000000	0.846715
2139.000000	0.846679
2138.000000	0.846647
2137.000000	0.846617
2136.000000	0.846577
2135.000000	0.846527
2134.000000	0.846479
2133.000000	0.846443
2132.000000	0.846418
2131.000000	0.846395
2130.000000	0.846368
2129.000000	0.846336
2128.000000	0.846295
2127.000000	0.846250
2126.000000	0.846206
2125.000000	0.846173
2124.000000	0.846153
2123.000000	0.846139
2122.000000	0.846122
2121.000000	0.846094
2120.000000	0.846050
2119.000000	0.845996
2118.000000	0.845941
2117.000000	0.845891
2116.000000	0.845850
2115.000000	0.845819
2114.000000	0.845796
2113.000000	0.845777
2112.000000	0.845750
2111.000000	0.845707
2110.000000	0.845654
2109.000000	0.845602
2108.000000	0.845557
2107.000000	0.845518
2106.000000	0.845485
2105.000000	0.845459
2104.000000	0.845436
2103.000000	0.845413
2102.000000	0.845387
2101.000000	0.845359
2100.000000	0.845329
2099.000000	0.845295
2098.000000	0.845253
2097.000000	0.845206
2096.000000	0.845162
2095.000000	0.845125
2094.000000	0.845099
2093.000000	0.845080
2092.000000	0.845061
2091.000000	0.845030
2090.000000	0.844982
2089.000000	0.844921
2088.000000	0.844858
2087.000000	0.844807
2086.000000	0.844776
2085.000000	0.844760
2084.000000	0.844745
2083.000000	0.844719
2082.000000	0.844682
2081.000000	0.844642
2080.000000	0.844604
2079.000000	0.844567
2078.000000	0.844531
2077.000000	0.844494
2076.000000	0.844459
2075.000000	0.844425
2074.000000	0.844388
2073.000000	0.844351
2072.000000	0.844312
2071.000000	0.844272
2070.000000	0.844229
2069.000000	0.844182
2068.000000	0.844133
2067.000000	0.844081
2066.000000	0.844035
2065.000000	0.843999
2064.000000	0.843974
2063.000000	0.843951
2062.000000	0.843921
2061.000000	0.843883
2060.000000	0.843844
2059.000000	0.843809
2058.000000	0.843780
2057.000000	0.843755
2056.000000	0.843723
2055.000000	0.843677
2054.000000	0.843617
2053.000000	0.843553
2052.000000	0.843499
2051.000000	0.843462
2050.000000	0.843436
2049.000000	0.843413
2048.000000	0.843383
2047.000000	0.843343
2046.000000	0.843296
2045.000000	0.843247
2044.000000	0.843198
2043.000000	0.843144
2042.000000	0.843089
2041.000000	0.843044
2040.000000	0.843016
2039.000000	0.842999
2038.000000	0.842978
2037.000000	0.842946
2036.000000	0.842908
2035.000000	0.842871
2034.000000	0.842838
2033.000000	0.842809
2032.000000	0.842786
2031.000000	0.842766
2030.000000	0.842739
2029.000000	0.842697
2028.000000	0.842643
2027.000000	0.842588
2026.000000	0.842542
2025.000000	0.842506
2024.000000	0.842478
2023.000000	0.842450
2022.000000	0.842418
2021.000000	0.842381
2020.000000	0.842344
2019.000000	0.842312
2018.000000	0.842283
2017.000000	0.842253
2016.000000	0.842219
2015.000000	0.842187
2014.000000	0.842158
2013.000000	0.842126
2012.000000	0.842084
2011.000000	0.842034
2010.000000	0.841989
2009.000000	0.841960
2008.000000	0.841948
2007.000000	0.841943
2006.000000	0.841933
2005.000000	0.841909
2004.000000	0.841869
2003.000000	0.841822
2002.000000	0.841776
2001.000000	0.841736
2000.000000	0.841698
1999.000000	0.841659
1998.000000	0.841623
1997.000000	0.841595
1996.000000	0.841576
1995.000000	0.841560
1994.000000	0.841538
1993.000000	0.841508
1992.000000	0.841476
1991.000000	0.841454
1990.000000	0.841439
1989.000000	0.841420
1988.000000	0.841388
1987.000000	0.841352
1986.000000	0.841329
1985.000000	0.841321
1984.000000	0.841314
1983.000000	0.841292
1982.000000	0.841254
1981.000000	0.841213
1980.000000	0.841177
1979.000000	0.841149
1978.000000	0.841128
1977.000000	0.841113
1976.000000	0.841100
1975.000000	0.841086
1974.000000	0.841069
1973.000000	0.841052
1972.000000	0.841033
1971.000000	0.841017
1970.000000	0.841007
1969.000000	0.841001
1968.000000	0.840993
1967.000000	0.840977
1966.000000	0.840957
1965.000000	0.840938
1964.000000	0.840922
1963.000000	0.840905
1962.000000	0.840887
1961.000000	0.840875
1960.000000	0.840868
1959.000000	0.840860
1958.000000	0.840847
1957.000000	0.840830
1956.000000	0.840809
1955.000000	0.840786
1954.000000	0.840767
1953.000000	0.840764
1952.000000	0.840774
1951.000000	0.840782
1950.000000	0.840775
1949.000000	0.840754
1948.000000	0.840731
1947.000000	0.840716
1946.000000	0.840707
1945.000000	0.840698
1944.000000	0.840684
1943.000000	0.840662
1942.000000	0.840640
1941.000000	0.840628
1940.000000	0.840631
1939.000000	0.840640
1938.000000	0.840644
1937.000000	0.840638
1936.000000	0.840628
1935.000000	0.840623
1934.000000	0.840623
1933.000000	0.840625
1932.000000	0.840624
1931.000000	0.840616
1930.000000	0.840604
1929.000000	0.840595
1928.000000	0.840589
1927.000000	0.840582
1926.000000	0.840569
1925.000000	0.840551
1924.000000	0.840537
1923.000000	0.840536
1922.000000	0.840548
1921.000000	0.840565
1920.000000	0.840571
1919.000000	0.840559
1918.000000	0.840542
1917.000000	0.840539
1916.000000	0.840562
1915.000000	0.840599
1914.000000	0.840631
1913.000000	0.840647
1912.000000	0.840648
1911.000000	0.840639
1910.000000	0.840628
1909.000000	0.840627
1908.000000	0.840643
1907.000000	0.840667
1906.000000	0.840682
1905.000000	0.840680
1904.000000	0.840670
1903.000000	0.840667
1902.000000	0.840674
1901.000000	0.840683
1900.000000	0.840690
1899.000000	0.840691
1898.000000	0.840690
1897.000000	0.840689
1896.000000	0.840691
1895.000000	0.840704
1894.000000	0.840724
1893.000000	0.840735
1892.000000	0.840725
1891.000000	0.840700
1890.000000	0.840680
1889.000000	0.840686
1888.000000	0.840715
1887.000000	0.840748
1886.000000	0.840770
1885.000000	0.840774
1884.000000	0.840769
1883.000000	0.840766
1882.000000	0.840771
1881.000000	0.840787
1880.000000	0.840807
1879.000000	0.840821
1878.000000	0.840825
1877.000000	0.840822
1876.000000	0.840822
1875.000000	0.840834
1874.000000	0.840857
1873.000000	0.840881
1872.000000	0.840887
1871.000000	0.840868
1870.000000	0.840834
1869.000000	0.840805
1868.000000	0.840796
1867.000000	0.840811
1866.000000	0.840839
1865.000000	0.840874
1864.000000	0.840910
1863.000000	0.840947
1862.000000	0.840982
1861.000000	0.841009
1860.000000	0.841023
1859.000000	0.841026
1858.000000	0.841026
1857.000000	0.841034
1856.000000	0.841055
1855.000000	0.841084
1854.000000	0.841109
1853.000000	0.841124
1852.000000	0.841128
1851.000000	0.841128
1850.000000	0.841130
1849.000000	0.841137
1848.000000	0.841139
1847.000000	0.841123
1846.000000	0.841089
1845.000000	0.841053
1844.000000	0.841047
1843.000000	0.841086
1842.000000	0.841155
1841.000000	0.841218
1840.000000	0.841251
1839.000000	0.841257
1838.000000	0.841258
1837.000000	0.841270
1836.000000	0.841291
1835.000000	0.841313
1834.000000	0.841335
1833.000000	0.841351
1832.000000	0.841352
1831.000000	0.841338
1830.000000	0.841328
1829.000000	0.841339
1828.000000	0.841369
1827.000000	0.841399
1826.000000	0.841424
1825.000000	0.841458
1824.000000	0.841515
1823.000000	0.841592
1822.000000	0.841669
1821.000000	0.841733
1820.000000	0.841782
1819.000000	0.841817
1818.000000	0.841845
1817.000000	0.841873
1816.000000	0.841904
1815.000000	0.841931
1814.000000	0.841947
1813.000000	0.841951
1812.000000	0.841954
1811.000000	0.841966
1810.000000	0.841997
1809.000000	0.842043
1808.000000	0.842093
1807.000000	0.842137
1806.000000	0.842169
1805.000000	0.842192
1804.000000	0.842206
1803.000000	0.842211
1802.000000	0.842210
1801.000000	0.842211
1800.000000	0.842220
1799.000000	0.842237
1798.000000	0.842258
1797.000000	0.842284
1796.000000	0.842307
1795.000000	0.842319
1794.000000	0.842317
1793.000000	0.842316
1792.000000	0.842339
1791.000000	0.842399
1790.000000	0.842485
1789.000000	0.842569
1788.000000	0.842624
1787.000000	0.842642
1786.000000	0.842639
1785.000000	0.842640
1784.000000	0.842659
1783.000000	0.842692
1782.000000	0.842730
1781.000000	0.842776
1780.000000	0.842835
1779.000000	0.842907
1778.000000	0.842974
1777.000000	0.843017
1776.000000	0.843025
1775.000000	0.843007
1774.000000	0.842980
1773.000000	0.842970
1772.000000	0.842991
1771.000000	0.843039
1770.000000	0.843102
1769.000000	0.843175
1768.000000	0.843259
1767.000000	0.843352
1766.000000	0.843443
1765.000000	0.843513
1764.000000	0.843553
1763.000000	0.843572
1762.000000	0.843596
1761.000000	0.843642
1760.000000	0.843704
1759.000000	0.843760
1758.000000	0.843794
1757.000000	0.843821
1756.000000	0.843864
1755.000000	0.843925
1754.000000	0.843977
1753.000000	0.843993
1752.000000	0.843983
1751.000000	0.843986
1750.000000	0.844033
1749.000000	0.844118
1748.000000	0.844212
1747.000000	0.844292
1746.000000	0.844353
1745.000000	0.844405
1744.000000	0.844455
1743.000000	0.844499
1742.000000	0.844534
1741.000000	0.844563
1740.000000	0.844600
1739.000000	0.844652
1738.000000	0.844705
1737.000000	0.844723
1736.000000	0.844687
1735.000000	0.844629
1734.000000	0.844617
1733.000000	0.844701
1732.000000	0.844862
1731.000000	0.845036
1730.000000	0.845173
1729.000000	0.845269
1728.000000	0.845343
1727.000000	0.845408
1726.000000	0.845463
1725.000000	0.845506
1724.000000	0.845542
1723.000000	0.845577
1722.000000	0.845607
1721.000000	0.845617
1720.000000	0.845589
1719.000000	0.845530
1718.000000	0.845480
1717.000000	0.845483
1716.000000	0.845556
1715.000000	0.845677
1714.000000	0.845811
1713.000000	0.845937
1712.000000	0.846047
1711.000000	0.846133
1710.000000	0.846191
1709.000000	0.846217
1708.000000	0.846213
1707.000000	0.846191
1706.000000	0.846179
1705.000000	0.846202
1704.000000	0.846244
1703.000000	0.846248
1702.000000	0.846184
1701.000000	0.846098
1700.000000	0.846069
1699.000000	0.846120
1698.000000	0.846194
1697.000000	0.846235
1696.000000	0.846263
1695.000000	0.846340
1694.000000	0.846484
1693.000000	0.846643
1692.000000	0.846752
1691.000000	0.846803
1690.000000	0.846828
1689.000000	0.846847
1688.000000	0.846837
1687.000000	0.846763
1686.000000	0.846640
1685.000000	0.846542
1684.000000	0.846548
1683.000000	0.846672
1682.000000	0.846854
1681.000000	0.847018
1680.000000	0.847127
1679.000000	0.847179
1678.000000	0.847183
1677.000000	0.847145
1676.000000	0.847093
1675.000000	0.847073
1674.000000	0.847111
1673.000000	0.847182
1672.000000	0.847234
1671.000000	0.847239
1670.000000	0.847224
1669.000000	0.847236
1668.000000	0.847300
1667.000000	0.847394
1666.000000	0.847476
1665.000000	0.847513
1664.000000	0.847509
1663.000000	0.847499
1662.000000	0.847515
1661.000000	0.847566
1660.000000	0.847630
1659.000000	0.847679
1658.000000	0.847698
1657.000000	0.847667
1656.000000	0.847557
1655.000000	0.847359
1654.000000	0.847137
1653.000000	0.847018
1652.000000	0.847093
1651.000000	0.847321
1650.000000	0.847560
1649.000000	0.847688
1648.000000	0.847692
1647.000000	0.847651
1646.000000	0.847654
1645.000000	0.847728
1644.000000	0.847840
1643.000000	0.847940
1642.000000	0.848001
1641.000000	0.848029
1640.000000	0.848032
1639.000000	0.848006
1638.000000	0.847936
1637.000000	0.847835
1636.000000	0.847753
1635.000000	0.847745
1634.000000	0.847822
1633.000000	0.847938
1632.000000	0.848033
1631.000000	0.848077
1630.000000	0.848080
1629.000000	0.848070
1628.000000	0.848064
1627.000000	0.848061
1626.000000	0.848051
1625.000000	0.848028
1624.000000	0.848000
1623.000000	0.847980
1622.000000	0.847972
1621.000000	0.847963
1620.000000	0.847929
1619.000000	0.847860
1618.000000	0.847783
1617.000000	0.847753
1616.000000	0.847812
1615.000000	0.847951
1614.000000	0.848114
1613.000000	0.848242
1612.000000	0.848315
1611.000000	0.848345
1610.000000	0.848353
1609.000000	0.848349
1608.000000	0.848341
1607.000000	0.848338
1606.000000	0.848349
1605.000000	0.848372
1604.000000	0.848397
1603.000000	0.848414
1602.000000	0.848422
1601.000000	0.848428
1600.000000	0.848439
1599.000000	0.848454
1598.000000	0.848463
1597.000000	0.848461
1596.000000	0.848453
1595.000000	0.848453
1594.000000	0.848471
1593.000000	0.848503
1592.000000	0.848535
1591.000000	0.848556
1590.000000	0.848565
1589.000000	0.848573
1588.000000	0.848589
1587.000000	0.848614
1586.000000	0.848641
1585.000000	0.848660
1584.000000	0.848671
1583.000000	0.848677
1582.000000	0.848684
1581.000000	0.848691
1580.000000	0.848685
1579.000000	0.848643
1578.000000	0.848553
1577.000000	0.848444
1576.000000	0.848378
1575.000000	0.848399
1574.000000	0.848485
1573.000000	0.848564
1572.000000	0.848585
1571.000000	0.848563
1570.000000	0.848550
1569.000000	0.848577
1568.000000	0.848635
1567.000000	0.848695
1566.000000	0.848736
1565.000000	0.848750
1564.000000	0.848742
1563.000000	0.848701
1562.000000	0.848605
1561.000000	0.848438
1560.000000	0.848244
1559.000000	0.848122
1558.000000	0.848151
1557.000000	0.848306
1556.000000	0.848491
1555.000000	0.848634
1554.000000	0.848732
1553.000000	0.848811
1552.000000	0.848869
1551.000000	0.848892
1550.000000	0.848885
1549.000000	0.848871
1548.000000	0.848859
1547.000000	0.848837
1546.000000	0.848798
1545.000000	0.848746
1544.000000	0.848685
1543.000000	0.848607
1542.000000	0.848510
1541.000000	0.848419
1540.000000	0.848380
1539.000000	0.848433
1538.000000	0.848578
1537.000000	0.848750
1536.000000	0.848870
1535.000000	0.848903
1534.000000	0.848893
1533.000000	0.848902
1532.000000	0.848952
1531.000000	0.849013
1530.000000	0.849049
1529.000000	0.849046
1528.000000	0.849009
1527.000000	0.848958
1526.000000	0.848917
1525.000000	0.848894
1524.000000	0.848863
1523.000000	0.848795
1522.000000	0.848708
1521.000000	0.848667
1520.000000	0.848710
1519.000000	0.848808
1518.000000	0.848907
1517.000000	0.848978
1516.000000	0.849022
1515.000000	0.849044
1514.000000	0.849046
1513.000000	0.849039
1512.000000	0.849037
1511.000000	0.849028
1510.000000	0.848981
1509.000000	0.848871
1508.000000	0.848722
1507.000000	0.848601
1506.000000	0.848580
1505.000000	0.848687
1504.000000	0.848881
1503.000000	0.849084
1502.000000	0.849236
1501.000000	0.849322
1500.000000	0.849352
