PE IR       SUBTECH     SPECTRUM    ASCII       PEDS        4.00        
   -1
TE108B2_009.ASC
20/02/27
13:50:57.00
20/02/27
13:50:57.00
Administrator
Sample 009 By Administrator Date Thursday, February 27 2020
1500.000000
#HDR
-1
-1
#GR
cm-1
A
1.0
0.0
4000.000000
-1.000000
2501
8
0.848521
0.813109
#DATA
4000.000000	0.820007
3999.000000	0.820027
3998.000000	0.820038
3997.000000	0.820031
3996.000000	0.820008
3995.000000	0.819977
3994.000000	0.819942
3993.000000	0.819905
3992.000000	0.819871
3991.000000	0.819851
3990.000000	0.819850
3989.000000	0.819864
3988.000000	0.819883
3987.000000	0.819892
3986.000000	0.819884
3985.000000	0.819864
3984.000000	0.819844
3983.000000	0.819832
3982.000000	0.819828
3981.000000	0.819830
3980.000000	0.819836
3979.000000	0.819843
3978.000000	0.819844
3977.000000	0.819827
3976.000000	0.819792
3975.000000	0.819746
3974.000000	0.819701
3973.000000	0.819665
3972.000000	0.819644
3971.000000	0.819640
3970.000000	0.819642
3969.000000	0.819635
3968.000000	0.819606
3967.000000	0.819557
3966.000000	0.819503
3965.000000	0.819459
3964.000000	0.819432
3963.000000	0.819416
3962.000000	0.819399
3961.000000	0.819375
3960.000000	0.819354
3959.000000	0.819345
3958.000000	0.819349
3957.000000	0.819347
3956.000000	0.819321
3955.000000	0.819266
3954.000000	0.819195
3953.000000	0.819135
3952.000000	0.819109
3951.000000	0.819121
3950.000000	0.819149
3949.000000	0.819160
3948.000000	0.819128
3947.000000	0.819049
3946.000000	0.818936
3945.000000	0.818817
3944.000000	0.818720
3943.000000	0.818665
3942.000000	0.818649
3941.000000	0.818653
3940.000000	0.818654
3939.000000	0.818636
3938.000000	0.818596
3937.000000	0.818542
3936.000000	0.818488
3935.000000	0.818439
3934.000000	0.818394
3933.000000	0.818350
3932.000000	0.818307
3931.000000	0.818269
3930.000000	0.818235
3929.000000	0.818200
3928.000000	0.818163
3927.000000	0.818130
3926.000000	0.818102
3925.000000	0.818068
3924.000000	0.818013
3923.000000	0.817937
3922.000000	0.817857
3921.000000	0.817793
3920.000000	0.817756
3919.000000	0.817744
3918.000000	0.817743
3917.000000	0.817742
3916.000000	0.817729
3915.000000	0.817699
3914.000000	0.817650
3913.000000	0.817581
3912.000000	0.817490
3911.000000	0.817389
3910.000000	0.817293
3909.000000	0.817225
3908.000000	0.817198
3907.000000	0.817213
3906.000000	0.817247
3905.000000	0.817270
3904.000000	0.817258
3903.000000	0.817211
3902.000000	0.817148
3901.000000	0.817094
3900.000000	0.817059
3899.000000	0.817035
3898.000000	0.817008
3897.000000	0.816968
3896.000000	0.816916
3895.000000	0.816867
3894.000000	0.816835
3893.000000	0.816816
3892.000000	0.816797
3891.000000	0.816762
3890.000000	0.816714
3889.000000	0.816663
3888.000000	0.816614
3887.000000	0.816565
3886.000000	0.816514
3885.000000	0.816462
3884.000000	0.816415
3883.000000	0.816374
3882.000000	0.816337
3881.000000	0.816295
3880.000000	0.816246
3879.000000	0.816198
3878.000000	0.816161
3877.000000	0.816138
3876.000000	0.816119
3875.000000	0.816088
3874.000000	0.816040
3873.000000	0.815984
3872.000000	0.815944
3871.000000	0.815928
3870.000000	0.815925
3869.000000	0.815911
3868.000000	0.815873
3867.000000	0.815813
3866.000000	0.815737
3865.000000	0.815653
3864.000000	0.815578
3863.000000	0.815521
3862.000000	0.815474
3861.000000	0.815425
3860.000000	0.815369
3859.000000	0.815320
3858.000000	0.815295
3857.000000	0.815304
3856.000000	0.815341
3855.000000	0.815390
3854.000000	0.815419
3853.000000	0.815396
3852.000000	0.815329
3851.000000	0.815262
3850.000000	0.815215
3849.000000	0.815173
3848.000000	0.815126
3847.000000	0.815074
3846.000000	0.815016
3845.000000	0.814952
3844.000000	0.814896
3843.000000	0.814865
3842.000000	0.814858
3841.000000	0.814853
3840.000000	0.814827
3839.000000	0.814774
3838.000000	0.814713
3837.000000	0.814672
3836.000000	0.814655
3835.000000	0.814651
3834.000000	0.814642
3833.000000	0.814619
3832.000000	0.814581
3831.000000	0.814530
3830.000000	0.814473
3829.000000	0.814421
3828.000000	0.814375
3827.000000	0.814330
3826.000000	0.814281
3825.000000	0.814234
3824.000000	0.814198
3823.000000	0.814175
3822.000000	0.814157
3821.000000	0.814136
3820.000000	0.814118
3819.000000	0.814120
3818.000000	0.814140
3817.000000	0.814151
3816.000000	0.814138
3815.000000	0.814115
3814.000000	0.814103
3813.000000	0.814100
3812.000000	0.814083
3811.000000	0.814038
3810.000000	0.813983
3809.000000	0.813942
3808.000000	0.813921
3807.000000	0.813909
3806.000000	0.813897
3805.000000	0.813891
3804.000000	0.813893
3803.000000	0.813885
3802.000000	0.813850
3801.000000	0.813790
3800.000000	0.813733
3799.000000	0.813710
3798.000000	0.813715
3797.000000	0.813717
3796.000000	0.813706
3795.000000	0.813689
3794.000000	0.813674
3793.000000	0.813658
3792.000000	0.813636
3791.000000	0.813616
3790.000000	0.813614
3789.000000	0.813632
3788.000000	0.813657
3787.000000	0.813673
3786.000000	0.813677
3785.000000	0.813674
3784.000000	0.813667
3783.000000	0.813654
3782.000000	0.813624
3781.000000	0.813567
3780.000000	0.813485
3779.000000	0.813401
3778.000000	0.813349
3777.000000	0.813352
3776.000000	0.813401
3775.000000	0.813455
3774.000000	0.813475
3773.000000	0.813455
3772.000000	0.813416
3771.000000	0.813383
3770.000000	0.813362
3769.000000	0.813349
3768.000000	0.813335
3767.000000	0.813311
3766.000000	0.813275
3765.000000	0.813235
3764.000000	0.813217
3763.000000	0.813240
3762.000000	0.813290
3761.000000	0.813324
3760.000000	0.813302
3759.000000	0.813230
3758.000000	0.813151
3757.000000	0.813109
3756.000000	0.813113
3755.000000	0.813140
3754.000000	0.813166
3753.000000	0.813181
3752.000000	0.813195
3751.000000	0.813220
3750.000000	0.813264
3749.000000	0.813327
3748.000000	0.813391
3747.000000	0.813433
3746.000000	0.813435
3745.000000	0.813410
3744.000000	0.813382
3743.000000	0.813371
3742.000000	0.813384
3741.000000	0.813396
3740.000000	0.813376
3739.000000	0.813337
3738.000000	0.813306
3737.000000	0.813294
3736.000000	0.813288
3735.000000	0.813273
3734.000000	0.813248
3733.000000	0.813216
3732.000000	0.813189
3731.000000	0.813184
3730.000000	0.813221
3729.000000	0.813293
3728.000000	0.813365
3727.000000	0.813402
3726.000000	0.813390
3725.000000	0.813341
3724.000000	0.813273
3723.000000	0.813207
3722.000000	0.813160
3721.000000	0.813147
3720.000000	0.813172
3719.000000	0.813213
3718.000000	0.813243
3717.000000	0.813254
3716.000000	0.813265
3715.000000	0.813295
3714.000000	0.813354
3713.000000	0.813439
3712.000000	0.813561
3711.000000	0.813737
3710.000000	0.813968
3709.000000	0.814213
3708.000000	0.814401
3707.000000	0.814483
3706.000000	0.814468
3705.000000	0.814412
3704.000000	0.814368
3703.000000	0.814358
3702.000000	0.814371
3701.000000	0.814401
3700.000000	0.814462
3699.000000	0.814574
3698.000000	0.814738
3697.000000	0.814926
3696.000000	0.815091
3695.000000	0.815205
3694.000000	0.815268
3693.000000	0.815300
3692.000000	0.815320
3691.000000	0.815332
3690.000000	0.815333
3689.000000	0.815334
3688.000000	0.815363
3687.000000	0.815444
3686.000000	0.815559
3685.000000	0.815661
3684.000000	0.815712
3683.000000	0.815729
3682.000000	0.815757
3681.000000	0.815832
3680.000000	0.815954
3679.000000	0.816103
3678.000000	0.816263
3677.000000	0.816417
3676.000000	0.816547
3675.000000	0.816638
3674.000000	0.816710
3673.000000	0.816813
3672.000000	0.816969
3671.000000	0.817156
3670.000000	0.817335
3669.000000	0.817482
3668.000000	0.817607
3667.000000	0.817735
3666.000000	0.817875
3665.000000	0.818016
3664.000000	0.818148
3663.000000	0.818268
3662.000000	0.818375
3661.000000	0.818468
3660.000000	0.818555
3659.000000	0.818656
3658.000000	0.818787
3657.000000	0.818944
3656.000000	0.819100
3655.000000	0.819230
3654.000000	0.819343
3653.000000	0.819461
3652.000000	0.819595
3651.000000	0.819737
3650.000000	0.819864
3649.000000	0.819957
3648.000000	0.820018
3647.000000	0.820068
3646.000000	0.820129
3645.000000	0.820219
3644.000000	0.820342
3643.000000	0.820485
3642.000000	0.820628
3641.000000	0.820763
3640.000000	0.820885
3639.000000	0.820991
3638.000000	0.821087
3637.000000	0.821186
3636.000000	0.821301
3635.000000	0.821422
3634.000000	0.821532
3633.000000	0.821625
3632.000000	0.821722
3631.000000	0.821845
3630.000000	0.821988
3629.000000	0.822120
3628.000000	0.822220
3627.000000	0.822299
3626.000000	0.822372
3625.000000	0.822434
3624.000000	0.822473
3623.000000	0.822498
3622.000000	0.822523
3621.000000	0.822549
3620.000000	0.822575
3619.000000	0.822601
3618.000000	0.822639
3617.000000	0.822697
3616.000000	0.822774
3615.000000	0.822856
3614.000000	0.822938
3613.000000	0.823029
3612.000000	0.823141
3611.000000	0.823272
3610.000000	0.823400
3609.000000	0.823498
3608.000000	0.823566
3607.000000	0.823636
3606.000000	0.823737
3605.000000	0.823869
3604.000000	0.824010
3603.000000	0.824147
3602.000000	0.824287
3601.000000	0.824432
3600.000000	0.824561
3599.000000	0.824645
3598.000000	0.824675
3597.000000	0.824676
3596.000000	0.824681
3595.000000	0.824707
3594.000000	0.824754
3593.000000	0.824817
3592.000000	0.824895
3591.000000	0.824986
3590.000000	0.825077
3589.000000	0.825142
3588.000000	0.825167
3587.000000	0.825165
3586.000000	0.825170
3585.000000	0.825214
3584.000000	0.825292
3583.000000	0.825374
3582.000000	0.825427
3581.000000	0.825448
3580.000000	0.825464
3579.000000	0.825508
3578.000000	0.825592
3577.000000	0.825691
3576.000000	0.825765
3575.000000	0.825791
3574.000000	0.825778
3573.000000	0.825755
3572.000000	0.825752
3571.000000	0.825779
3570.000000	0.825831
3569.000000	0.825896
3568.000000	0.825966
3567.000000	0.826037
3566.000000	0.826110
3565.000000	0.826192
3564.000000	0.826286
3563.000000	0.826389
3562.000000	0.826490
3561.000000	0.826573
3560.000000	0.826624
3559.000000	0.826642
3558.000000	0.826647
3557.000000	0.826660
3556.000000	0.826691
3555.000000	0.826739
3554.000000	0.826793
3553.000000	0.826846
3552.000000	0.826900
3551.000000	0.826955
3550.000000	0.827006
3549.000000	0.827049
3548.000000	0.827090
3547.000000	0.827142
3546.000000	0.827218
3545.000000	0.827313
3544.000000	0.827409
3543.000000	0.827490
3542.000000	0.827551
3541.000000	0.827600
3540.000000	0.827641
3539.000000	0.827676
3538.000000	0.827706
3537.000000	0.827734
3536.000000	0.827768
3535.000000	0.827815
3534.000000	0.827876
3533.000000	0.827947
3532.000000	0.828021
3531.000000	0.828095
3530.000000	0.828165
3529.000000	0.828231
3528.000000	0.828299
3527.000000	0.828377
3526.000000	0.828464
3525.000000	0.828547
3524.000000	0.828625
3523.000000	0.828714
3522.000000	0.828833
3521.000000	0.828971
3520.000000	0.829086
3519.000000	0.829154
3518.000000	0.829197
3517.000000	0.829260
3516.000000	0.829361
3515.000000	0.829479
3514.000000	0.829584
3513.000000	0.829676
3512.000000	0.829777
3511.000000	0.829901
3510.000000	0.830043
3509.000000	0.830187
3508.000000	0.830322
3507.000000	0.830451
3506.000000	0.830585
3505.000000	0.830725
3504.000000	0.830858
3503.000000	0.830964
3502.000000	0.831038
3501.000000	0.831091
3500.000000	0.831146
3499.000000	0.831220
3498.000000	0.831322
3497.000000	0.831457
3496.000000	0.831620
3495.000000	0.831797
3494.000000	0.831964
3493.000000	0.832103
3492.000000	0.832217
3491.000000	0.832321
3490.000000	0.832428
3489.000000	0.832533
3488.000000	0.832631
3487.000000	0.832727
3486.000000	0.832838
3485.000000	0.832970
3484.000000	0.833109
3483.000000	0.833230
3482.000000	0.833328
3481.000000	0.833423
3480.000000	0.833539
3479.000000	0.833687
3478.000000	0.833855
3477.000000	0.834027
3476.000000	0.834188
3475.000000	0.834335
3474.000000	0.834477
3473.000000	0.834627
3472.000000	0.834782
3471.000000	0.834921
3470.000000	0.835025
3469.000000	0.835110
3468.000000	0.835207
3467.000000	0.835342
3466.000000	0.835504
3465.000000	0.835664
3464.000000	0.835804
3463.000000	0.835934
3462.000000	0.836079
3461.000000	0.836256
3460.000000	0.836450
3459.000000	0.836630
3458.000000	0.836773
3457.000000	0.836880
3456.000000	0.836971
3455.000000	0.837068
3454.000000	0.837186
3453.000000	0.837328
3452.000000	0.837488
3451.000000	0.837645
3450.000000	0.837778
3449.000000	0.837881
3448.000000	0.837963
3447.000000	0.838044
3446.000000	0.838134
3445.000000	0.838236
3444.000000	0.838349
3443.000000	0.838470
3442.000000	0.838597
3441.000000	0.838732
3440.000000	0.838878
3439.000000	0.839029
3438.000000	0.839168
3437.000000	0.839281
3436.000000	0.839369
3435.000000	0.839447
3434.000000	0.839528
3433.000000	0.839619
3432.000000	0.839727
3431.000000	0.839858
3430.000000	0.840007
3429.000000	0.840156
3428.000000	0.840286
3427.000000	0.840390
3426.000000	0.840469
3425.000000	0.840529
3424.000000	0.840576
3423.000000	0.840621
3422.000000	0.840674
3421.000000	0.840742
3420.000000	0.840827
3419.000000	0.840929
3418.000000	0.841052
3417.000000	0.841188
3416.000000	0.841322
3415.000000	0.841433
3414.000000	0.841516
3413.000000	0.841582
3412.000000	0.841649
3411.000000	0.841724
3410.000000	0.841799
3409.000000	0.841863
3408.000000	0.841919
3407.000000	0.841978
3406.000000	0.842048
3405.000000	0.842120
3404.000000	0.842176
3403.000000	0.842209
3402.000000	0.842230
3401.000000	0.842255
3400.000000	0.842292
3399.000000	0.842334
3398.000000	0.842371
3397.000000	0.842398
3396.000000	0.842419
3395.000000	0.842446
3394.000000	0.842484
3393.000000	0.842533
3392.000000	0.842590
3391.000000	0.842661
3390.000000	0.842755
3389.000000	0.842867
3388.000000	0.842974
3387.000000	0.843047
3386.000000	0.843073
3385.000000	0.843064
3384.000000	0.843048
3383.000000	0.843047
3382.000000	0.843067
3381.000000	0.843101
3380.000000	0.843144
3379.000000	0.843198
3378.000000	0.843256
3377.000000	0.843303
3376.000000	0.843326
3375.000000	0.843324
3374.000000	0.843310
3373.000000	0.843293
3372.000000	0.843283
3371.000000	0.843297
3370.000000	0.843348
3369.000000	0.843429
3368.000000	0.843503
3367.000000	0.843543
3366.000000	0.843550
3365.000000	0.843548
3364.000000	0.843552
3363.000000	0.843561
3362.000000	0.843572
3361.000000	0.843588
3360.000000	0.843615
3359.000000	0.843651
3358.000000	0.843693
3357.000000	0.843742
3356.000000	0.843792
3355.000000	0.843833
3354.000000	0.843855
3353.000000	0.843858
3352.000000	0.843854
3351.000000	0.843850
3350.000000	0.843838
3349.000000	0.843809
3348.000000	0.843774
3347.000000	0.843763
3346.000000	0.843799
3345.000000	0.843868
3344.000000	0.843930
3343.000000	0.843958
3342.000000	0.843956
3341.000000	0.843951
3340.000000	0.843961
3339.000000	0.843989
3338.000000	0.844034
3337.000000	0.844090
3336.000000	0.844142
3335.000000	0.844166
3334.000000	0.844149
3333.000000	0.844106
3332.000000	0.844066
3331.000000	0.844054
3330.000000	0.844082
3329.000000	0.844149
3328.000000	0.844241
3327.000000	0.844332
3326.000000	0.844391
3325.000000	0.844406
3324.000000	0.844389
3323.000000	0.844372
3322.000000	0.844381
3321.000000	0.844417
3320.000000	0.844459
3319.000000	0.844487
3318.000000	0.844507
3317.000000	0.844541
3316.000000	0.844604
3315.000000	0.844681
3314.000000	0.844740
3313.000000	0.844769
3312.000000	0.844774
3311.000000	0.844770
3310.000000	0.844757
3309.000000	0.844738
3308.000000	0.844733
3307.000000	0.844764
3306.000000	0.844829
3305.000000	0.844904
3304.000000	0.844969
3303.000000	0.845025
3302.000000	0.845077
3301.000000	0.845113
3300.000000	0.845117
3299.000000	0.845095
3298.000000	0.845074
3297.000000	0.845073
3296.000000	0.845088
3295.000000	0.845104
3294.000000	0.845112
3293.000000	0.845115
3292.000000	0.845126
3291.000000	0.845162
3290.000000	0.845229
3289.000000	0.845312
3288.000000	0.845383
3287.000000	0.845428
3286.000000	0.845456
3285.000000	0.845484
3284.000000	0.845516
3283.000000	0.845544
3282.000000	0.845557
3281.000000	0.845552
3280.000000	0.845533
3279.000000	0.845512
3278.000000	0.845500
3277.000000	0.845502
3276.000000	0.845512
3275.000000	0.845524
3274.000000	0.845545
3273.000000	0.845583
3272.000000	0.845635
3271.000000	0.845685
3270.000000	0.845723
3269.000000	0.845755
3268.000000	0.845794
3267.000000	0.845840
3266.000000	0.845882
3265.000000	0.845907
3264.000000	0.845915
3263.000000	0.845915
3262.000000	0.845912
3261.000000	0.845908
3260.000000	0.845901
3259.000000	0.845893
3258.000000	0.845889
3257.000000	0.845888
3256.000000	0.845889
3255.000000	0.845891
3254.000000	0.845904
3253.000000	0.845933
3252.000000	0.845969
3251.000000	0.845996
3250.000000	0.846005
3249.000000	0.846002
3248.000000	0.846009
3247.000000	0.846044
3246.000000	0.846110
3245.000000	0.846191
3244.000000	0.846258
3243.000000	0.846286
3242.000000	0.846269
3241.000000	0.846227
3240.000000	0.846189
3239.000000	0.846176
3238.000000	0.846189
3237.000000	0.846220
3236.000000	0.846259
3235.000000	0.846302
3234.000000	0.846347
3233.000000	0.846384
3232.000000	0.846404
3231.000000	0.846405
3230.000000	0.846394
3229.000000	0.846384
3228.000000	0.846383
3227.000000	0.846399
3226.000000	0.846438
3225.000000	0.846506
3224.000000	0.846589
3223.000000	0.846665
3222.000000	0.846713
3221.000000	0.846727
3220.000000	0.846711
3219.000000	0.846674
3218.000000	0.846630
3217.000000	0.846598
3216.000000	0.846594
3215.000000	0.846617
3214.000000	0.846651
3213.000000	0.846674
3212.000000	0.846685
3211.000000	0.846696
3210.000000	0.846717
3209.000000	0.846740
3208.000000	0.846741
3207.000000	0.846716
3206.000000	0.846690
3205.000000	0.846695
3204.000000	0.846741
3203.000000	0.846803
3202.000000	0.846854
3201.000000	0.846887
3200.000000	0.846915
3199.000000	0.846949
3198.000000	0.846989
3197.000000	0.847030
3196.000000	0.847065
3195.000000	0.847089
3194.000000	0.847096
3193.000000	0.847090
3192.000000	0.847086
3191.000000	0.847097
3190.000000	0.847121
3189.000000	0.847143
3188.000000	0.847151
3187.000000	0.847151
3186.000000	0.847163
3185.000000	0.847199
3184.000000	0.847246
3183.000000	0.847276
3182.000000	0.847276
3181.000000	0.847255
3180.000000	0.847232
3179.000000	0.847217
3178.000000	0.847204
3177.000000	0.847186
3176.000000	0.847167
3175.000000	0.847163
3174.000000	0.847180
3173.000000	0.847212
3172.000000	0.847242
3171.000000	0.847260
3170.000000	0.847267
3169.000000	0.847269
3168.000000	0.847273
3167.000000	0.847287
3166.000000	0.847317
3165.000000	0.847362
3164.000000	0.847410
3163.000000	0.847445
3162.000000	0.847466
3161.000000	0.847474
3160.000000	0.847480
3159.000000	0.847492
3158.000000	0.847517
3157.000000	0.847547
3156.000000	0.847565
3155.000000	0.847558
3154.000000	0.847538
3153.000000	0.847531
3152.000000	0.847552
3151.000000	0.847587
3150.000000	0.847616
3149.000000	0.847629
3148.000000	0.847638
3147.000000	0.847650
3146.000000	0.847662
3145.000000	0.847659
3144.000000	0.847638
3143.000000	0.847616
3142.000000	0.847617
3141.000000	0.847650
3140.000000	0.847700
3139.000000	0.847742
3138.000000	0.847765
3137.000000	0.847779
3136.000000	0.847800
3135.000000	0.847829
3134.000000	0.847856
3133.000000	0.847871
3132.000000	0.847878
3131.000000	0.847891
3130.000000	0.847921
3129.000000	0.847968
3128.000000	0.848024
3127.000000	0.848079
3126.000000	0.848127
3125.000000	0.848159
3124.000000	0.848167
3123.000000	0.848153
3122.000000	0.848132
3121.000000	0.848124
3120.000000	0.848144
3119.000000	0.848186
3118.000000	0.848229
3117.000000	0.848249
3116.000000	0.848235
3115.000000	0.848207
3114.000000	0.848202
3113.000000	0.848238
3112.000000	0.848298
3111.000000	0.848344
3110.000000	0.848350
3109.000000	0.848323
3108.000000	0.848285
3107.000000	0.848263
3106.000000	0.848271
3105.000000	0.848306
3104.000000	0.848347
3103.000000	0.848365
3102.000000	0.848352
3101.000000	0.848322
3100.000000	0.848305
3099.000000	0.848322
3098.000000	0.848373
3097.000000	0.848438
3096.000000	0.848487
3095.000000	0.848501
3094.000000	0.848486
3093.000000	0.848467
3092.000000	0.848464
3091.000000	0.848482
3090.000000	0.848507
3089.000000	0.848521
3088.000000	0.848510
3087.000000	0.848473
3086.000000	0.848424
3085.000000	0.848386
3084.000000	0.848371
3083.000000	0.848375
3082.000000	0.848383
3081.000000	0.848389
3080.000000	0.848395
3079.000000	0.848399
3078.000000	0.848392
3077.000000	0.848364
3076.000000	0.848323
3075.000000	0.848293
3074.000000	0.848297
3073.000000	0.848335
3072.000000	0.848385
3071.000000	0.848422
3070.000000	0.848431
3069.000000	0.848411
3068.000000	0.848366
3067.000000	0.848310
3066.000000	0.848258
3065.000000	0.848219
3064.000000	0.848193
3063.000000	0.848174
3062.000000	0.848165
3061.000000	0.848171
3060.000000	0.848182
3059.000000	0.848177
3058.000000	0.848152
3057.000000	0.848125
3056.000000	0.848114
3055.000000	0.848121
3054.000000	0.848135
3053.000000	0.848139
3052.000000	0.848126
3051.000000	0.848092
3050.000000	0.848050
3049.000000	0.848017
3048.000000	0.847996
3047.000000	0.847973
3046.000000	0.847934
3045.000000	0.847887
3044.000000	0.847857
3043.000000	0.847858
3042.000000	0.847884
3041.000000	0.847915
3040.000000	0.847936
3039.000000	0.847936
3038.000000	0.847914
3037.000000	0.847879
3036.000000	0.847842
3035.000000	0.847807
3034.000000	0.847770
3033.000000	0.847728
3032.000000	0.847689
3031.000000	0.847665
3030.000000	0.847661
3029.000000	0.847665
3028.000000	0.847659
3027.000000	0.847639
3026.000000	0.847621
3025.000000	0.847618
3024.000000	0.847624
3023.000000	0.847621
3022.000000	0.847600
3021.000000	0.847574
3020.000000	0.847560
3019.000000	0.847560
3018.000000	0.847553
3017.000000	0.847520
3016.000000	0.847461
3015.000000	0.847399
3014.000000	0.847352
3013.000000	0.847318
3012.000000	0.847281
3011.000000	0.847240
3010.000000	0.847213
3009.000000	0.847213
3008.000000	0.847223
3007.000000	0.847212
3006.000000	0.847174
3005.000000	0.847128
3004.000000	0.847085
3003.000000	0.847042
3002.000000	0.846994
3001.000000	0.846954
3000.000000	0.846927
2999.000000	0.846899
2998.000000	0.846853
2997.000000	0.846792
2996.000000	0.846728
2995.000000	0.846664
2994.000000	0.846604
2993.000000	0.846561
2992.000000	0.846551
2991.000000	0.846566
2990.000000	0.846578
2989.000000	0.846565
2988.000000	0.846523
2987.000000	0.846459
2986.000000	0.846383
2985.000000	0.846312
2984.000000	0.846266
2983.000000	0.846257
2982.000000	0.846270
2981.000000	0.846285
2980.000000	0.846290
2979.000000	0.846284
2978.000000	0.846266
2977.000000	0.846234
2976.000000	0.846196
2975.000000	0.846160
2974.000000	0.846132
2973.000000	0.846107
2972.000000	0.846085
2971.000000	0.846072
2970.000000	0.846070
2969.000000	0.846072
2968.000000	0.846063
2967.000000	0.846030
2966.000000	0.845972
2965.000000	0.845900
2964.000000	0.845826
2963.000000	0.845760
2962.000000	0.845702
2961.000000	0.845650
2960.000000	0.845600
2959.000000	0.845551
2958.000000	0.845507
2957.000000	0.845463
2956.000000	0.845405
2955.000000	0.845322
2954.000000	0.845228
2953.000000	0.845154
2952.000000	0.845120
2951.000000	0.845118
2950.000000	0.845125
2949.000000	0.845125
2948.000000	0.845111
2947.000000	0.845076
2946.000000	0.845015
2945.000000	0.844940
2944.000000	0.844872
2943.000000	0.844824
2942.000000	0.844794
2941.000000	0.844767
2940.000000	0.844737
2939.000000	0.844705
2938.000000	0.844675
2937.000000	0.844646
2936.000000	0.844611
2935.000000	0.844565
2934.000000	0.844511
2933.000000	0.844463
2932.000000	0.844426
2931.000000	0.844390
2930.000000	0.844344
2929.000000	0.844295
2928.000000	0.844260
2927.000000	0.844238
2926.000000	0.844212
2925.000000	0.844169
2924.000000	0.844115
2923.000000	0.844054
2922.000000	0.843977
2921.000000	0.843881
2920.000000	0.843788
2919.000000	0.843729
2918.000000	0.843704
2917.000000	0.843682
2916.000000	0.843633
2915.000000	0.843557
2914.000000	0.843475
2913.000000	0.843402
2912.000000	0.843337
2911.000000	0.843272
2910.000000	0.843209
2909.000000	0.843164
2908.000000	0.843145
2907.000000	0.843147
2906.000000	0.843148
2905.000000	0.843130
2904.000000	0.843093
2903.000000	0.843047
2902.000000	0.842999
2901.000000	0.842952
2900.000000	0.842908
2899.000000	0.842868
2898.000000	0.842833
2897.000000	0.842798
2896.000000	0.842757
2895.000000	0.842705
2894.000000	0.842644
2893.000000	0.842577
2892.000000	0.842509
2891.000000	0.842444
2890.000000	0.842378
2889.000000	0.842312
2888.000000	0.842254
2887.000000	0.842213
2886.000000	0.842191
2885.000000	0.842176
2884.000000	0.842156
2883.000000	0.842130
2882.000000	0.842105
2881.000000	0.842084
2880.000000	0.842055
2879.000000	0.842006
2878.000000	0.841945
2877.000000	0.841888
2876.000000	0.841843
2875.000000	0.841802
2874.000000	0.841753
2873.000000	0.841700
2872.000000	0.841654
2871.000000	0.841615
2870.000000	0.841572
2869.000000	0.841519
2868.000000	0.841464
2867.000000	0.841420
2866.000000	0.841393
2865.000000	0.841378
2864.000000	0.841363
2863.000000	0.841330
2862.000000	0.841267
2861.000000	0.841178
2860.000000	0.841085
2859.000000	0.841015
2858.000000	0.840975
2857.000000	0.840951
2856.000000	0.840924
2855.000000	0.840886
2854.000000	0.840842
2853.000000	0.840803
2852.000000	0.840773
2851.000000	0.840744
2850.000000	0.840704
2849.000000	0.840648
2848.000000	0.840584
2847.000000	0.840531
2846.000000	0.840504
2845.000000	0.840500
2844.000000	0.840500
2843.000000	0.840483
2842.000000	0.840446
2841.000000	0.840400
2840.000000	0.840356
2839.000000	0.840312
2838.000000	0.840269
2837.000000	0.840241
2836.000000	0.840244
2835.000000	0.840272
2834.000000	0.840301
2833.000000	0.840305
2832.000000	0.840284
2831.000000	0.840250
2830.000000	0.840209
2829.000000	0.840167
2828.000000	0.840128
2827.000000	0.840097
2826.000000	0.840063
2825.000000	0.840019
2824.000000	0.839967
2823.000000	0.839922
2822.000000	0.839894
2821.000000	0.839876
2820.000000	0.839864
2819.000000	0.839853
2818.000000	0.839844
2817.000000	0.839830
2816.000000	0.839809
2815.000000	0.839781
2814.000000	0.839748
2813.000000	0.839714
2812.000000	0.839682
2811.000000	0.839658
2810.000000	0.839639
2809.000000	0.839615
2808.000000	0.839578
2807.000000	0.839534
2806.000000	0.839493
2805.000000	0.839457
2804.000000	0.839431
2803.000000	0.839416
2802.000000	0.839412
2801.000000	0.839408
2800.000000	0.839391
2799.000000	0.839357
2798.000000	0.839318
2797.000000	0.839287
2796.000000	0.839266
2795.000000	0.839253
2794.000000	0.839241
2793.000000	0.839225
2792.000000	0.839203
2791.000000	0.839173
2790.000000	0.839137
2789.000000	0.839099
2788.000000	0.839064
2787.000000	0.839039
2786.000000	0.839027
2785.000000	0.839024
2784.000000	0.839020
2783.000000	0.839006
2782.000000	0.838986
2781.000000	0.838967
2780.000000	0.838957
2779.000000	0.838949
2778.000000	0.838936
2777.000000	0.838916
2776.000000	0.838894
2775.000000	0.838875
2774.000000	0.838864
2773.000000	0.838859
2772.000000	0.838854
2771.000000	0.838837
2770.000000	0.838801
2769.000000	0.838760
2768.000000	0.838733
2767.000000	0.838733
2766.000000	0.838750
2765.000000	0.838764
2764.000000	0.838764
2763.000000	0.838745
2762.000000	0.838709
2761.000000	0.838666
2760.000000	0.838626
2759.000000	0.838600
2758.000000	0.838585
2757.000000	0.838572
2756.000000	0.838559
2755.000000	0.838552
2754.000000	0.838556
2753.000000	0.838563
2752.000000	0.838564
2751.000000	0.838551
2750.000000	0.838521
2749.000000	0.838484
2748.000000	0.838458
2747.000000	0.838463
2746.000000	0.838496
2745.000000	0.838531
2744.000000	0.838541
2743.000000	0.838521
2742.000000	0.838488
2741.000000	0.838461
2740.000000	0.838444
2739.000000	0.838433
2738.000000	0.838422
2737.000000	0.838410
2736.000000	0.838400
2735.000000	0.838397
2734.000000	0.838399
2733.000000	0.838401
2732.000000	0.838399
2731.000000	0.838393
2730.000000	0.838388
2729.000000	0.838383
2728.000000	0.838377
2727.000000	0.838369
2726.000000	0.838361
2725.000000	0.838350
2724.000000	0.838341
2723.000000	0.838339
2722.000000	0.838351
2721.000000	0.838373
2720.000000	0.838393
2719.000000	0.838402
2718.000000	0.838392
2717.000000	0.838363
2716.000000	0.838314
2715.000000	0.838254
2714.000000	0.838202
2713.000000	0.838176
2712.000000	0.838185
2711.000000	0.838226
2710.000000	0.838282
2709.000000	0.838328
2708.000000	0.838346
2707.000000	0.838333
2706.000000	0.838311
2705.000000	0.838299
2704.000000	0.838303
2703.000000	0.838310
2702.000000	0.838310
2701.000000	0.838308
2700.000000	0.838311
2699.000000	0.838316
2698.000000	0.838313
2697.000000	0.838299
2696.000000	0.838282
2695.000000	0.838283
2694.000000	0.838313
2693.000000	0.838360
2692.000000	0.838394
2691.000000	0.838398
2690.000000	0.838381
2689.000000	0.838368
2688.000000	0.838371
2687.000000	0.838380
2686.000000	0.838385
2685.000000	0.838386
2684.000000	0.838393
2683.000000	0.838398
2682.000000	0.838389
2681.000000	0.838362
2680.000000	0.838336
2679.000000	0.838331
2678.000000	0.838348
2677.000000	0.838373
2676.000000	0.838387
2675.000000	0.838382
2674.000000	0.838357
2673.000000	0.838328
2672.000000	0.838317
2671.000000	0.838334
2670.000000	0.838365
2669.000000	0.838380
2668.000000	0.838371
2667.000000	0.838355
2666.000000	0.838353
2665.000000	0.838362
2664.000000	0.838371
2663.000000	0.838379
2662.000000	0.838397
2661.000000	0.838431
2660.000000	0.838472
2659.000000	0.838509
2658.000000	0.838538
2657.000000	0.838561
2656.000000	0.838580
2655.000000	0.838591
2654.000000	0.838591
2653.000000	0.838583
2652.000000	0.838584
2651.000000	0.838614
2650.000000	0.838674
2649.000000	0.838734
2648.000000	0.838764
2647.000000	0.838759
2646.000000	0.838739
2645.000000	0.838728
2644.000000	0.838736
2643.000000	0.838767
2642.000000	0.838816
2641.000000	0.838868
2640.000000	0.838894
2639.000000	0.838881
2638.000000	0.838844
2637.000000	0.838815
2636.000000	0.838813
2635.000000	0.838834
2634.000000	0.838857
2633.000000	0.838872
2632.000000	0.838879
2631.000000	0.838887
2630.000000	0.838902
2629.000000	0.838917
2628.000000	0.838928
2627.000000	0.838934
2626.000000	0.838946
2625.000000	0.838967
2624.000000	0.838990
2623.000000	0.839004
2622.000000	0.839014
2621.000000	0.839028
2620.000000	0.839051
2619.000000	0.839078
2618.000000	0.839097
2617.000000	0.839102
2616.000000	0.839097
2615.000000	0.839098
2614.000000	0.839125
2613.000000	0.839178
2612.000000	0.839239
2611.000000	0.839286
2610.000000	0.839306
2609.000000	0.839304
2608.000000	0.839290
2607.000000	0.839281
2606.000000	0.839292
2605.000000	0.839328
2604.000000	0.839371
2603.000000	0.839397
2602.000000	0.839394
2601.000000	0.839377
2600.000000	0.839372
2599.000000	0.839386
2598.000000	0.839407
2597.000000	0.839418
2596.000000	0.839420
2595.000000	0.839430
2594.000000	0.839466
2593.000000	0.839533
2592.000000	0.839610
2591.000000	0.839669
2590.000000	0.839692
2589.000000	0.839680
2588.000000	0.839654
2587.000000	0.839636
2586.000000	0.839636
2585.000000	0.839647
2584.000000	0.839655
2583.000000	0.839654
2582.000000	0.839652
2581.000000	0.839659
2580.000000	0.839677
2579.000000	0.839705
2578.000000	0.839738
2577.000000	0.839776
2576.000000	0.839811
2575.000000	0.839833
2574.000000	0.839840
2573.000000	0.839844
2572.000000	0.839867
2571.000000	0.839916
2570.000000	0.839978
2569.000000	0.840031
2568.000000	0.840058
2567.000000	0.840064
2566.000000	0.840066
2565.000000	0.840076
2564.000000	0.840095
2563.000000	0.840114
2562.000000	0.840129
2561.000000	0.840143
2560.000000	0.840160
2559.000000	0.840184
2558.000000	0.840218
2557.000000	0.840259
2556.000000	0.840291
2555.000000	0.840305
2554.000000	0.840309
2553.000000	0.840325
2552.000000	0.840360
2551.000000	0.840396
2550.000000	0.840415
2549.000000	0.840419
2548.000000	0.840422
2547.000000	0.840430
2546.000000	0.840442
2545.000000	0.840459
2544.000000	0.840488
2543.000000	0.840526
2542.000000	0.840562
2541.000000	0.840583
2540.000000	0.840599
2539.000000	0.840623
2538.000000	0.840658
2537.000000	0.840689
2536.000000	0.840699
2535.000000	0.840689
2534.000000	0.840678
2533.000000	0.840687
2532.000000	0.840719
2531.000000	0.840762
2530.000000	0.840800
2529.000000	0.840829
2528.000000	0.840852
2527.000000	0.840876
2526.000000	0.840901
2525.000000	0.840925
2524.000000	0.840944
2523.000000	0.840962
2522.000000	0.840984
2521.000000	0.841007
2520.000000	0.841024
2519.000000	0.841023
2518.000000	0.841007
2517.000000	0.840991
2516.000000	0.840992
2515.000000	0.841015
2514.000000	0.841055
2513.000000	0.841102
2512.000000	0.841151
2511.000000	0.841201
2510.000000	0.841247
2509.000000	0.841277
2508.000000	0.841282
2507.000000	0.841268
2506.000000	0.841257
2505.000000	0.841270
2504.000000	0.841313
2503.000000	0.841366
2502.000000	0.841407
2501.000000	0.841422
2500.000000	0.841422
2499.000000	0.841428
2498.000000	0.841458
2497.000000	0.841512
2496.000000	0.841573
2495.000000	0.841620
2494.000000	0.841640
2493.000000	0.841640
2492.000000	0.841634
2491.000000	0.841642
2490.000000	0.841672
2489.000000	0.841717
2488.000000	0.841758
2487.000000	0.841785
2486.000000	0.841798
2485.000000	0.841806
2484.000000	0.841820
2483.000000	0.841840
2482.000000	0.841862
2481.000000	0.841886
2480.000000	0.841916
2479.000000	0.841953
2478.000000	0.841987
2477.000000	0.842006
2476.000000	0.842002
2475.000000	0.841988
2474.000000	0.841980
2473.000000	0.841986
2472.000000	0.842005
2471.000000	0.842037
2470.000000	0.842084
2469.000000	0.842137
2468.000000	0.842182
2467.000000	0.842210
2466.000000	0.842231
2465.000000	0.842259
2464.000000	0.842302
2463.000000	0.842350
2462.000000	0.842392
2461.000000	0.842420
2460.000000	0.842435
2459.000000	0.842443
2458.000000	0.842451
2457.000000	0.842464
2456.000000	0.842478
2455.000000	0.842493
2454.000000	0.842504
2453.000000	0.842511
2452.000000	0.842511
2451.000000	0.842511
2450.000000	0.842516
2449.000000	0.842525
2448.000000	0.842529
2447.000000	0.842521
2446.000000	0.842511
2445.000000	0.842512
2444.000000	0.842526
2443.000000	0.842546
2442.000000	0.842557
2441.000000	0.842555
2440.000000	0.842536
2439.000000	0.842508
2438.000000	0.842483
2437.000000	0.842471
2436.000000	0.842471
2435.000000	0.842472
2434.000000	0.842467
2433.000000	0.842460
2432.000000	0.842458
2431.000000	0.842460
2430.000000	0.842458
2429.000000	0.842442
2428.000000	0.842406
2427.000000	0.842355
2426.000000	0.842306
2425.000000	0.842273
2424.000000	0.842257
2423.000000	0.842246
2422.000000	0.842233
2421.000000	0.842219
2420.000000	0.842203
2419.000000	0.842182
2418.000000	0.842156
2417.000000	0.842134
2416.000000	0.842117
2415.000000	0.842099
2414.000000	0.842083
2413.000000	0.842076
2412.000000	0.842079
2411.000000	0.842078
2410.000000	0.842054
2409.000000	0.842008
2408.000000	0.841958
2407.000000	0.841917
2406.000000	0.841893
2405.000000	0.841883
2404.000000	0.841883
2403.000000	0.841890
2402.000000	0.841896
2401.000000	0.841889
2400.000000	0.841848
2399.000000	0.841762
2398.000000	0.841644
2397.000000	0.841536
2396.000000	0.841470
2395.000000	0.841447
2394.000000	0.841442
2393.000000	0.841432
2392.000000	0.841414
2391.000000	0.841395
2390.000000	0.841386
2389.000000	0.841404
2388.000000	0.841465
2387.000000	0.841576
2386.000000	0.841743
2385.000000	0.841971
2384.000000	0.842272
2383.000000	0.842657
2382.000000	0.843128
2381.000000	0.843669
2380.000000	0.844236
2379.000000	0.844758
2378.000000	0.845161
2377.000000	0.845397
2376.000000	0.845459
2375.000000	0.845370
2374.000000	0.845183
2373.000000	0.844975
2372.000000	0.844822
2371.000000	0.844759
2370.000000	0.844772
2369.000000	0.844830
2368.000000	0.844910
2367.000000	0.845004
2366.000000	0.845114
2365.000000	0.845235
2364.000000	0.845349
2363.000000	0.845474
2362.000000	0.845612
2361.000000	0.845732
2360.000000	0.845792
2359.000000	0.845758
2358.000000	0.845666
2357.000000	0.845571
2356.000000	0.845511
2355.000000	0.845547
2354.000000	0.845729
2353.000000	0.846045
2352.000000	0.846336
2351.000000	0.846465
2350.000000	0.846455
2349.000000	0.846398
2348.000000	0.846406
2347.000000	0.846484
2346.000000	0.846575
2345.000000	0.846626
2344.000000	0.846675
2343.000000	0.846859
2342.000000	0.847170
2341.000000	0.847521
2340.000000	0.847801
2339.000000	0.847940
2338.000000	0.847909
2337.000000	0.847724
2336.000000	0.847448
2335.000000	0.847182
2334.000000	0.847019
2333.000000	0.846990
2332.000000	0.847036
2331.000000	0.847049
2330.000000	0.846995
2329.000000	0.846858
2328.000000	0.846718
2327.000000	0.846640
2326.000000	0.846636
2325.000000	0.846781
2324.000000	0.846853
2323.000000	0.847141
2322.000000	0.844866
2321.000000	0.844554
2320.000000	0.844550
2319.000000	0.844417
2318.000000	0.844377
2317.000000	0.844328
2316.000000	0.844321
2315.000000	0.844311
2314.000000	0.844302
2313.000000	0.844293
2312.000000	0.844292
2311.000000	0.844295
2310.000000	0.844298
2309.000000	0.844278
2308.000000	0.844279
2307.000000	0.844240
2306.000000	0.844299
2305.000000	0.844162
2304.000000	0.846229
2303.000000	0.846293
2302.000000	0.846097
2301.000000	0.846006
2300.000000	0.845838
2299.000000	0.845687
2298.000000	0.845524
2297.000000	0.845383
2296.000000	0.845258
2295.000000	0.845141
2294.000000	0.845029
2293.000000	0.844915
2292.000000	0.844802
2291.000000	0.844697
2290.000000	0.844618
2289.000000	0.844574
2288.000000	0.844558
2287.000000	0.844555
2286.000000	0.844558
2285.000000	0.844575
2284.000000	0.844614
2283.000000	0.844663
2282.000000	0.844694
2281.000000	0.844691
2280.000000	0.844664
2279.000000	0.844631
2278.000000	0.844597
2277.000000	0.844566
2276.000000	0.844547
2275.000000	0.844554
2274.000000	0.844584
2273.000000	0.844608
2272.000000	0.844601
2271.000000	0.844569
2270.000000	0.844545
2269.000000	0.844550
2268.000000	0.844575
2267.000000	0.844592
2266.000000	0.844586
2265.000000	0.844562
2264.000000	0.844539
2263.000000	0.844535
2262.000000	0.844557
2261.000000	0.844600
2260.000000	0.844642
2259.000000	0.844665
2258.000000	0.844666
2257.000000	0.844661
2256.000000	0.844662
2255.000000	0.844665
2254.000000	0.844659
2253.000000	0.844642
2252.000000	0.844619
2251.000000	0.844591
2250.000000	0.844562
2249.000000	0.844539
2248.000000	0.844538
2247.000000	0.844557
2246.000000	0.844583
2245.000000	0.844600
2244.000000	0.844605
2243.000000	0.844599
2242.000000	0.844585
2241.000000	0.844562
2240.000000	0.844538
2239.000000	0.844524
2238.000000	0.844527
2237.000000	0.844545
2236.000000	0.844566
2235.000000	0.844584
2234.000000	0.844599
2233.000000	0.844614
2232.000000	0.844624
2231.000000	0.844617
2230.000000	0.844590
2229.000000	0.844553
2228.000000	0.844524
2227.000000	0.844512
2226.000000	0.844514
2225.000000	0.844524
2224.000000	0.844543
2223.000000	0.844563
2222.000000	0.844574
2221.000000	0.844571
2220.000000	0.844566
2219.000000	0.844576
2218.000000	0.844600
2217.000000	0.844621
2216.000000	0.844627
2215.000000	0.844622
2214.000000	0.844615
2213.000000	0.844607
2212.000000	0.844595
2211.000000	0.844584
2210.000000	0.844580
2209.000000	0.844576
2208.000000	0.844559
2207.000000	0.844520
2206.000000	0.844474
2205.000000	0.844438
2204.000000	0.844418
2203.000000	0.844401
2202.000000	0.844377
2201.000000	0.844349
2200.000000	0.844328
2199.000000	0.844319
2198.000000	0.844319
2197.000000	0.844319
2196.000000	0.844317
2195.000000	0.844320
2194.000000	0.844338
2193.000000	0.844370
2192.000000	0.844402
2191.000000	0.844415
2190.000000	0.844394
2189.000000	0.844344
2188.000000	0.844286
2187.000000	0.844243
2186.000000	0.844224
2185.000000	0.844221
2184.000000	0.844219
2183.000000	0.844209
2182.000000	0.844189
2181.000000	0.844162
2180.000000	0.844127
2179.000000	0.844089
2178.000000	0.844061
2177.000000	0.844052
2176.000000	0.844054
2175.000000	0.844052
2174.000000	0.844041
2173.000000	0.844025
2172.000000	0.844007
2171.000000	0.843982
2170.000000	0.843947
2169.000000	0.843908
2168.000000	0.843871
2167.000000	0.843834
2166.000000	0.843796
2165.000000	0.843769
2164.000000	0.843763
2163.000000	0.843769
2162.000000	0.843760
2161.000000	0.843723
2160.000000	0.843669
2159.000000	0.843620
2158.000000	0.843585
2157.000000	0.843564
2156.000000	0.843548
2155.000000	0.843532
2154.000000	0.843509
2153.000000	0.843478
2152.000000	0.843442
2151.000000	0.843406
2150.000000	0.843368
2149.000000	0.843330
2148.000000	0.843299
2147.000000	0.843283
2146.000000	0.843281
2145.000000	0.843281
2144.000000	0.843272
2143.000000	0.843252
2142.000000	0.843219
2141.000000	0.843178
2140.000000	0.843130
2139.000000	0.843074
2138.000000	0.843008
2137.000000	0.842934
2136.000000	0.842865
2135.000000	0.842810
2134.000000	0.842779
2133.000000	0.842775
2132.000000	0.842796
2131.000000	0.842827
2130.000000	0.842844
2129.000000	0.842826
2128.000000	0.842772
2127.000000	0.842702
2126.000000	0.842641
2125.000000	0.842597
2124.000000	0.842560
2123.000000	0.842518
2122.000000	0.842473
2121.000000	0.842438
2120.000000	0.842418
2119.000000	0.842398
2118.000000	0.842360
2117.000000	0.842300
2116.000000	0.842231
2115.000000	0.842174
2114.000000	0.842138
2113.000000	0.842123
2112.000000	0.842120
2111.000000	0.842122
2110.000000	0.842116
2109.000000	0.842089
2108.000000	0.842029
2107.000000	0.841944
2106.000000	0.841863
2105.000000	0.841821
2104.000000	0.841826
2103.000000	0.841850
2102.000000	0.841852
2101.000000	0.841812
2100.000000	0.841741
2099.000000	0.841662
2098.000000	0.841589
2097.000000	0.841528
2096.000000	0.841478
2095.000000	0.841440
2094.000000	0.841417
2093.000000	0.841410
2092.000000	0.841413
2091.000000	0.841405
2090.000000	0.841369
2089.000000	0.841309
2088.000000	0.841247
2087.000000	0.841203
2086.000000	0.841176
2085.000000	0.841153
2084.000000	0.841123
2083.000000	0.841080
2082.000000	0.841022
2081.000000	0.840953
2080.000000	0.840885
2079.000000	0.840832
2078.000000	0.840795
2077.000000	0.840762
2076.000000	0.840722
2075.000000	0.840682
2074.000000	0.840655
2073.000000	0.840646
2072.000000	0.840646
2071.000000	0.840639
2070.000000	0.840613
2069.000000	0.840569
2068.000000	0.840508
2067.000000	0.840436
2066.000000	0.840363
2065.000000	0.840301
2064.000000	0.840253
2063.000000	0.840211
2062.000000	0.840164
2061.000000	0.840110
2060.000000	0.840053
2059.000000	0.839997
2058.000000	0.839941
2057.000000	0.839893
2056.000000	0.839865
2055.000000	0.839859
2054.000000	0.839860
2053.000000	0.839847
2052.000000	0.839811
2051.000000	0.839758
2050.000000	0.839701
2049.000000	0.839648
2048.000000	0.839606
2047.000000	0.839572
2046.000000	0.839540
2045.000000	0.839511
2044.000000	0.839490
2043.000000	0.839476
2042.000000	0.839457
2041.000000	0.839417
2040.000000	0.839360
2039.000000	0.839298
2038.000000	0.839246
2037.000000	0.839206
2036.000000	0.839172
2035.000000	0.839139
2034.000000	0.839098
2033.000000	0.839047
2032.000000	0.838992
2031.000000	0.838942
2030.000000	0.838903
2029.000000	0.838871
2028.000000	0.838839
2027.000000	0.838802
2026.000000	0.838756
2025.000000	0.838703
2024.000000	0.838651
2023.000000	0.838616
2022.000000	0.838605
2021.000000	0.838609
2020.000000	0.838608
2019.000000	0.838583
2018.000000	0.838535
2017.000000	0.838477
2016.000000	0.838422
2015.000000	0.838368
2014.000000	0.838307
2013.000000	0.838242
2012.000000	0.838195
2011.000000	0.838178
2010.000000	0.838179
2009.000000	0.838172
2008.000000	0.838145
2007.000000	0.838112
2006.000000	0.838084
2005.000000	0.838058
2004.000000	0.838027
2003.000000	0.837993
2002.000000	0.837961
2001.000000	0.837931
2000.000000	0.837897
1999.000000	0.837862
1998.000000	0.837827
1997.000000	0.837790
1996.000000	0.837743
1995.000000	0.837690
1994.000000	0.837643
1993.000000	0.837615
1992.000000	0.837606
1991.000000	0.837602
1990.000000	0.837594
1989.000000	0.837576
1988.000000	0.837554
1987.000000	0.837534
1986.000000	0.837517
1985.000000	0.837497
1984.000000	0.837465
1983.000000	0.837421
1982.000000	0.837370
1981.000000	0.837325
1980.000000	0.837295
1979.000000	0.837289
1978.000000	0.837302
1977.000000	0.837314
1976.000000	0.837306
1975.000000	0.837274
1974.000000	0.837237
1973.000000	0.837211
1972.000000	0.837203
1971.000000	0.837205
1970.000000	0.837209
1969.000000	0.837202
1968.000000	0.837172
1967.000000	0.837123
1966.000000	0.837073
1965.000000	0.837041
1964.000000	0.837023
1963.000000	0.837003
1962.000000	0.836975
1961.000000	0.836948
1960.000000	0.836928
1959.000000	0.836906
1958.000000	0.836879
1957.000000	0.836856
1956.000000	0.836849
1955.000000	0.836853
1954.000000	0.836850
1953.000000	0.836834
1952.000000	0.836815
1951.000000	0.836802
1950.000000	0.836791
1949.000000	0.836780
1948.000000	0.836776
1947.000000	0.836787
1946.000000	0.836804
1945.000000	0.836805
1944.000000	0.836777
1943.000000	0.836734
1942.000000	0.836704
1941.000000	0.836698
1940.000000	0.836704
1939.000000	0.836703
1938.000000	0.836694
1937.000000	0.836693
1936.000000	0.836711
1935.000000	0.836735
1934.000000	0.836746
1933.000000	0.836733
1932.000000	0.836700
1931.000000	0.836667
1930.000000	0.836658
1929.000000	0.836680
1928.000000	0.836715
1927.000000	0.836730
1926.000000	0.836708
1925.000000	0.836667
1924.000000	0.836636
1923.000000	0.836624
1922.000000	0.836620
1921.000000	0.836606
1920.000000	0.836584
1919.000000	0.836568
1918.000000	0.836570
1917.000000	0.836592
1916.000000	0.836627
1915.000000	0.836654
1914.000000	0.836661
1913.000000	0.836649
1912.000000	0.836634
1911.000000	0.836625
1910.000000	0.836629
1909.000000	0.836648
1908.000000	0.836683
1907.000000	0.836724
1906.000000	0.836753
1905.000000	0.836760
1904.000000	0.836748
1903.000000	0.836725
1902.000000	0.836699
1901.000000	0.836680
1900.000000	0.836680
1899.000000	0.836696
1898.000000	0.836711
1897.000000	0.836713
1896.000000	0.836709
1895.000000	0.836711
1894.000000	0.836720
1893.000000	0.836725
1892.000000	0.836722
1891.000000	0.836716
1890.000000	0.836709
1889.000000	0.836702
1888.000000	0.836697
1887.000000	0.836705
1886.000000	0.836725
1885.000000	0.836746
1884.000000	0.836761
1883.000000	0.836771
1882.000000	0.836780
1881.000000	0.836789
1880.000000	0.836791
1879.000000	0.836788
1878.000000	0.836788
1877.000000	0.836798
1876.000000	0.836816
1875.000000	0.836835
1874.000000	0.836852
1873.000000	0.836866
1872.000000	0.836874
1871.000000	0.836865
1870.000000	0.836827
1869.000000	0.836771
1868.000000	0.836728
1867.000000	0.836717
1866.000000	0.836731
1865.000000	0.836750
1864.000000	0.836765
1863.000000	0.836782
1862.000000	0.836803
1861.000000	0.836820
1860.000000	0.836831
1859.000000	0.836843
1858.000000	0.836863
1857.000000	0.836887
1856.000000	0.836912
1855.000000	0.836932
1854.000000	0.836945
1853.000000	0.836948
1852.000000	0.836947
1851.000000	0.836955
1850.000000	0.836978
1849.000000	0.837002
1848.000000	0.837010
1847.000000	0.836990
1846.000000	0.836950
1845.000000	0.836911
1844.000000	0.836904
1843.000000	0.836941
1842.000000	0.837006
1841.000000	0.837061
1840.000000	0.837084
1839.000000	0.837088
1838.000000	0.837090
1837.000000	0.837092
1836.000000	0.837091
1835.000000	0.837095
1834.000000	0.837122
1833.000000	0.837171
1832.000000	0.837224
1831.000000	0.837263
1830.000000	0.837278
1829.000000	0.837276
1828.000000	0.837270
1827.000000	0.837282
1826.000000	0.837321
1825.000000	0.837369
1824.000000	0.837395
1823.000000	0.837393
1822.000000	0.837385
1821.000000	0.837397
1820.000000	0.837434
1819.000000	0.837474
1818.000000	0.837500
1817.000000	0.837515
1816.000000	0.837542
1815.000000	0.837596
1814.000000	0.837667
1813.000000	0.837725
1812.000000	0.837746
1811.000000	0.837733
1810.000000	0.837716
1809.000000	0.837722
1808.000000	0.837756
1807.000000	0.837803
1806.000000	0.837848
1805.000000	0.837875
1804.000000	0.837880
1803.000000	0.837868
1802.000000	0.837862
1801.000000	0.837880
1800.000000	0.837917
1799.000000	0.837948
1798.000000	0.837956
1797.000000	0.837948
1796.000000	0.837944
1795.000000	0.837952
1794.000000	0.837968
1793.000000	0.837992
1792.000000	0.838033
1791.000000	0.838096
1790.000000	0.838156
1789.000000	0.838187
1788.000000	0.838183
1787.000000	0.838166
1786.000000	0.838170
1785.000000	0.838205
1784.000000	0.838257
1783.000000	0.838302
1782.000000	0.838337
1781.000000	0.838379
1780.000000	0.838443
1779.000000	0.838512
1778.000000	0.838560
1777.000000	0.838579
1776.000000	0.838597
1775.000000	0.838642
1774.000000	0.838706
1773.000000	0.838760
1772.000000	0.838796
1771.000000	0.838830
1770.000000	0.838868
1769.000000	0.838896
1768.000000	0.838905
1767.000000	0.838920
1766.000000	0.838972
1765.000000	0.839054
1764.000000	0.839130
1763.000000	0.839173
1762.000000	0.839197
1761.000000	0.839225
1760.000000	0.839263
1759.000000	0.839302
1758.000000	0.839333
1757.000000	0.839353
1756.000000	0.839365
1755.000000	0.839385
1754.000000	0.839433
1753.000000	0.839509
1752.000000	0.839596
1751.000000	0.839671
1750.000000	0.839729
1749.000000	0.839771
1748.000000	0.839798
1747.000000	0.839820
1746.000000	0.839852
1745.000000	0.839902
1744.000000	0.839960
1743.000000	0.840016
1742.000000	0.840071
1741.000000	0.840130
1740.000000	0.840189
1739.000000	0.840239
1738.000000	0.840280
1737.000000	0.840317
1736.000000	0.840350
1735.000000	0.840378
1734.000000	0.840412
1733.000000	0.840470
1732.000000	0.840547
1731.000000	0.840620
1730.000000	0.840678
1729.000000	0.840725
1728.000000	0.840760
1727.000000	0.840783
1726.000000	0.840796
1725.000000	0.840811
1724.000000	0.840841
1723.000000	0.840885
1722.000000	0.840934
1721.000000	0.840981
1720.000000	0.841029
1719.000000	0.841086
1718.000000	0.841165
1717.000000	0.841264
1716.000000	0.841352
1715.000000	0.841401
1714.000000	0.841415
1713.000000	0.841418
1712.000000	0.841430
1711.000000	0.841457
1710.000000	0.841502
1709.000000	0.841565
1708.000000	0.841632
1707.000000	0.841677
1706.000000	0.841683
1705.000000	0.841669
1704.000000	0.841670
1703.000000	0.841700
1702.000000	0.841742
1701.000000	0.841776
1700.000000	0.841817
1699.000000	0.841892
1698.000000	0.841981
1697.000000	0.842038
1696.000000	0.842053
1695.000000	0.842045
1694.000000	0.842040
1693.000000	0.842049
1692.000000	0.842071
1691.000000	0.842109
1690.000000	0.842163
1689.000000	0.842222
1688.000000	0.842273
1687.000000	0.842306
1686.000000	0.842320
1685.000000	0.842322
1684.000000	0.842333
1683.000000	0.842364
1682.000000	0.842405
1681.000000	0.842444
1680.000000	0.842474
1679.000000	0.842503
1678.000000	0.842540
1677.000000	0.842579
1676.000000	0.842601
1675.000000	0.842601
1674.000000	0.842598
1673.000000	0.842607
1672.000000	0.842627
1671.000000	0.842650
1670.000000	0.842672
1669.000000	0.842691
1668.000000	0.842707
1667.000000	0.842729
1666.000000	0.842763
1665.000000	0.842802
1664.000000	0.842830
1663.000000	0.842844
1662.000000	0.842854
1661.000000	0.842864
1660.000000	0.842867
1659.000000	0.842865
1658.000000	0.842871
1657.000000	0.842901
1656.000000	0.842949
1655.000000	0.842994
1654.000000	0.843018
1653.000000	0.843031
1652.000000	0.843038
1651.000000	0.843044
1650.000000	0.843052
1649.000000	0.843066
1648.000000	0.843099
1647.000000	0.843145
1646.000000	0.843172
1645.000000	0.843162
1644.000000	0.843132
1643.000000	0.843118
1642.000000	0.843140
1641.000000	0.843193
1640.000000	0.843257
1639.000000	0.843308
1638.000000	0.843332
1637.000000	0.843325
1636.000000	0.843299
1635.000000	0.843271
1634.000000	0.843255
1633.000000	0.843259
1632.000000	0.843267
1631.000000	0.843267
1630.000000	0.843262
1629.000000	0.843258
1628.000000	0.843252
1627.000000	0.843242
1626.000000	0.843231
1625.000000	0.843222
1624.000000	0.843201
1623.000000	0.843153
1622.000000	0.843080
1621.000000	0.843006
1620.000000	0.842962
1619.000000	0.842964
1618.000000	0.843013
1617.000000	0.843101
1616.000000	0.843208
1615.000000	0.843298
1614.000000	0.843346
1613.000000	0.843357
1612.000000	0.843355
1611.000000	0.843355
1610.000000	0.843352
1609.000000	0.843336
1608.000000	0.843314
1607.000000	0.843311
1606.000000	0.843338
1605.000000	0.843383
1604.000000	0.843416
1603.000000	0.843412
1602.000000	0.843372
1601.000000	0.843323
1600.000000	0.843303
1599.000000	0.843330
1598.000000	0.843390
1597.000000	0.843448
1596.000000	0.843479
1595.000000	0.843487
1594.000000	0.843487
1593.000000	0.843479
1592.000000	0.843458
1591.000000	0.843430
1590.000000	0.843413
1589.000000	0.843422
1588.000000	0.843452
1587.000000	0.843490
1586.000000	0.843522
1585.000000	0.843543
1584.000000	0.843548
1583.000000	0.843545
1582.000000	0.843545
1581.000000	0.843555
1580.000000	0.843565
1579.000000	0.843555
1578.000000	0.843526
1577.000000	0.843498
1576.000000	0.843496
1575.000000	0.843517
1574.000000	0.843540
1573.000000	0.843542
1572.000000	0.843517
1571.000000	0.843482
1570.000000	0.843467
1569.000000	0.843489
1568.000000	0.843534
1567.000000	0.843575
1566.000000	0.843600
1565.000000	0.843609
1564.000000	0.843617
1563.000000	0.843635
1562.000000	0.843666
1561.000000	0.843695
1560.000000	0.843705
1559.000000	0.843713
1558.000000	0.843726
1557.000000	0.843714
1556.000000	0.843690
1555.000000	0.843666
1554.000000	0.843651
1553.000000	0.843657
1552.000000	0.843676
1551.000000	0.843691
1550.000000	0.843695
1549.000000	0.843704
1548.000000	0.843721
1547.000000	0.843737
1546.000000	0.843745
1545.000000	0.843750
1544.000000	0.843758
1543.000000	0.843761
1542.000000	0.843759
1541.000000	0.843768
1540.000000	0.843796
1539.000000	0.843821
1538.000000	0.843828
1537.000000	0.843834
1536.000000	0.843833
1535.000000	0.843811
1534.000000	0.843767
1533.000000	0.843722
1532.000000	0.843690
1531.000000	0.843669
1530.000000	0.843661
1529.000000	0.843671
1528.000000	0.843699
1527.000000	0.843729
1526.000000	0.843742
1525.000000	0.843744
1524.000000	0.843750
1523.000000	0.843759
1522.000000	0.843760
1521.000000	0.843759
1520.000000	0.843770
1519.000000	0.843793
1518.000000	0.843810
1517.000000	0.843815
1516.000000	0.843823
1515.000000	0.843841
1514.000000	0.843857
1513.000000	0.843857
1512.000000	0.843841
1511.000000	0.843821
1510.000000	0.843803
1509.000000	0.843785
1508.000000	0.843773
1507.000000	0.843774
1506.000000	0.843765
1505.000000	0.843731
1504.000000	0.843708
1503.000000	0.843709
1502.000000	0.843724
1501.000000	0.843751
1500.000000	0.843790
