PE IR       SUBTECH     SPECTRUM    ASCII       PEDS        4.00        
   -1
TE108B2_023.ASC
20/02/27
15:29:07.00
20/02/27
15:29:07.00
Administrator
Sample 023 By Administrator Date Thursday, February 27 2020
1500.000000
#HDR
-1
-1
#GR
cm-1
A
1.0
0.0
4000.000000
-1.000000
2501
8
0.920747
0.881231
#DATA
4000.000000	0.888550
3999.000000	0.888649
3998.000000	0.888703
3997.000000	0.888709
3996.000000	0.888683
3995.000000	0.888643
3994.000000	0.888613
3993.000000	0.888606
3992.000000	0.888617
3991.000000	0.888627
3990.000000	0.888612
3989.000000	0.888564
3988.000000	0.888497
3987.000000	0.888430
3986.000000	0.888376
3985.000000	0.888339
3984.000000	0.888320
3983.000000	0.888322
3982.000000	0.888346
3981.000000	0.888386
3980.000000	0.888433
3979.000000	0.888473
3978.000000	0.888494
3977.000000	0.888488
3976.000000	0.888455
3975.000000	0.888405
3974.000000	0.888351
3973.000000	0.888302
3972.000000	0.888267
3971.000000	0.888249
3970.000000	0.888245
3969.000000	0.888252
3968.000000	0.888260
3967.000000	0.888260
3966.000000	0.888242
3965.000000	0.888206
3964.000000	0.888161
3963.000000	0.888125
3962.000000	0.888114
3961.000000	0.888126
3960.000000	0.888146
3959.000000	0.888152
3958.000000	0.888137
3957.000000	0.888102
3956.000000	0.888055
3955.000000	0.888000
3954.000000	0.887934
3953.000000	0.887863
3952.000000	0.887800
3951.000000	0.887759
3950.000000	0.887741
3949.000000	0.887731
3948.000000	0.887715
3947.000000	0.887690
3946.000000	0.887663
3945.000000	0.887634
3944.000000	0.887604
3943.000000	0.887574
3942.000000	0.887549
3941.000000	0.887529
3940.000000	0.887506
3939.000000	0.887467
3938.000000	0.887408
3937.000000	0.887336
3936.000000	0.887269
3935.000000	0.887220
3934.000000	0.887189
3933.000000	0.887170
3932.000000	0.887158
3931.000000	0.887153
3930.000000	0.887150
3929.000000	0.887134
3928.000000	0.887086
3927.000000	0.887007
3926.000000	0.886915
3925.000000	0.886837
3924.000000	0.886789
3923.000000	0.886768
3922.000000	0.886764
3921.000000	0.886763
3920.000000	0.886751
3919.000000	0.886715
3918.000000	0.886641
3917.000000	0.886532
3916.000000	0.886416
3915.000000	0.886326
3914.000000	0.886280
3913.000000	0.886264
3912.000000	0.886251
3911.000000	0.886229
3910.000000	0.886206
3909.000000	0.886202
3908.000000	0.886219
3907.000000	0.886236
3906.000000	0.886218
3905.000000	0.886145
3904.000000	0.886030
3903.000000	0.885904
3902.000000	0.885790
3901.000000	0.885693
3900.000000	0.885611
3899.000000	0.885543
3898.000000	0.885499
3897.000000	0.885484
3896.000000	0.885493
3895.000000	0.885514
3894.000000	0.885526
3893.000000	0.885504
3892.000000	0.885447
3891.000000	0.885381
3890.000000	0.885345
3889.000000	0.885350
3888.000000	0.885361
3887.000000	0.885330
3886.000000	0.885244
3885.000000	0.885139
3884.000000	0.885069
3883.000000	0.885054
3882.000000	0.885071
3881.000000	0.885087
3880.000000	0.885086
3879.000000	0.885078
3878.000000	0.885065
3877.000000	0.885035
3876.000000	0.884983
3875.000000	0.884927
3874.000000	0.884896
3873.000000	0.884886
3872.000000	0.884858
3871.000000	0.884770
3870.000000	0.884631
3869.000000	0.884497
3868.000000	0.884426
3867.000000	0.884418
3866.000000	0.884424
3865.000000	0.884394
3864.000000	0.884321
3863.000000	0.884239
3862.000000	0.884185
3861.000000	0.884175
3860.000000	0.884218
3859.000000	0.884329
3858.000000	0.884503
3857.000000	0.884679
3856.000000	0.884746
3855.000000	0.884615
3854.000000	0.884296
3853.000000	0.883906
3852.000000	0.883595
3851.000000	0.883452
3850.000000	0.883469
3849.000000	0.883574
3848.000000	0.883693
3847.000000	0.883783
3846.000000	0.883830
3845.000000	0.883832
3844.000000	0.883801
3843.000000	0.883764
3842.000000	0.883747
3841.000000	0.883745
3840.000000	0.883719
3839.000000	0.883628
3838.000000	0.883474
3837.000000	0.883314
3836.000000	0.883213
3835.000000	0.883197
3834.000000	0.883232
3833.000000	0.883267
3832.000000	0.883271
3831.000000	0.883251
3830.000000	0.883229
3829.000000	0.883213
3828.000000	0.883199
3827.000000	0.883187
3826.000000	0.883189
3825.000000	0.883206
3824.000000	0.883212
3823.000000	0.883166
3822.000000	0.883062
3821.000000	0.882944
3820.000000	0.882872
3819.000000	0.882862
3818.000000	0.882856
3817.000000	0.882785
3816.000000	0.882640
3815.000000	0.882494
3814.000000	0.882435
3813.000000	0.882495
3812.000000	0.882631
3811.000000	0.882767
3810.000000	0.882843
3809.000000	0.882825
3808.000000	0.882722
3807.000000	0.882586
3806.000000	0.882491
3805.000000	0.882481
3804.000000	0.882517
3803.000000	0.882513
3802.000000	0.882412
3801.000000	0.882247
3800.000000	0.882110
3799.000000	0.882066
3798.000000	0.882106
3797.000000	0.882166
3796.000000	0.882198
3795.000000	0.882200
3794.000000	0.882198
3793.000000	0.882210
3792.000000	0.882237
3791.000000	0.882263
3790.000000	0.882277
3789.000000	0.882268
3788.000000	0.882238
3787.000000	0.882194
3786.000000	0.882150
3785.000000	0.882120
3784.000000	0.882105
3783.000000	0.882101
3782.000000	0.882097
3781.000000	0.882089
3780.000000	0.882072
3779.000000	0.882051
3778.000000	0.882033
3777.000000	0.882027
3776.000000	0.882041
3775.000000	0.882076
3774.000000	0.882125
3773.000000	0.882164
3772.000000	0.882165
3771.000000	0.882116
3770.000000	0.882039
3769.000000	0.881972
3768.000000	0.881938
3767.000000	0.881925
3766.000000	0.881915
3765.000000	0.881904
3764.000000	0.881905
3763.000000	0.881926
3762.000000	0.881947
3761.000000	0.881940
3760.000000	0.881893
3759.000000	0.881829
3758.000000	0.881791
3757.000000	0.881816
3756.000000	0.881901
3755.000000	0.882005
3754.000000	0.882065
3753.000000	0.882034
3752.000000	0.881903
3751.000000	0.881717
3750.000000	0.881565
3749.000000	0.881533
3748.000000	0.881637
3747.000000	0.881785
3746.000000	0.881834
3745.000000	0.881705
3744.000000	0.881461
3743.000000	0.881262
3742.000000	0.881231
3741.000000	0.881364
3740.000000	0.881553
3739.000000	0.881687
3738.000000	0.881724
3737.000000	0.881689
3736.000000	0.881634
3735.000000	0.881587
3734.000000	0.881546
3733.000000	0.881497
3732.000000	0.881445
3731.000000	0.881417
3730.000000	0.881438
3729.000000	0.881494
3728.000000	0.881538
3727.000000	0.881536
3726.000000	0.881499
3725.000000	0.881467
3724.000000	0.881465
3723.000000	0.881489
3722.000000	0.881516
3721.000000	0.881539
3720.000000	0.881565
3719.000000	0.881604
3718.000000	0.881664
3717.000000	0.881739
3716.000000	0.881817
3715.000000	0.881875
3714.000000	0.881891
3713.000000	0.881859
3712.000000	0.881798
3711.000000	0.881738
3710.000000	0.881702
3709.000000	0.881699
3708.000000	0.881736
3707.000000	0.881817
3706.000000	0.881943
3705.000000	0.882092
3704.000000	0.882227
3703.000000	0.882321
3702.000000	0.882379
3701.000000	0.882430
3700.000000	0.882506
3699.000000	0.882616
3698.000000	0.882751
3697.000000	0.882897
3696.000000	0.883042
3695.000000	0.883182
3694.000000	0.883316
3693.000000	0.883442
3692.000000	0.883549
3691.000000	0.883609
3690.000000	0.883592
3689.000000	0.883502
3688.000000	0.883398
3687.000000	0.883362
3686.000000	0.883435
3685.000000	0.883598
3684.000000	0.883792
3683.000000	0.883969
3682.000000	0.884121
3681.000000	0.884267
3680.000000	0.884427
3679.000000	0.884596
3678.000000	0.884732
3677.000000	0.884795
3676.000000	0.884789
3675.000000	0.884786
3674.000000	0.884869
3673.000000	0.885055
3672.000000	0.885272
3671.000000	0.885436
3670.000000	0.885519
3669.000000	0.885570
3668.000000	0.885654
3667.000000	0.885796
3666.000000	0.885979
3665.000000	0.886170
3664.000000	0.886351
3663.000000	0.886516
3662.000000	0.886678
3661.000000	0.886848
3660.000000	0.887027
3659.000000	0.887194
3658.000000	0.887323
3657.000000	0.887406
3656.000000	0.887478
3655.000000	0.887598
3654.000000	0.887798
3653.000000	0.888058
3652.000000	0.888300
3651.000000	0.888448
3650.000000	0.888472
3649.000000	0.888415
3648.000000	0.888361
3647.000000	0.888384
3646.000000	0.888501
3645.000000	0.888679
3644.000000	0.888869
3643.000000	0.889043
3642.000000	0.889199
3641.000000	0.889346
3640.000000	0.889479
3639.000000	0.889596
3638.000000	0.889702
3637.000000	0.889814
3636.000000	0.889943
3635.000000	0.890090
3634.000000	0.890246
3633.000000	0.890403
3632.000000	0.890544
3631.000000	0.890645
3630.000000	0.890694
3629.000000	0.890708
3628.000000	0.890736
3627.000000	0.890819
3626.000000	0.890962
3625.000000	0.891138
3624.000000	0.891314
3623.000000	0.891466
3622.000000	0.891577
3621.000000	0.891637
3620.000000	0.891653
3619.000000	0.891654
3618.000000	0.891683
3617.000000	0.891766
3616.000000	0.891893
3615.000000	0.892034
3614.000000	0.892161
3613.000000	0.892266
3612.000000	0.892355
3611.000000	0.892434
3610.000000	0.892500
3609.000000	0.892556
3608.000000	0.892612
3607.000000	0.892686
3606.000000	0.892787
3605.000000	0.892912
3604.000000	0.893045
3603.000000	0.893171
3602.000000	0.893280
3601.000000	0.893370
3600.000000	0.893450
3599.000000	0.893530
3598.000000	0.893618
3597.000000	0.893711
3596.000000	0.893801
3595.000000	0.893887
3594.000000	0.893975
3593.000000	0.894077
3592.000000	0.894191
3591.000000	0.894299
3590.000000	0.894379
3589.000000	0.894421
3588.000000	0.894443
3587.000000	0.894470
3586.000000	0.894522
3585.000000	0.894603
3584.000000	0.894708
3583.000000	0.894830
3582.000000	0.894957
3581.000000	0.895074
3580.000000	0.895163
3579.000000	0.895216
3578.000000	0.895240
3577.000000	0.895259
3576.000000	0.895296
3575.000000	0.895358
3574.000000	0.895434
3573.000000	0.895509
3572.000000	0.895580
3571.000000	0.895656
3570.000000	0.895743
3569.000000	0.895828
3568.000000	0.895887
3567.000000	0.895907
3566.000000	0.895903
3565.000000	0.895906
3564.000000	0.895944
3563.000000	0.896015
3562.000000	0.896096
3561.000000	0.896164
3560.000000	0.896216
3559.000000	0.896271
3558.000000	0.896349
3557.000000	0.896450
3556.000000	0.896557
3555.000000	0.896645
3554.000000	0.896703
3553.000000	0.896737
3552.000000	0.896766
3551.000000	0.896806
3550.000000	0.896865
3549.000000	0.896934
3548.000000	0.897005
3547.000000	0.897073
3546.000000	0.897139
3545.000000	0.897201
3544.000000	0.897261
3543.000000	0.897317
3542.000000	0.897373
3541.000000	0.897432
3540.000000	0.897497
3539.000000	0.897571
3538.000000	0.897652
3537.000000	0.897744
3536.000000	0.897845
3535.000000	0.897948
3534.000000	0.898040
3533.000000	0.898109
3532.000000	0.898150
3531.000000	0.898178
3530.000000	0.898213
3529.000000	0.898273
3528.000000	0.898358
3527.000000	0.898460
3526.000000	0.898561
3525.000000	0.898648
3524.000000	0.898718
3523.000000	0.898778
3522.000000	0.898843
3521.000000	0.898922
3520.000000	0.899015
3519.000000	0.899116
3518.000000	0.899220
3517.000000	0.899325
3516.000000	0.899432
3515.000000	0.899542
3514.000000	0.899653
3513.000000	0.899761
3512.000000	0.899859
3511.000000	0.899945
3510.000000	0.900030
3509.000000	0.900134
3508.000000	0.900271
3507.000000	0.900434
3506.000000	0.900600
3505.000000	0.900742
3504.000000	0.900853
3503.000000	0.900947
3502.000000	0.901048
3501.000000	0.901171
3500.000000	0.901318
3499.000000	0.901483
3498.000000	0.901650
3497.000000	0.901801
3496.000000	0.901929
3495.000000	0.902040
3494.000000	0.902158
3493.000000	0.902298
3492.000000	0.902457
3491.000000	0.902612
3490.000000	0.902747
3489.000000	0.902864
3488.000000	0.902989
3487.000000	0.903141
3486.000000	0.903320
3485.000000	0.903499
3484.000000	0.903656
3483.000000	0.903791
3482.000000	0.903925
3481.000000	0.904072
3480.000000	0.904229
3479.000000	0.904387
3478.000000	0.904545
3477.000000	0.904716
3476.000000	0.904909
3475.000000	0.905113
3474.000000	0.905303
3473.000000	0.905467
3472.000000	0.905613
3471.000000	0.905755
3470.000000	0.905901
3469.000000	0.906052
3468.000000	0.906210
3467.000000	0.906384
3466.000000	0.906576
3465.000000	0.906773
3464.000000	0.906957
3463.000000	0.907121
3462.000000	0.907275
3461.000000	0.907429
3460.000000	0.907591
3459.000000	0.907762
3458.000000	0.907938
3457.000000	0.908116
3456.000000	0.908290
3455.000000	0.908459
3454.000000	0.908627
3453.000000	0.908794
3452.000000	0.908959
3451.000000	0.909121
3450.000000	0.909282
3449.000000	0.909445
3448.000000	0.909603
3447.000000	0.909743
3446.000000	0.909862
3445.000000	0.909972
3444.000000	0.910092
3443.000000	0.910230
3442.000000	0.910382
3441.000000	0.910538
3440.000000	0.910694
3439.000000	0.910852
3438.000000	0.911011
3437.000000	0.911163
3436.000000	0.911302
3435.000000	0.911426
3434.000000	0.911536
3433.000000	0.911639
3432.000000	0.911742
3431.000000	0.911849
3430.000000	0.911960
3429.000000	0.912073
3428.000000	0.912194
3427.000000	0.912324
3426.000000	0.912460
3425.000000	0.912592
3424.000000	0.912713
3423.000000	0.912821
3422.000000	0.912918
3421.000000	0.913009
3420.000000	0.913103
3419.000000	0.913209
3418.000000	0.913332
3417.000000	0.913465
3416.000000	0.913589
3415.000000	0.913685
3414.000000	0.913748
3413.000000	0.913793
3412.000000	0.913846
3411.000000	0.913927
3410.000000	0.914036
3409.000000	0.914151
3408.000000	0.914244
3407.000000	0.914306
3406.000000	0.914349
3405.000000	0.914396
3404.000000	0.914460
3403.000000	0.914534
3402.000000	0.914606
3401.000000	0.914667
3400.000000	0.914723
3399.000000	0.914786
3398.000000	0.914855
3397.000000	0.914920
3396.000000	0.914969
3395.000000	0.915004
3394.000000	0.915037
3393.000000	0.915078
3392.000000	0.915127
3391.000000	0.915182
3390.000000	0.915239
3389.000000	0.915296
3388.000000	0.915351
3387.000000	0.915404
3386.000000	0.915456
3385.000000	0.915505
3384.000000	0.915548
3383.000000	0.915577
3382.000000	0.915588
3381.000000	0.915583
3380.000000	0.915580
3379.000000	0.915601
3378.000000	0.915658
3377.000000	0.915735
3376.000000	0.915809
3375.000000	0.915863
3374.000000	0.915899
3373.000000	0.915924
3372.000000	0.915938
3371.000000	0.915944
3370.000000	0.915951
3369.000000	0.915971
3368.000000	0.916010
3367.000000	0.916063
3366.000000	0.916117
3365.000000	0.916168
3364.000000	0.916218
3363.000000	0.916264
3362.000000	0.916295
3361.000000	0.916303
3360.000000	0.916293
3359.000000	0.916279
3358.000000	0.916275
3357.000000	0.916284
3356.000000	0.916307
3355.000000	0.916340
3354.000000	0.916375
3353.000000	0.916404
3352.000000	0.916427
3351.000000	0.916451
3350.000000	0.916482
3349.000000	0.916514
3348.000000	0.916537
3347.000000	0.916552
3346.000000	0.916566
3345.000000	0.916585
3344.000000	0.916603
3343.000000	0.916617
3342.000000	0.916625
3341.000000	0.916631
3340.000000	0.916638
3339.000000	0.916648
3338.000000	0.916660
3337.000000	0.916670
3336.000000	0.916677
3335.000000	0.916689
3334.000000	0.916717
3333.000000	0.916759
3332.000000	0.916804
3331.000000	0.916842
3330.000000	0.916871
3329.000000	0.916893
3328.000000	0.916910
3327.000000	0.916924
3326.000000	0.916937
3325.000000	0.916948
3324.000000	0.916958
3323.000000	0.916970
3322.000000	0.916992
3321.000000	0.917027
3320.000000	0.917067
3319.000000	0.917103
3318.000000	0.917134
3317.000000	0.917160
3316.000000	0.917183
3315.000000	0.917199
3314.000000	0.917206
3313.000000	0.917206
3312.000000	0.917206
3311.000000	0.917211
3310.000000	0.917230
3309.000000	0.917268
3308.000000	0.917329
3307.000000	0.917409
3306.000000	0.917496
3305.000000	0.917572
3304.000000	0.917622
3303.000000	0.917652
3302.000000	0.917681
3301.000000	0.917721
3300.000000	0.917765
3299.000000	0.917798
3298.000000	0.917819
3297.000000	0.917837
3296.000000	0.917855
3295.000000	0.917866
3294.000000	0.917870
3293.000000	0.917879
3292.000000	0.917905
3291.000000	0.917946
3290.000000	0.917984
3289.000000	0.918008
3288.000000	0.918026
3287.000000	0.918056
3286.000000	0.918107
3285.000000	0.918165
3284.000000	0.918205
3283.000000	0.918218
3282.000000	0.918213
3281.000000	0.918206
3280.000000	0.918206
3279.000000	0.918213
3278.000000	0.918231
3277.000000	0.918263
3276.000000	0.918312
3275.000000	0.918371
3274.000000	0.918423
3273.000000	0.918447
3272.000000	0.918439
3271.000000	0.918417
3270.000000	0.918409
3269.000000	0.918426
3268.000000	0.918458
3267.000000	0.918496
3266.000000	0.918547
3265.000000	0.918621
3264.000000	0.918711
3263.000000	0.918795
3262.000000	0.918852
3261.000000	0.918874
3260.000000	0.918864
3259.000000	0.918835
3258.000000	0.918810
3257.000000	0.918803
3256.000000	0.918809
3255.000000	0.918807
3254.000000	0.918792
3253.000000	0.918794
3252.000000	0.918844
3251.000000	0.918943
3250.000000	0.919056
3249.000000	0.919143
3248.000000	0.919190
3247.000000	0.919208
3246.000000	0.919219
3245.000000	0.919233
3244.000000	0.919250
3243.000000	0.919260
3242.000000	0.919259
3241.000000	0.919256
3240.000000	0.919264
3239.000000	0.919290
3238.000000	0.919324
3237.000000	0.919350
3236.000000	0.919357
3235.000000	0.919347
3234.000000	0.919330
3233.000000	0.919314
3232.000000	0.919300
3231.000000	0.919296
3230.000000	0.919315
3229.000000	0.919366
3228.000000	0.919439
3227.000000	0.919503
3226.000000	0.919533
3225.000000	0.919531
3224.000000	0.919517
3223.000000	0.919512
3222.000000	0.919520
3221.000000	0.919533
3220.000000	0.919542
3219.000000	0.919545
3218.000000	0.919548
3217.000000	0.919559
3216.000000	0.919581
3215.000000	0.919611
3214.000000	0.919640
3213.000000	0.919664
3212.000000	0.919689
3211.000000	0.919721
3210.000000	0.919751
3209.000000	0.919758
3208.000000	0.919728
3207.000000	0.919672
3206.000000	0.919621
3205.000000	0.919603
3204.000000	0.919622
3203.000000	0.919661
3202.000000	0.919699
3201.000000	0.919723
3200.000000	0.919731
3199.000000	0.919736
3198.000000	0.919754
3197.000000	0.919791
3196.000000	0.919830
3195.000000	0.919844
3194.000000	0.919824
3193.000000	0.919786
3192.000000	0.919763
3191.000000	0.919777
3190.000000	0.919824
3189.000000	0.919883
3188.000000	0.919921
3187.000000	0.919920
3186.000000	0.919888
3185.000000	0.919854
3184.000000	0.919842
3183.000000	0.919854
3182.000000	0.919870
3181.000000	0.919873
3180.000000	0.919863
3179.000000	0.919858
3178.000000	0.919878
3177.000000	0.919920
3176.000000	0.919955
3175.000000	0.919950
3174.000000	0.919901
3173.000000	0.919842
3172.000000	0.919816
3171.000000	0.919838
3170.000000	0.919889
3169.000000	0.919941
3168.000000	0.919980
3167.000000	0.920005
3166.000000	0.920013
3165.000000	0.920000
3164.000000	0.919972
3163.000000	0.919945
3162.000000	0.919939
3161.000000	0.919963
3160.000000	0.920011
3159.000000	0.920062
3158.000000	0.920099
3157.000000	0.920114
3156.000000	0.920115
3155.000000	0.920112
3154.000000	0.920105
3153.000000	0.920091
3152.000000	0.920074
3151.000000	0.920067
3150.000000	0.920078
3149.000000	0.920102
3148.000000	0.920123
3147.000000	0.920127
3146.000000	0.920117
3145.000000	0.920111
3144.000000	0.920126
3143.000000	0.920163
3142.000000	0.920201
3141.000000	0.920213
3140.000000	0.920194
3139.000000	0.920164
3138.000000	0.920152
3137.000000	0.920162
3136.000000	0.920181
3135.000000	0.920195
3134.000000	0.920206
3133.000000	0.920223
3132.000000	0.920248
3131.000000	0.920287
3130.000000	0.920347
3129.000000	0.920415
3128.000000	0.920457
3127.000000	0.920450
3126.000000	0.920404
3125.000000	0.920357
3124.000000	0.920335
3123.000000	0.920338
3122.000000	0.920356
3121.000000	0.920387
3120.000000	0.920428
3119.000000	0.920464
3118.000000	0.920482
3117.000000	0.920482
3116.000000	0.920472
3115.000000	0.920456
3114.000000	0.920441
3113.000000	0.920444
3112.000000	0.920479
3111.000000	0.920539
3110.000000	0.920596
3109.000000	0.920631
3108.000000	0.920649
3107.000000	0.920663
3106.000000	0.920678
3105.000000	0.920680
3104.000000	0.920665
3103.000000	0.920645
3102.000000	0.920640
3101.000000	0.920653
3100.000000	0.920669
3099.000000	0.920673
3098.000000	0.920665
3097.000000	0.920661
3096.000000	0.920672
3095.000000	0.920688
3094.000000	0.920696
3093.000000	0.920693
3092.000000	0.920693
3091.000000	0.920706
3090.000000	0.920724
3089.000000	0.920727
3088.000000	0.920707
3087.000000	0.920667
3086.000000	0.920625
3085.000000	0.920604
3084.000000	0.920615
3083.000000	0.920651
3082.000000	0.920690
3081.000000	0.920709
3080.000000	0.920707
3079.000000	0.920700
3078.000000	0.920701
3077.000000	0.920712
3076.000000	0.920726
3075.000000	0.920740
3074.000000	0.920747
3073.000000	0.920739
3072.000000	0.920716
3071.000000	0.920689
3070.000000	0.920676
3069.000000	0.920682
3068.000000	0.920695
3067.000000	0.920695
3066.000000	0.920671
3065.000000	0.920624
3064.000000	0.920574
3063.000000	0.920543
3062.000000	0.920540
3061.000000	0.920559
3060.000000	0.920577
3059.000000	0.920580
3058.000000	0.920566
3057.000000	0.920545
3056.000000	0.920526
3055.000000	0.920513
3054.000000	0.920502
3053.000000	0.920482
3052.000000	0.920444
3051.000000	0.920389
3050.000000	0.920328
3049.000000	0.920275
3048.000000	0.920238
3047.000000	0.920213
3046.000000	0.920197
3045.000000	0.920188
3044.000000	0.920182
3043.000000	0.920174
3042.000000	0.920158
3041.000000	0.920138
3040.000000	0.920117
3039.000000	0.920094
3038.000000	0.920068
3037.000000	0.920038
3036.000000	0.920009
3035.000000	0.919988
3034.000000	0.919980
3033.000000	0.919985
3032.000000	0.919996
3031.000000	0.919999
3030.000000	0.919987
3029.000000	0.919960
3028.000000	0.919932
3027.000000	0.919913
3026.000000	0.919904
3025.000000	0.919897
3024.000000	0.919884
3023.000000	0.919861
3022.000000	0.919828
3021.000000	0.919787
3020.000000	0.919740
3019.000000	0.919687
3018.000000	0.919627
3017.000000	0.919554
3016.000000	0.919467
3015.000000	0.919384
3014.000000	0.919333
3013.000000	0.919320
3012.000000	0.919323
3011.000000	0.919314
3010.000000	0.919290
3009.000000	0.919277
3008.000000	0.919290
3007.000000	0.919296
3006.000000	0.919240
3005.000000	0.919107
3004.000000	0.918946
3003.000000	0.918839
3002.000000	0.918829
3001.000000	0.918897
3000.000000	0.918989
2999.000000	0.919064
2998.000000	0.919107
2997.000000	0.919119
2996.000000	0.919108
2995.000000	0.919084
2994.000000	0.919062
2993.000000	0.919049
2992.000000	0.919036
2991.000000	0.919013
2990.000000	0.918979
2989.000000	0.918936
2988.000000	0.918882
2987.000000	0.918814
2986.000000	0.918740
2985.000000	0.918674
2984.000000	0.918628
2983.000000	0.918597
2982.000000	0.918578
2981.000000	0.918570
2980.000000	0.918574
2979.000000	0.918577
2978.000000	0.918570
2977.000000	0.918549
2976.000000	0.918522
2975.000000	0.918497
2974.000000	0.918481
2973.000000	0.918480
2972.000000	0.918491
2971.000000	0.918498
2970.000000	0.918482
2969.000000	0.918443
2968.000000	0.918398
2967.000000	0.918362
2966.000000	0.918331
2965.000000	0.918288
2964.000000	0.918217
2963.000000	0.918114
2962.000000	0.917987
2961.000000	0.917854
2960.000000	0.917739
2959.000000	0.917653
2958.000000	0.917590
2957.000000	0.917535
2956.000000	0.917479
2955.000000	0.917420
2954.000000	0.917355
2953.000000	0.917287
2952.000000	0.917224
2951.000000	0.917179
2950.000000	0.917156
2949.000000	0.917146
2948.000000	0.917143
2947.000000	0.917150
2946.000000	0.917167
2945.000000	0.917188
2944.000000	0.917199
2943.000000	0.917185
2942.000000	0.917141
2941.000000	0.917073
2940.000000	0.916998
2939.000000	0.916926
2938.000000	0.916862
2937.000000	0.916800
2936.000000	0.916739
2935.000000	0.916682
2934.000000	0.916631
2933.000000	0.916586
2932.000000	0.916546
2931.000000	0.916512
2930.000000	0.916479
2929.000000	0.916431
2928.000000	0.916360
2927.000000	0.916266
2926.000000	0.916148
2925.000000	0.915995
2924.000000	0.915800
2923.000000	0.915583
2922.000000	0.915386
2921.000000	0.915237
2920.000000	0.915133
2919.000000	0.915051
2918.000000	0.914979
2917.000000	0.914925
2916.000000	0.914902
2915.000000	0.914906
2914.000000	0.914921
2913.000000	0.914932
2912.000000	0.914930
2911.000000	0.914916
2910.000000	0.914893
2909.000000	0.914859
2908.000000	0.914819
2907.000000	0.914784
2906.000000	0.914766
2905.000000	0.914762
2904.000000	0.914752
2903.000000	0.914716
2902.000000	0.914652
2901.000000	0.914575
2900.000000	0.914503
2899.000000	0.914445
2898.000000	0.914400
2897.000000	0.914356
2896.000000	0.914302
2895.000000	0.914240
2894.000000	0.914183
2893.000000	0.914138
2892.000000	0.914102
2891.000000	0.914066
2890.000000	0.914033
2889.000000	0.914003
2888.000000	0.913975
2887.000000	0.913942
2886.000000	0.913902
2885.000000	0.913859
2884.000000	0.913819
2883.000000	0.913779
2882.000000	0.913742
2881.000000	0.913705
2880.000000	0.913659
2879.000000	0.913598
2878.000000	0.913524
2877.000000	0.913449
2876.000000	0.913390
2875.000000	0.913357
2874.000000	0.913357
2873.000000	0.913381
2872.000000	0.913410
2871.000000	0.913426
2870.000000	0.913429
2869.000000	0.913429
2868.000000	0.913425
2867.000000	0.913409
2866.000000	0.913374
2865.000000	0.913320
2864.000000	0.913237
2863.000000	0.913109
2862.000000	0.912935
2861.000000	0.912741
2860.000000	0.912565
2859.000000	0.912429
2858.000000	0.912334
2857.000000	0.912269
2856.000000	0.912222
2855.000000	0.912183
2854.000000	0.912144
2853.000000	0.912104
2852.000000	0.912060
2851.000000	0.912002
2850.000000	0.911926
2849.000000	0.911845
2848.000000	0.911781
2847.000000	0.911750
2846.000000	0.911748
2845.000000	0.911758
2844.000000	0.911762
2843.000000	0.911747
2842.000000	0.911712
2841.000000	0.911667
2840.000000	0.911632
2839.000000	0.911619
2838.000000	0.911623
2837.000000	0.911631
2836.000000	0.911629
2835.000000	0.911616
2834.000000	0.911598
2833.000000	0.911578
2832.000000	0.911553
2831.000000	0.911522
2830.000000	0.911491
2829.000000	0.911463
2828.000000	0.911437
2827.000000	0.911401
2826.000000	0.911359
2825.000000	0.911323
2824.000000	0.911304
2823.000000	0.911291
2822.000000	0.911266
2821.000000	0.911226
2820.000000	0.911175
2819.000000	0.911122
2818.000000	0.911070
2817.000000	0.911024
2816.000000	0.910996
2815.000000	0.910986
2814.000000	0.910988
2813.000000	0.910988
2812.000000	0.910982
2811.000000	0.910964
2810.000000	0.910931
2809.000000	0.910884
2808.000000	0.910832
2807.000000	0.910782
2806.000000	0.910737
2805.000000	0.910696
2804.000000	0.910663
2803.000000	0.910641
2802.000000	0.910629
2801.000000	0.910618
2800.000000	0.910599
2799.000000	0.910568
2798.000000	0.910532
2797.000000	0.910505
2796.000000	0.910495
2795.000000	0.910501
2794.000000	0.910512
2793.000000	0.910523
2792.000000	0.910533
2791.000000	0.910536
2790.000000	0.910516
2789.000000	0.910466
2788.000000	0.910395
2787.000000	0.910325
2786.000000	0.910272
2785.000000	0.910232
2784.000000	0.910198
2783.000000	0.910168
2782.000000	0.910146
2781.000000	0.910131
2780.000000	0.910118
2779.000000	0.910104
2778.000000	0.910089
2777.000000	0.910072
2776.000000	0.910052
2775.000000	0.910032
2774.000000	0.910015
2773.000000	0.910003
2772.000000	0.909997
2771.000000	0.909994
2770.000000	0.909992
2769.000000	0.909980
2768.000000	0.909948
2767.000000	0.909903
2766.000000	0.909861
2765.000000	0.909835
2764.000000	0.909820
2763.000000	0.909805
2762.000000	0.909791
2761.000000	0.909779
2760.000000	0.909769
2759.000000	0.909759
2758.000000	0.909755
2757.000000	0.909764
2756.000000	0.909774
2755.000000	0.909759
2754.000000	0.909715
2753.000000	0.909665
2752.000000	0.909638
2751.000000	0.909643
2750.000000	0.909657
2749.000000	0.909662
2748.000000	0.909654
2747.000000	0.909641
2746.000000	0.909633
2745.000000	0.909633
2744.000000	0.909636
2743.000000	0.909636
2742.000000	0.909624
2741.000000	0.909600
2740.000000	0.909573
2739.000000	0.909548
2738.000000	0.909523
2737.000000	0.909496
2736.000000	0.909473
2735.000000	0.909468
2734.000000	0.909485
2733.000000	0.909511
2732.000000	0.909528
2731.000000	0.909531
2730.000000	0.909523
2729.000000	0.909506
2728.000000	0.909477
2727.000000	0.909441
2726.000000	0.909413
2725.000000	0.909408
2724.000000	0.909426
2723.000000	0.909448
2722.000000	0.909455
2721.000000	0.909445
2720.000000	0.909431
2719.000000	0.909425
2718.000000	0.909430
2717.000000	0.909439
2716.000000	0.909445
2715.000000	0.909444
2714.000000	0.909440
2713.000000	0.909436
2712.000000	0.909431
2711.000000	0.909422
2710.000000	0.909411
2709.000000	0.909402
2708.000000	0.909400
2707.000000	0.909401
2706.000000	0.909400
2705.000000	0.909394
2704.000000	0.909386
2703.000000	0.909384
2702.000000	0.909398
2701.000000	0.909426
2700.000000	0.909448
2699.000000	0.909444
2698.000000	0.909419
2697.000000	0.909398
2696.000000	0.909400
2695.000000	0.909416
2694.000000	0.909429
2693.000000	0.909431
2692.000000	0.909425
2691.000000	0.909415
2690.000000	0.909399
2689.000000	0.909383
2688.000000	0.909384
2687.000000	0.909416
2686.000000	0.909473
2685.000000	0.909530
2684.000000	0.909562
2683.000000	0.909565
2682.000000	0.909556
2681.000000	0.909549
2680.000000	0.909545
2679.000000	0.909538
2678.000000	0.909529
2677.000000	0.909532
2676.000000	0.909552
2675.000000	0.909583
2674.000000	0.909610
2673.000000	0.909627
2672.000000	0.909634
2671.000000	0.909634
2670.000000	0.909632
2669.000000	0.909639
2668.000000	0.909657
2667.000000	0.909681
2666.000000	0.909703
2665.000000	0.909723
2664.000000	0.909740
2663.000000	0.909746
2662.000000	0.909730
2661.000000	0.909696
2660.000000	0.909667
2659.000000	0.909671
2658.000000	0.909717
2657.000000	0.909788
2656.000000	0.909849
2655.000000	0.909879
2654.000000	0.909883
2653.000000	0.909888
2652.000000	0.909913
2651.000000	0.909952
2650.000000	0.909983
2649.000000	0.909995
2648.000000	0.909994
2647.000000	0.909996
2646.000000	0.910013
2645.000000	0.910050
2644.000000	0.910096
2643.000000	0.910134
2642.000000	0.910151
2641.000000	0.910146
2640.000000	0.910129
2639.000000	0.910114
2638.000000	0.910109
2637.000000	0.910126
2636.000000	0.910169
2635.000000	0.910231
2634.000000	0.910294
2633.000000	0.910341
2632.000000	0.910361
2631.000000	0.910360
2630.000000	0.910351
2629.000000	0.910357
2628.000000	0.910389
2627.000000	0.910431
2626.000000	0.910453
2625.000000	0.910444
2624.000000	0.910421
2623.000000	0.910409
2622.000000	0.910418
2621.000000	0.910445
2620.000000	0.910485
2619.000000	0.910534
2618.000000	0.910587
2617.000000	0.910634
2616.000000	0.910671
2615.000000	0.910698
2614.000000	0.910716
2613.000000	0.910728
2612.000000	0.910735
2611.000000	0.910738
2610.000000	0.910742
2609.000000	0.910753
2608.000000	0.910775
2607.000000	0.910806
2606.000000	0.910838
2605.000000	0.910871
2604.000000	0.910900
2603.000000	0.910924
2602.000000	0.910940
2601.000000	0.910955
2600.000000	0.910979
2599.000000	0.911017
2598.000000	0.911057
2597.000000	0.911084
2596.000000	0.911093
2595.000000	0.911095
2594.000000	0.911104
2593.000000	0.911127
2592.000000	0.911158
2591.000000	0.911184
2590.000000	0.911196
2589.000000	0.911200
2588.000000	0.911207
2587.000000	0.911225
2586.000000	0.911250
2585.000000	0.911276
2584.000000	0.911300
2583.000000	0.911322
2582.000000	0.911338
2581.000000	0.911348
2580.000000	0.911359
2579.000000	0.911385
2578.000000	0.911434
2577.000000	0.911492
2576.000000	0.911540
2575.000000	0.911573
2574.000000	0.911600
2573.000000	0.911631
2572.000000	0.911660
2571.000000	0.911667
2570.000000	0.911649
2569.000000	0.911626
2568.000000	0.911623
2567.000000	0.911644
2566.000000	0.911675
2565.000000	0.911702
2564.000000	0.911727
2563.000000	0.911755
2562.000000	0.911782
2561.000000	0.911799
2560.000000	0.911810
2559.000000	0.911825
2558.000000	0.911856
2557.000000	0.911905
2556.000000	0.911965
2555.000000	0.912021
2554.000000	0.912063
2553.000000	0.912093
2552.000000	0.912120
2551.000000	0.912152
2550.000000	0.912185
2549.000000	0.912210
2548.000000	0.912223
2547.000000	0.912228
2546.000000	0.912228
2545.000000	0.912226
2544.000000	0.912236
2543.000000	0.912270
2542.000000	0.912332
2541.000000	0.912402
2540.000000	0.912453
2539.000000	0.912474
2538.000000	0.912478
2537.000000	0.912492
2536.000000	0.912524
2535.000000	0.912558
2534.000000	0.912579
2533.000000	0.912591
2532.000000	0.912616
2531.000000	0.912659
2530.000000	0.912703
2529.000000	0.912728
2528.000000	0.912738
2527.000000	0.912750
2526.000000	0.912770
2525.000000	0.912790
2524.000000	0.912802
2523.000000	0.912815
2522.000000	0.912835
2521.000000	0.912866
2520.000000	0.912907
2519.000000	0.912958
2518.000000	0.913014
2517.000000	0.913061
2516.000000	0.913086
2515.000000	0.913091
2514.000000	0.913092
2513.000000	0.913101
2512.000000	0.913124
2511.000000	0.913156
2510.000000	0.913193
2509.000000	0.913228
2508.000000	0.913255
2507.000000	0.913278
2506.000000	0.913303
2505.000000	0.913328
2504.000000	0.913348
2503.000000	0.913371
2502.000000	0.913410
2501.000000	0.913469
2500.000000	0.913532
2499.000000	0.913577
2498.000000	0.913600
2497.000000	0.913612
2496.000000	0.913626
2495.000000	0.913646
2494.000000	0.913670
2493.000000	0.913696
2492.000000	0.913722
2491.000000	0.913748
2490.000000	0.913775
2489.000000	0.913806
2488.000000	0.913840
2487.000000	0.913870
2486.000000	0.913894
2485.000000	0.913916
2484.000000	0.913946
2483.000000	0.913991
2482.000000	0.914049
2481.000000	0.914107
2480.000000	0.914150
2479.000000	0.914176
2478.000000	0.914191
2477.000000	0.914205
2476.000000	0.914225
2475.000000	0.914252
2474.000000	0.914284
2473.000000	0.914318
2472.000000	0.914346
2471.000000	0.914368
2470.000000	0.914392
2469.000000	0.914429
2468.000000	0.914479
2467.000000	0.914533
2466.000000	0.914587
2465.000000	0.914633
2464.000000	0.914662
2463.000000	0.914669
2462.000000	0.914662
2461.000000	0.914663
2460.000000	0.914684
2459.000000	0.914719
2458.000000	0.914760
2457.000000	0.914809
2456.000000	0.914870
2455.000000	0.914931
2454.000000	0.914971
2453.000000	0.914982
2452.000000	0.914975
2451.000000	0.914974
2450.000000	0.914991
2449.000000	0.915026
2448.000000	0.915067
2447.000000	0.915097
2446.000000	0.915108
2445.000000	0.915106
2444.000000	0.915103
2443.000000	0.915108
2442.000000	0.915120
2441.000000	0.915131
2440.000000	0.915135
2439.000000	0.915133
2438.000000	0.915129
2437.000000	0.915130
2436.000000	0.915140
2435.000000	0.915162
2434.000000	0.915185
2433.000000	0.915196
2432.000000	0.915182
2431.000000	0.915148
2430.000000	0.915110
2429.000000	0.915086
2428.000000	0.915082
2427.000000	0.915089
2426.000000	0.915102
2425.000000	0.915123
2424.000000	0.915154
2423.000000	0.915184
2422.000000	0.915198
2421.000000	0.915187
2420.000000	0.915158
2419.000000	0.915127
2418.000000	0.915108
2417.000000	0.915110
2416.000000	0.915124
2415.000000	0.915133
2414.000000	0.915124
2413.000000	0.915097
2412.000000	0.915060
2411.000000	0.915012
2410.000000	0.914957
2409.000000	0.914909
2408.000000	0.914880
2407.000000	0.914868
2406.000000	0.914855
2405.000000	0.914832
2404.000000	0.914809
2403.000000	0.914800
2402.000000	0.914808
2401.000000	0.914821
2400.000000	0.914827
2399.000000	0.914821
2398.000000	0.914807
2397.000000	0.914789
2396.000000	0.914770
2395.000000	0.914746
2394.000000	0.914716
2393.000000	0.914695
2392.000000	0.914699
2391.000000	0.914728
2390.000000	0.914758
2389.000000	0.914765
2388.000000	0.914746
2387.000000	0.914717
2386.000000	0.914691
2385.000000	0.914679
2384.000000	0.914688
2383.000000	0.914721
2382.000000	0.914760
2381.000000	0.914779
2380.000000	0.914764
2379.000000	0.914726
2378.000000	0.914693
2377.000000	0.914682
2376.000000	0.914692
2375.000000	0.914711
2374.000000	0.914729
2373.000000	0.914740
2372.000000	0.914748
2371.000000	0.914760
2370.000000	0.914784
2369.000000	0.914809
2368.000000	0.914824
2367.000000	0.914822
2366.000000	0.914817
2365.000000	0.914818
2364.000000	0.914817
2363.000000	0.914793
2362.000000	0.914734
2361.000000	0.914660
2360.000000	0.914602
2359.000000	0.914576
2358.000000	0.914574
2357.000000	0.914578
2356.000000	0.914573
2355.000000	0.914554
2354.000000	0.914523
2353.000000	0.914497
2352.000000	0.914504
2351.000000	0.914569
2350.000000	0.914699
2349.000000	0.914885
2348.000000	0.915112
2347.000000	0.915377
2346.000000	0.915694
2345.000000	0.916079
2344.000000	0.916537
2343.000000	0.917053
2342.000000	0.917582
2341.000000	0.918045
2340.000000	0.918345
2339.000000	0.918410
2338.000000	0.918232
2337.000000	0.917880
2336.000000	0.917457
2335.000000	0.917056
2334.000000	0.916726
2333.000000	0.916484
2332.000000	0.916321
2331.000000	0.916220
2330.000000	0.916156
2329.000000	0.916109
2328.000000	0.916065
2327.000000	0.916018
2326.000000	0.915974
2325.000000	0.915945
2324.000000	0.915941
2323.000000	0.915955
2322.000000	0.915972
2321.000000	0.915981
2320.000000	0.915977
2319.000000	0.915967
2318.000000	0.915963
2317.000000	0.915971
2316.000000	0.915987
2315.000000	0.916001
2314.000000	0.916005
2313.000000	0.916007
2312.000000	0.916020
2311.000000	0.916056
2310.000000	0.916117
2309.000000	0.916185
2308.000000	0.916238
2307.000000	0.916261
2306.000000	0.916260
2305.000000	0.916255
2304.000000	0.916256
2303.000000	0.916259
2302.000000	0.916264
2301.000000	0.916285
2300.000000	0.916329
2299.000000	0.916378
2298.000000	0.916409
2297.000000	0.916416
2296.000000	0.916419
2295.000000	0.916430
2294.000000	0.916443
2293.000000	0.916456
2292.000000	0.916474
2291.000000	0.916500
2290.000000	0.916529
2289.000000	0.916552
2288.000000	0.916572
2287.000000	0.916592
2286.000000	0.916608
2285.000000	0.916615
2284.000000	0.916616
2283.000000	0.916621
2282.000000	0.916638
2281.000000	0.916669
2280.000000	0.916712
2279.000000	0.916763
2278.000000	0.916815
2277.000000	0.916858
2276.000000	0.916885
2275.000000	0.916897
2274.000000	0.916900
2273.000000	0.916898
2272.000000	0.916899
2271.000000	0.916905
2270.000000	0.916919
2269.000000	0.916936
2268.000000	0.916953
2267.000000	0.916966
2266.000000	0.916981
2265.000000	0.917003
2264.000000	0.917032
2263.000000	0.917056
2262.000000	0.917065
2261.000000	0.917064
2260.000000	0.917060
2259.000000	0.917056
2258.000000	0.917051
2257.000000	0.917051
2256.000000	0.917064
2255.000000	0.917083
2254.000000	0.917094
2253.000000	0.917099
2252.000000	0.917115
2251.000000	0.917155
2250.000000	0.917203
2249.000000	0.917235
2248.000000	0.917244
2247.000000	0.917241
2246.000000	0.917237
2245.000000	0.917237
2244.000000	0.917242
2243.000000	0.917259
2242.000000	0.917289
2241.000000	0.917328
2240.000000	0.917365
2239.000000	0.917392
2238.000000	0.917404
2237.000000	0.917404
2236.000000	0.917399
2235.000000	0.917394
2234.000000	0.917388
2233.000000	0.917378
2232.000000	0.917363
2231.000000	0.917350
2230.000000	0.917346
2229.000000	0.917353
2228.000000	0.917366
2227.000000	0.917377
2226.000000	0.917381
2225.000000	0.917383
2224.000000	0.917388
2223.000000	0.917396
2222.000000	0.917402
2221.000000	0.917403
2220.000000	0.917405
2219.000000	0.917412
2218.000000	0.917422
2217.000000	0.917425
2216.000000	0.917419
2215.000000	0.917406
2214.000000	0.917397
2213.000000	0.917401
2212.000000	0.917420
2211.000000	0.917445
2210.000000	0.917458
2209.000000	0.917457
2208.000000	0.917450
2207.000000	0.917452
2206.000000	0.917463
2205.000000	0.917475
2204.000000	0.917475
2203.000000	0.917458
2202.000000	0.917427
2201.000000	0.917394
2200.000000	0.917371
2199.000000	0.917358
2198.000000	0.917345
2197.000000	0.917326
2196.000000	0.917310
2195.000000	0.917303
2194.000000	0.917297
2193.000000	0.917279
2192.000000	0.917248
2191.000000	0.917219
2190.000000	0.917206
2189.000000	0.917211
2188.000000	0.917226
2187.000000	0.917236
2186.000000	0.917231
2185.000000	0.917212
2184.000000	0.917187
2183.000000	0.917165
2182.000000	0.917148
2181.000000	0.917132
2180.000000	0.917120
2179.000000	0.917113
2178.000000	0.917104
2177.000000	0.917087
2176.000000	0.917063
2175.000000	0.917036
2174.000000	0.917011
2173.000000	0.916992
2172.000000	0.916979
2171.000000	0.916968
2170.000000	0.916948
2169.000000	0.916917
2168.000000	0.916889
2167.000000	0.916883
2166.000000	0.916898
2165.000000	0.916916
2164.000000	0.916920
2163.000000	0.916906
2162.000000	0.916879
2161.000000	0.916841
2160.000000	0.916789
2159.000000	0.916724
2158.000000	0.916658
2157.000000	0.916610
2156.000000	0.916589
2155.000000	0.916585
2154.000000	0.916579
2153.000000	0.916564
2152.000000	0.916547
2151.000000	0.916530
2150.000000	0.916502
2149.000000	0.916448
2148.000000	0.916383
2147.000000	0.916330
2146.000000	0.916302
2145.000000	0.916281
2144.000000	0.916251
2143.000000	0.916215
2142.000000	0.916178
2141.000000	0.916144
2140.000000	0.916110
2139.000000	0.916085
2138.000000	0.916081
2137.000000	0.916095
2136.000000	0.916108
2135.000000	0.916102
2134.000000	0.916070
2133.000000	0.916022
2132.000000	0.915972
2131.000000	0.915938
2130.000000	0.915924
2129.000000	0.915920
2128.000000	0.915909
2127.000000	0.915880
2126.000000	0.915833
2125.000000	0.915770
2124.000000	0.915697
2123.000000	0.915627
2122.000000	0.915575
2121.000000	0.915546
2120.000000	0.915528
2119.000000	0.915506
2118.000000	0.915479
2117.000000	0.915455
2116.000000	0.915441
2115.000000	0.915428
2114.000000	0.915398
2113.000000	0.915347
2112.000000	0.915284
2111.000000	0.915223
2110.000000	0.915170
2109.000000	0.915126
2108.000000	0.915094
2107.000000	0.915072
2106.000000	0.915049
2105.000000	0.915007
2104.000000	0.914944
2103.000000	0.914875
2102.000000	0.914818
2101.000000	0.914776
2100.000000	0.914738
2099.000000	0.914698
2098.000000	0.914661
2097.000000	0.914634
2096.000000	0.914617
2095.000000	0.914602
2094.000000	0.914579
2093.000000	0.914539
2092.000000	0.914479
2091.000000	0.914412
2090.000000	0.914354
2089.000000	0.914314
2088.000000	0.914286
2087.000000	0.914261
2086.000000	0.914229
2085.000000	0.914190
2084.000000	0.914147
2083.000000	0.914108
2082.000000	0.914073
2081.000000	0.914039
2080.000000	0.914001
2079.000000	0.913959
2078.000000	0.913918
2077.000000	0.913879
2076.000000	0.913833
2075.000000	0.913774
2074.000000	0.913705
2073.000000	0.913639
2072.000000	0.913587
2071.000000	0.913550
2070.000000	0.913522
2069.000000	0.913501
2068.000000	0.913482
2067.000000	0.913456
2066.000000	0.913416
2065.000000	0.913366
2064.000000	0.913315
2063.000000	0.913272
2062.000000	0.913228
2061.000000	0.913176
2060.000000	0.913115
2059.000000	0.913062
2058.000000	0.913027
2057.000000	0.913008
2056.000000	0.912989
2055.000000	0.912955
2054.000000	0.912902
2053.000000	0.912836
2052.000000	0.912761
2051.000000	0.912683
2050.000000	0.912612
2049.000000	0.912559
2048.000000	0.912528
2047.000000	0.912511
2046.000000	0.912499
2045.000000	0.912490
2044.000000	0.912487
2043.000000	0.912483
2042.000000	0.912460
2041.000000	0.912406
2040.000000	0.912321
2039.000000	0.912221
2038.000000	0.912130
2037.000000	0.912067
2036.000000	0.912040
2035.000000	0.912039
2034.000000	0.912040
2033.000000	0.912026
2032.000000	0.911992
2031.000000	0.911944
2030.000000	0.911889
2029.000000	0.911837
2028.000000	0.911794
2027.000000	0.911761
2026.000000	0.911725
2025.000000	0.911669
2024.000000	0.911591
2023.000000	0.911510
2022.000000	0.911453
2021.000000	0.911434
2020.000000	0.911437
2019.000000	0.911438
2018.000000	0.911420
2017.000000	0.911385
2016.000000	0.911340
2015.000000	0.911284
2014.000000	0.911221
2013.000000	0.911160
2012.000000	0.911109
2011.000000	0.911063
2010.000000	0.911013
2009.000000	0.910961
2008.000000	0.910916
2007.000000	0.910886
2006.000000	0.910883
2005.000000	0.910932
2004.000000	0.911051
2003.000000	0.911197
2002.000000	0.911271
2001.000000	0.911195
2000.000000	0.910990
1999.000000	0.910764
1998.000000	0.910609
1997.000000	0.910542
1996.000000	0.910526
1995.000000	0.910528
1994.000000	0.910529
1993.000000	0.910511
1992.000000	0.910460
1991.000000	0.910382
1990.000000	0.910304
1989.000000	0.910253
1988.000000	0.910234
1987.000000	0.910228
1986.000000	0.910212
1985.000000	0.910176
1984.000000	0.910122
1983.000000	0.910064
1982.000000	0.910014
1981.000000	0.909974
1980.000000	0.909936
1979.000000	0.909899
1978.000000	0.909869
1977.000000	0.909851
1976.000000	0.909844
1975.000000	0.909839
1974.000000	0.909829
1973.000000	0.909809
1972.000000	0.909780
1971.000000	0.909756
1970.000000	0.909743
1969.000000	0.909736
1968.000000	0.909718
1967.000000	0.909683
1966.000000	0.909641
1965.000000	0.909599
1964.000000	0.909562
1963.000000	0.909538
1962.000000	0.909539
1961.000000	0.909562
1960.000000	0.909581
1959.000000	0.909577
1958.000000	0.909551
1957.000000	0.909520
1956.000000	0.909489
1955.000000	0.909455
1954.000000	0.909426
1953.000000	0.909412
1952.000000	0.909409
1951.000000	0.909402
1950.000000	0.909389
1949.000000	0.909386
1948.000000	0.909403
1947.000000	0.909430
1946.000000	0.909453
1945.000000	0.909465
1944.000000	0.909463
1943.000000	0.909445
1942.000000	0.909418
1941.000000	0.909399
1940.000000	0.909397
1939.000000	0.909400
1938.000000	0.909389
1937.000000	0.909355
1936.000000	0.909311
1935.000000	0.909280
1934.000000	0.909281
1933.000000	0.909315
1932.000000	0.909358
1931.000000	0.909381
1930.000000	0.909376
1929.000000	0.909364
1928.000000	0.909363
1927.000000	0.909370
1926.000000	0.909369
1925.000000	0.909354
1924.000000	0.909330
1923.000000	0.909305
1922.000000	0.909287
1921.000000	0.909287
1920.000000	0.909310
1919.000000	0.909345
1918.000000	0.909373
1917.000000	0.909379
1916.000000	0.909363
1915.000000	0.909336
1914.000000	0.909312
1913.000000	0.909302
1912.000000	0.909304
1911.000000	0.909312
1910.000000	0.909326
1909.000000	0.909353
1908.000000	0.909389
1907.000000	0.909421
1906.000000	0.909437
1905.000000	0.909441
1904.000000	0.909443
1903.000000	0.909443
1902.000000	0.909434
1901.000000	0.909417
1900.000000	0.909401
1899.000000	0.909398
1898.000000	0.909420
1897.000000	0.909464
1896.000000	0.909505
1895.000000	0.909518
1894.000000	0.909501
1893.000000	0.909482
1892.000000	0.909478
1891.000000	0.909478
1890.000000	0.909466
1889.000000	0.909452
1888.000000	0.909456
1887.000000	0.909474
1886.000000	0.909486
1885.000000	0.909478
1884.000000	0.909459
1883.000000	0.909433
1882.000000	0.909401
1881.000000	0.909371
1880.000000	0.909352
1879.000000	0.909342
1878.000000	0.909336
1877.000000	0.909338
1876.000000	0.909362
1875.000000	0.909409
1874.000000	0.909464
1873.000000	0.909518
1872.000000	0.909565
1871.000000	0.909589
1870.000000	0.909570
1869.000000	0.909520
1868.000000	0.909476
1867.000000	0.909463
1866.000000	0.909470
1865.000000	0.909479
1864.000000	0.909487
1863.000000	0.909503
1862.000000	0.909527
1861.000000	0.909548
1860.000000	0.909564
1859.000000	0.909574
1858.000000	0.909581
1857.000000	0.909590
1856.000000	0.909606
1855.000000	0.909625
1854.000000	0.909634
1853.000000	0.909632
1852.000000	0.909635
1851.000000	0.909655
1850.000000	0.909687
1849.000000	0.909725
1848.000000	0.909775
1847.000000	0.909829
1846.000000	0.909857
1845.000000	0.909830
1844.000000	0.909756
1843.000000	0.909681
1842.000000	0.909651
1841.000000	0.909675
1840.000000	0.909729
1839.000000	0.909781
1838.000000	0.909819
1837.000000	0.909846
1836.000000	0.909874
1835.000000	0.909904
1834.000000	0.909930
1833.000000	0.909954
1832.000000	0.909972
1831.000000	0.909977
1830.000000	0.909969
1829.000000	0.909966
1828.000000	0.909988
1827.000000	0.910036
1826.000000	0.910085
1825.000000	0.910123
1824.000000	0.910160
1823.000000	0.910204
1822.000000	0.910249
1821.000000	0.910292
1820.000000	0.910339
1819.000000	0.910392
1818.000000	0.910437
1817.000000	0.910457
1816.000000	0.910461
1815.000000	0.910474
1814.000000	0.910506
1813.000000	0.910553
1812.000000	0.910597
1811.000000	0.910627
1810.000000	0.910642
1809.000000	0.910660
1808.000000	0.910699
1807.000000	0.910753
1806.000000	0.910794
1805.000000	0.910813
1804.000000	0.910828
1803.000000	0.910859
1802.000000	0.910901
1801.000000	0.910932
1800.000000	0.910950
1799.000000	0.910967
1798.000000	0.910996
1797.000000	0.911046
1796.000000	0.911113
1795.000000	0.911177
1794.000000	0.911203
1793.000000	0.911175
1792.000000	0.911123
1791.000000	0.911097
1790.000000	0.911125
1789.000000	0.911195
1788.000000	0.911280
1787.000000	0.911355
1786.000000	0.911405
1785.000000	0.911434
1784.000000	0.911467
1783.000000	0.911515
1782.000000	0.911564
1781.000000	0.911594
1780.000000	0.911607
1779.000000	0.911622
1778.000000	0.911662
1777.000000	0.911739
1776.000000	0.911855
1775.000000	0.911975
1774.000000	0.912039
1773.000000	0.912021
1772.000000	0.911974
1771.000000	0.911984
1770.000000	0.912064
1769.000000	0.912150
1768.000000	0.912188
1767.000000	0.912203
1766.000000	0.912253
1765.000000	0.912352
1764.000000	0.912450
1763.000000	0.912497
1762.000000	0.912493
1761.000000	0.912487
1760.000000	0.912528
1759.000000	0.912621
1758.000000	0.912723
1757.000000	0.912795
1756.000000	0.912849
1755.000000	0.912928
1754.000000	0.913045
1753.000000	0.913154
1752.000000	0.913202
1751.000000	0.913190
1750.000000	0.913168
1749.000000	0.913176
1748.000000	0.913217
1747.000000	0.913277
1746.000000	0.913340
1745.000000	0.913397
1744.000000	0.913447
1743.000000	0.913499
1742.000000	0.913559
1741.000000	0.913618
1740.000000	0.913661
1739.000000	0.913707
1738.000000	0.913796
1737.000000	0.913926
1736.000000	0.914026
1735.000000	0.914019
1734.000000	0.913926
1733.000000	0.913856
1732.000000	0.913890
1731.000000	0.914001
1730.000000	0.914104
1729.000000	0.914159
1728.000000	0.914194
1727.000000	0.914250
1726.000000	0.914328
1725.000000	0.914405
1724.000000	0.914464
1723.000000	0.914515
1722.000000	0.914585
1721.000000	0.914688
1720.000000	0.914793
1719.000000	0.914834
1718.000000	0.914776
1717.000000	0.914672
1716.000000	0.914618
1715.000000	0.914655
1714.000000	0.914744
1713.000000	0.914840
1712.000000	0.914933
1711.000000	0.915023
1710.000000	0.915100
1709.000000	0.915157
1708.000000	0.915204
1707.000000	0.915238
1706.000000	0.915242
1705.000000	0.915240
1704.000000	0.915297
1703.000000	0.915419
1702.000000	0.915509
1701.000000	0.915484
1700.000000	0.915399
1699.000000	0.915382
1698.000000	0.915452
1697.000000	0.915490
1696.000000	0.915405
1695.000000	0.915267
1694.000000	0.915216
1693.000000	0.915307
1692.000000	0.915466
1691.000000	0.915593
1690.000000	0.915660
1689.000000	0.915716
1688.000000	0.915818
1687.000000	0.915944
1686.000000	0.915995
1685.000000	0.915897
1684.000000	0.915715
1683.000000	0.915600
1682.000000	0.915637
1681.000000	0.915769
1680.000000	0.915890
1679.000000	0.915962
1678.000000	0.916005
1677.000000	0.916027
1676.000000	0.916010
1675.000000	0.915975
1674.000000	0.915987
1673.000000	0.916074
1672.000000	0.916183
1671.000000	0.916230
1670.000000	0.916191
1669.000000	0.916118
1668.000000	0.916087
1667.000000	0.916131
1666.000000	0.916224
1665.000000	0.916309
1664.000000	0.916347
1663.000000	0.916335
1662.000000	0.916307
1661.000000	0.916296
1660.000000	0.916309
1659.000000	0.916345
1658.000000	0.916413
1657.000000	0.916536
1656.000000	0.916692
1655.000000	0.916782
1654.000000	0.916693
1653.000000	0.916438
1652.000000	0.916187
1651.000000	0.916117
1650.000000	0.916239
1649.000000	0.916410
1648.000000	0.916488
1647.000000	0.916449
1646.000000	0.916359
1645.000000	0.916292
1644.000000	0.916282
1643.000000	0.916330
1642.000000	0.916406
1641.000000	0.916477
1640.000000	0.916538
1639.000000	0.916608
1638.000000	0.916678
1637.000000	0.916697
1636.000000	0.916636
1635.000000	0.916543
1634.000000	0.916491
1633.000000	0.916508
1632.000000	0.916557
1631.000000	0.916591
1630.000000	0.916590
1629.000000	0.916558
1628.000000	0.916520
1627.000000	0.916516
1626.000000	0.916564
1625.000000	0.916630
1624.000000	0.916651
1623.000000	0.916604
1622.000000	0.916529
1621.000000	0.916492
1620.000000	0.916517
1619.000000	0.916568
1618.000000	0.916583
1617.000000	0.916539
1616.000000	0.916482
1615.000000	0.916492
1614.000000	0.916596
1613.000000	0.916729
1612.000000	0.916806
1611.000000	0.916795
1610.000000	0.916730
1609.000000	0.916651
1608.000000	0.916577
1607.000000	0.916524
1606.000000	0.916508
1605.000000	0.916521
1604.000000	0.916530
1603.000000	0.916519
1602.000000	0.916505
1601.000000	0.916508
1600.000000	0.916529
1599.000000	0.916554
1598.000000	0.916571
1597.000000	0.916578
1596.000000	0.916582
1595.000000	0.916595
1594.000000	0.916621
1593.000000	0.916650
1592.000000	0.916666
1591.000000	0.916667
1590.000000	0.916666
1589.000000	0.916668
1588.000000	0.916672
1587.000000	0.916680
1586.000000	0.916704
1585.000000	0.916748
1584.000000	0.916788
1583.000000	0.916800
1582.000000	0.916785
1581.000000	0.916781
1580.000000	0.916824
1579.000000	0.916907
1578.000000	0.916966
1577.000000	0.916929
1576.000000	0.916806
1575.000000	0.916696
1574.000000	0.916696
1573.000000	0.916801
1572.000000	0.916917
1571.000000	0.916960
1570.000000	0.916935
1569.000000	0.916905
1568.000000	0.916917
1567.000000	0.916961
1566.000000	0.916997
1565.000000	0.917008
1564.000000	0.917038
1563.000000	0.917142
1562.000000	0.917304
1561.000000	0.917398
1560.000000	0.917307
1559.000000	0.917067
1558.000000	0.916852
1557.000000	0.916787
1556.000000	0.916828
1555.000000	0.916858
1554.000000	0.916837
1553.000000	0.916820
1552.000000	0.916851
1551.000000	0.916907
1550.000000	0.916948
1549.000000	0.916979
1548.000000	0.917018
1547.000000	0.917067
1546.000000	0.917106
1545.000000	0.917132
1544.000000	0.917162
1543.000000	0.917203
1542.000000	0.917227
1541.000000	0.917188
1540.000000	0.917073
1539.000000	0.916944
1538.000000	0.916905
1537.000000	0.916998
1536.000000	0.917152
1535.000000	0.917248
1534.000000	0.917236
1533.000000	0.917164
1532.000000	0.917104
1531.000000	0.917086
1530.000000	0.917106
1529.000000	0.917151
1528.000000	0.917202
1527.000000	0.917234
1526.000000	0.917248
1525.000000	0.917277
1524.000000	0.917331
1523.000000	0.917360
1522.000000	0.917307
1521.000000	0.917199
1520.000000	0.917124
1519.000000	0.917129
1518.000000	0.917177
1517.000000	0.917207
1516.000000	0.917216
1515.000000	0.917235
1514.000000	0.917273
1513.000000	0.917304
1512.000000	0.917318
1511.000000	0.917337
1510.000000	0.917380
1509.000000	0.917417
1508.000000	0.917394
1507.000000	0.917296
1506.000000	0.917185
1505.000000	0.917164
1504.000000	0.917292
1503.000000	0.917535
1502.000000	0.917804
1501.000000	0.918032
1500.000000	0.918210
