PE IR       SUBTECH     SPECTRUM    ASCII       PEDS        4.00        
   -1
TE108B2_008.ASC
20/02/27
13:50:12.00
20/02/27
13:50:12.00
Administrator
Sample 008 By Administrator Date Thursday, February 27 2020
1500.000000
#HDR
-1
-1
#GR
cm-1
A
1.0
0.0
4000.000000
-1.000000
2501
8
0.847971
0.812247
#DATA
4000.000000	0.819483
3999.000000	0.819444
3998.000000	0.819409
3997.000000	0.819389
3996.000000	0.819387
3995.000000	0.819396
3994.000000	0.819406
3993.000000	0.819413
3992.000000	0.819415
3991.000000	0.819416
3990.000000	0.819421
3989.000000	0.819428
3988.000000	0.819432
3987.000000	0.819425
3986.000000	0.819403
3985.000000	0.819369
3984.000000	0.819327
3983.000000	0.819286
3982.000000	0.819253
3981.000000	0.819228
3980.000000	0.819212
3979.000000	0.819199
3978.000000	0.819184
3977.000000	0.819167
3976.000000	0.819150
3975.000000	0.819141
3974.000000	0.819143
3973.000000	0.819151
3972.000000	0.819157
3971.000000	0.819153
3970.000000	0.819132
3969.000000	0.819098
3968.000000	0.819053
3967.000000	0.819003
3966.000000	0.818957
3965.000000	0.818924
3964.000000	0.818907
3963.000000	0.818900
3962.000000	0.818893
3961.000000	0.818877
3960.000000	0.818845
3959.000000	0.818801
3958.000000	0.818747
3957.000000	0.818695
3956.000000	0.818655
3955.000000	0.818631
3954.000000	0.818619
3953.000000	0.818606
3952.000000	0.818585
3951.000000	0.818554
3950.000000	0.818520
3949.000000	0.818488
3948.000000	0.818459
3947.000000	0.818433
3946.000000	0.818410
3945.000000	0.818389
3944.000000	0.818366
3943.000000	0.818335
3942.000000	0.818289
3941.000000	0.818233
3940.000000	0.818174
3939.000000	0.818121
3938.000000	0.818082
3937.000000	0.818052
3936.000000	0.818025
3935.000000	0.817990
3934.000000	0.817941
3933.000000	0.817883
3932.000000	0.817823
3931.000000	0.817771
3930.000000	0.817729
3929.000000	0.817691
3928.000000	0.817653
3927.000000	0.817611
3926.000000	0.817566
3925.000000	0.817521
3924.000000	0.817474
3923.000000	0.817425
3922.000000	0.817378
3921.000000	0.817337
3920.000000	0.817301
3919.000000	0.817261
3918.000000	0.817209
3917.000000	0.817151
3916.000000	0.817098
3915.000000	0.817062
3914.000000	0.817042
3913.000000	0.817027
3912.000000	0.817010
3911.000000	0.816988
3910.000000	0.816964
3909.000000	0.816936
3908.000000	0.816897
3907.000000	0.816840
3906.000000	0.816766
3905.000000	0.816684
3904.000000	0.816606
3903.000000	0.816542
3902.000000	0.816494
3901.000000	0.816455
3900.000000	0.816416
3899.000000	0.816374
3898.000000	0.816339
3897.000000	0.816318
3896.000000	0.816310
3895.000000	0.816299
3894.000000	0.816274
3893.000000	0.816231
3892.000000	0.816176
3891.000000	0.816121
3890.000000	0.816075
3889.000000	0.816043
3888.000000	0.816020
3887.000000	0.815992
3886.000000	0.815950
3885.000000	0.815895
3884.000000	0.815843
3883.000000	0.815806
3882.000000	0.815778
3881.000000	0.815747
3880.000000	0.815703
3879.000000	0.815654
3878.000000	0.815617
3877.000000	0.815598
3876.000000	0.815587
3875.000000	0.815566
3874.000000	0.815527
3873.000000	0.815473
3872.000000	0.815413
3871.000000	0.815349
3870.000000	0.815280
3869.000000	0.815210
3868.000000	0.815151
3867.000000	0.815112
3866.000000	0.815087
3865.000000	0.815063
3864.000000	0.815031
3863.000000	0.815000
3862.000000	0.814984
3861.000000	0.814985
3860.000000	0.814990
3859.000000	0.814981
3858.000000	0.814954
3857.000000	0.814910
3856.000000	0.814843
3855.000000	0.814737
3854.000000	0.814586
3853.000000	0.814424
3852.000000	0.814305
3851.000000	0.814273
3850.000000	0.814324
3849.000000	0.814410
3848.000000	0.814476
3847.000000	0.814493
3846.000000	0.814466
3845.000000	0.814420
3844.000000	0.814374
3843.000000	0.814339
3842.000000	0.814315
3841.000000	0.814294
3840.000000	0.814261
3839.000000	0.814198
3838.000000	0.814102
3837.000000	0.813997
3836.000000	0.813918
3835.000000	0.813891
3834.000000	0.813909
3833.000000	0.813940
3832.000000	0.813955
3831.000000	0.813947
3830.000000	0.813932
3829.000000	0.813925
3828.000000	0.813927
3827.000000	0.813920
3826.000000	0.813893
3825.000000	0.813847
3824.000000	0.813793
3823.000000	0.813733
3822.000000	0.813665
3821.000000	0.813594
3820.000000	0.813539
3819.000000	0.813514
3818.000000	0.813508
3817.000000	0.813490
3816.000000	0.813439
3815.000000	0.813369
3814.000000	0.813321
3813.000000	0.813322
3812.000000	0.813362
3811.000000	0.813408
3810.000000	0.813431
3809.000000	0.813420
3808.000000	0.813381
3807.000000	0.813328
3806.000000	0.813282
3805.000000	0.813257
3804.000000	0.813252
3803.000000	0.813242
3802.000000	0.813201
3801.000000	0.813132
3800.000000	0.813061
3799.000000	0.813023
3798.000000	0.813025
3797.000000	0.813049
3796.000000	0.813076
3795.000000	0.813096
3794.000000	0.813110
3793.000000	0.813119
3792.000000	0.813121
3791.000000	0.813115
3790.000000	0.813107
3789.000000	0.813103
3788.000000	0.813104
3787.000000	0.813108
3786.000000	0.813114
3785.000000	0.813120
3784.000000	0.813124
3783.000000	0.813116
3782.000000	0.813092
3781.000000	0.813055
3780.000000	0.813016
3779.000000	0.812983
3778.000000	0.812957
3777.000000	0.812931
3776.000000	0.812904
3775.000000	0.812880
3774.000000	0.812864
3773.000000	0.812856
3772.000000	0.812851
3771.000000	0.812846
3770.000000	0.812840
3769.000000	0.812832
3768.000000	0.812817
3767.000000	0.812793
3766.000000	0.812764
3765.000000	0.812738
3764.000000	0.812722
3763.000000	0.812717
3762.000000	0.812713
3761.000000	0.812702
3760.000000	0.812677
3759.000000	0.812639
3758.000000	0.812598
3757.000000	0.812567
3756.000000	0.812557
3755.000000	0.812568
3754.000000	0.812581
3753.000000	0.812571
3752.000000	0.812522
3751.000000	0.812442
3750.000000	0.812362
3749.000000	0.812318
3748.000000	0.812321
3747.000000	0.812351
3746.000000	0.812367
3745.000000	0.812343
3744.000000	0.812289
3743.000000	0.812247
3742.000000	0.812259
3741.000000	0.812325
3740.000000	0.812411
3739.000000	0.812470
3738.000000	0.812477
3737.000000	0.812440
3736.000000	0.812380
3735.000000	0.812324
3734.000000	0.812287
3733.000000	0.812272
3732.000000	0.812274
3731.000000	0.812283
3730.000000	0.812298
3729.000000	0.812323
3728.000000	0.812356
3727.000000	0.812393
3726.000000	0.812425
3725.000000	0.812449
3724.000000	0.812466
3723.000000	0.812477
3722.000000	0.812484
3721.000000	0.812493
3720.000000	0.812511
3719.000000	0.812541
3718.000000	0.812579
3717.000000	0.812621
3716.000000	0.812657
3715.000000	0.812677
3714.000000	0.812682
3713.000000	0.812698
3712.000000	0.812771
3711.000000	0.812943
3710.000000	0.813200
3709.000000	0.813471
3708.000000	0.813672
3707.000000	0.813760
3706.000000	0.813754
3705.000000	0.813713
3704.000000	0.813688
3703.000000	0.813700
3702.000000	0.813747
3701.000000	0.813824
3700.000000	0.813924
3699.000000	0.814042
3698.000000	0.814167
3697.000000	0.814284
3696.000000	0.814384
3695.000000	0.814461
3694.000000	0.814516
3693.000000	0.814552
3692.000000	0.814569
3691.000000	0.814565
3690.000000	0.814541
3689.000000	0.814507
3688.000000	0.814489
3687.000000	0.814514
3686.000000	0.814598
3685.000000	0.814729
3684.000000	0.814879
3683.000000	0.815022
3682.000000	0.815148
3681.000000	0.815266
3680.000000	0.815384
3679.000000	0.815505
3678.000000	0.815619
3677.000000	0.815713
3676.000000	0.815785
3675.000000	0.815854
3674.000000	0.815953
3673.000000	0.816096
3672.000000	0.816264
3671.000000	0.816418
3670.000000	0.816537
3669.000000	0.816637
3668.000000	0.816751
3667.000000	0.816901
3666.000000	0.817080
3665.000000	0.817267
3664.000000	0.817442
3663.000000	0.817599
3662.000000	0.817737
3661.000000	0.817865
3660.000000	0.817995
3659.000000	0.818132
3658.000000	0.818272
3657.000000	0.818406
3656.000000	0.818533
3655.000000	0.818657
3654.000000	0.818785
3653.000000	0.818911
3652.000000	0.819021
3651.000000	0.819105
3650.000000	0.819166
3649.000000	0.819219
3648.000000	0.819283
3647.000000	0.819370
3646.000000	0.819486
3645.000000	0.819626
3644.000000	0.819780
3643.000000	0.819929
3642.000000	0.820061
3641.000000	0.820173
3640.000000	0.820273
3639.000000	0.820370
3638.000000	0.820466
3637.000000	0.820560
3636.000000	0.820651
3635.000000	0.820742
3634.000000	0.820831
3633.000000	0.820916
3632.000000	0.820996
3631.000000	0.821071
3630.000000	0.821138
3629.000000	0.821196
3628.000000	0.821254
3627.000000	0.821321
3626.000000	0.821405
3625.000000	0.821502
3624.000000	0.821598
3623.000000	0.821690
3622.000000	0.821781
3621.000000	0.821879
3620.000000	0.821980
3619.000000	0.822071
3618.000000	0.822144
3617.000000	0.822202
3616.000000	0.822259
3615.000000	0.822330
3614.000000	0.822418
3613.000000	0.822516
3612.000000	0.822613
3611.000000	0.822703
3610.000000	0.822788
3609.000000	0.822872
3608.000000	0.822954
3607.000000	0.823028
3606.000000	0.823089
3605.000000	0.823144
3604.000000	0.823212
3603.000000	0.823317
3602.000000	0.823466
3601.000000	0.823639
3600.000000	0.823800
3599.000000	0.823916
3598.000000	0.823982
3597.000000	0.824015
3596.000000	0.824037
3595.000000	0.824062
3594.000000	0.824096
3593.000000	0.824139
3592.000000	0.824190
3591.000000	0.824250
3590.000000	0.824313
3589.000000	0.824376
3588.000000	0.824428
3587.000000	0.824465
3586.000000	0.824496
3585.000000	0.824535
3584.000000	0.824595
3583.000000	0.824668
3582.000000	0.824739
3581.000000	0.824799
3580.000000	0.824853
3579.000000	0.824908
3578.000000	0.824972
3577.000000	0.825038
3576.000000	0.825100
3575.000000	0.825151
3574.000000	0.825196
3573.000000	0.825243
3572.000000	0.825298
3571.000000	0.825360
3570.000000	0.825422
3569.000000	0.825475
3568.000000	0.825515
3567.000000	0.825544
3566.000000	0.825572
3565.000000	0.825612
3564.000000	0.825670
3563.000000	0.825738
3562.000000	0.825804
3561.000000	0.825859
3560.000000	0.825903
3559.000000	0.825947
3558.000000	0.825995
3557.000000	0.826052
3556.000000	0.826117
3555.000000	0.826188
3554.000000	0.826261
3553.000000	0.826330
3552.000000	0.826389
3551.000000	0.826438
3550.000000	0.826482
3549.000000	0.826523
3548.000000	0.826561
3547.000000	0.826595
3546.000000	0.826628
3545.000000	0.826668
3544.000000	0.826723
3543.000000	0.826795
3542.000000	0.826884
3541.000000	0.826979
3540.000000	0.827067
3539.000000	0.827134
3538.000000	0.827176
3537.000000	0.827208
3536.000000	0.827246
3535.000000	0.827303
3534.000000	0.827378
3533.000000	0.827464
3532.000000	0.827549
3531.000000	0.827630
3530.000000	0.827707
3529.000000	0.827783
3528.000000	0.827859
3527.000000	0.827935
3526.000000	0.828013
3525.000000	0.828093
3524.000000	0.828174
3523.000000	0.828253
3522.000000	0.828331
3521.000000	0.828415
3520.000000	0.828511
3519.000000	0.828619
3518.000000	0.828733
3517.000000	0.828847
3516.000000	0.828958
3515.000000	0.829063
3514.000000	0.829161
3513.000000	0.829248
3512.000000	0.829324
3511.000000	0.829395
3510.000000	0.829471
3509.000000	0.829566
3508.000000	0.829687
3507.000000	0.829827
3506.000000	0.829972
3505.000000	0.830107
3504.000000	0.830224
3503.000000	0.830325
3502.000000	0.830416
3501.000000	0.830504
3500.000000	0.830599
3499.000000	0.830709
3498.000000	0.830836
3497.000000	0.830979
3496.000000	0.831128
3495.000000	0.831273
3494.000000	0.831408
3493.000000	0.831530
3492.000000	0.831641
3491.000000	0.831744
3490.000000	0.831844
3489.000000	0.831951
3488.000000	0.832077
3487.000000	0.832223
3486.000000	0.832379
3485.000000	0.832528
3484.000000	0.832660
3483.000000	0.832779
3482.000000	0.832900
3481.000000	0.833031
3480.000000	0.833172
3479.000000	0.833311
3478.000000	0.833444
3477.000000	0.833577
3476.000000	0.833719
3475.000000	0.833870
3474.000000	0.834020
3473.000000	0.834166
3472.000000	0.834308
3471.000000	0.834450
3470.000000	0.834587
3469.000000	0.834714
3468.000000	0.834830
3467.000000	0.834946
3466.000000	0.835078
3465.000000	0.835232
3464.000000	0.835398
3463.000000	0.835559
3462.000000	0.835705
3461.000000	0.835839
3460.000000	0.835967
3459.000000	0.836093
3458.000000	0.836214
3457.000000	0.836328
3456.000000	0.836443
3455.000000	0.836568
3454.000000	0.836705
3453.000000	0.836846
3452.000000	0.836979
3451.000000	0.837102
3450.000000	0.837220
3449.000000	0.837345
3448.000000	0.837479
3447.000000	0.837612
3446.000000	0.837730
3445.000000	0.837827
3444.000000	0.837913
3443.000000	0.838004
3442.000000	0.838113
3441.000000	0.838238
3440.000000	0.838368
3439.000000	0.838493
3438.000000	0.838607
3437.000000	0.838710
3436.000000	0.838807
3435.000000	0.838904
3434.000000	0.839005
3433.000000	0.839111
3432.000000	0.839219
3431.000000	0.839328
3430.000000	0.839436
3429.000000	0.839544
3428.000000	0.839656
3427.000000	0.839769
3426.000000	0.839877
3425.000000	0.839973
3424.000000	0.840060
3423.000000	0.840148
3422.000000	0.840246
3421.000000	0.840356
3420.000000	0.840469
3419.000000	0.840572
3418.000000	0.840655
3417.000000	0.840721
3416.000000	0.840780
3415.000000	0.840841
3414.000000	0.840905
3413.000000	0.840973
3412.000000	0.841048
3411.000000	0.841133
3410.000000	0.841221
3409.000000	0.841300
3408.000000	0.841368
3407.000000	0.841431
3406.000000	0.841500
3405.000000	0.841578
3404.000000	0.841653
3403.000000	0.841711
3402.000000	0.841746
3401.000000	0.841766
3400.000000	0.841787
3399.000000	0.841826
3398.000000	0.841888
3397.000000	0.841964
3396.000000	0.842039
3395.000000	0.842098
3394.000000	0.842133
3393.000000	0.842150
3392.000000	0.842164
3391.000000	0.842189
3390.000000	0.842229
3389.000000	0.842282
3388.000000	0.842342
3387.000000	0.842404
3386.000000	0.842462
3385.000000	0.842510
3384.000000	0.842542
3383.000000	0.842562
3382.000000	0.842579
3381.000000	0.842601
3380.000000	0.842632
3379.000000	0.842663
3378.000000	0.842685
3377.000000	0.842702
3376.000000	0.842723
3375.000000	0.842758
3374.000000	0.842800
3373.000000	0.842833
3372.000000	0.842847
3371.000000	0.842850
3370.000000	0.842861
3369.000000	0.842886
3368.000000	0.842917
3367.000000	0.842938
3366.000000	0.842949
3365.000000	0.842958
3364.000000	0.842976
3363.000000	0.843005
3362.000000	0.843041
3361.000000	0.843081
3360.000000	0.843122
3359.000000	0.843164
3358.000000	0.843205
3357.000000	0.843242
3356.000000	0.843274
3355.000000	0.843299
3354.000000	0.843321
3353.000000	0.843342
3352.000000	0.843362
3351.000000	0.843378
3350.000000	0.843391
3349.000000	0.843405
3348.000000	0.843418
3347.000000	0.843427
3346.000000	0.843430
3345.000000	0.843427
3344.000000	0.843423
3343.000000	0.843428
3342.000000	0.843446
3341.000000	0.843480
3340.000000	0.843521
3339.000000	0.843558
3338.000000	0.843585
3337.000000	0.843604
3336.000000	0.843619
3335.000000	0.843630
3334.000000	0.843635
3333.000000	0.843635
3332.000000	0.843639
3331.000000	0.843655
3330.000000	0.843682
3329.000000	0.843711
3328.000000	0.843735
3327.000000	0.843754
3326.000000	0.843774
3325.000000	0.843801
3324.000000	0.843831
3323.000000	0.843856
3322.000000	0.843875
3321.000000	0.843892
3320.000000	0.843914
3319.000000	0.843952
3318.000000	0.844008
3317.000000	0.844071
3316.000000	0.844121
3315.000000	0.844144
3314.000000	0.844144
3313.000000	0.844137
3312.000000	0.844142
3311.000000	0.844166
3310.000000	0.844204
3309.000000	0.844248
3308.000000	0.844289
3307.000000	0.844323
3306.000000	0.844351
3305.000000	0.844381
3304.000000	0.844415
3303.000000	0.844447
3302.000000	0.844468
3301.000000	0.844475
3300.000000	0.844473
3299.000000	0.844479
3298.000000	0.844501
3297.000000	0.844539
3296.000000	0.844579
3295.000000	0.844606
3294.000000	0.844617
3293.000000	0.844622
3292.000000	0.844629
3291.000000	0.844642
3290.000000	0.844662
3289.000000	0.844691
3288.000000	0.844733
3287.000000	0.844783
3286.000000	0.844829
3285.000000	0.844865
3284.000000	0.844888
3283.000000	0.844907
3282.000000	0.844929
3281.000000	0.844956
3280.000000	0.844985
3279.000000	0.845011
3278.000000	0.845033
3277.000000	0.845051
3276.000000	0.845067
3275.000000	0.845084
3274.000000	0.845105
3273.000000	0.845134
3272.000000	0.845167
3271.000000	0.845198
3270.000000	0.845219
3269.000000	0.845232
3268.000000	0.845243
3267.000000	0.845259
3266.000000	0.845281
3265.000000	0.845306
3264.000000	0.845330
3263.000000	0.845347
3262.000000	0.845357
3261.000000	0.845365
3260.000000	0.845376
3259.000000	0.845395
3258.000000	0.845421
3257.000000	0.845448
3256.000000	0.845473
3255.000000	0.845492
3254.000000	0.845503
3253.000000	0.845507
3252.000000	0.845510
3251.000000	0.845518
3250.000000	0.845537
3249.000000	0.845566
3248.000000	0.845594
3247.000000	0.845613
3246.000000	0.845625
3245.000000	0.845636
3244.000000	0.845647
3243.000000	0.845656
3242.000000	0.845664
3241.000000	0.845678
3240.000000	0.845698
3239.000000	0.845715
3238.000000	0.845720
3237.000000	0.845720
3236.000000	0.845728
3235.000000	0.845750
3234.000000	0.845780
3233.000000	0.845808
3232.000000	0.845827
3231.000000	0.845837
3230.000000	0.845843
3229.000000	0.845859
3228.000000	0.845893
3227.000000	0.845944
3226.000000	0.845998
3225.000000	0.846042
3224.000000	0.846067
3223.000000	0.846073
3222.000000	0.846073
3221.000000	0.846080
3220.000000	0.846100
3219.000000	0.846131
3218.000000	0.846163
3217.000000	0.846190
3216.000000	0.846209
3215.000000	0.846223
3214.000000	0.846232
3213.000000	0.846245
3212.000000	0.846265
3211.000000	0.846293
3210.000000	0.846324
3209.000000	0.846353
3208.000000	0.846378
3207.000000	0.846395
3206.000000	0.846409
3205.000000	0.846423
3204.000000	0.846438
3203.000000	0.846448
3202.000000	0.846450
3201.000000	0.846450
3200.000000	0.846457
3199.000000	0.846477
3198.000000	0.846504
3197.000000	0.846530
3196.000000	0.846551
3195.000000	0.846568
3194.000000	0.846581
3193.000000	0.846591
3192.000000	0.846600
3191.000000	0.846605
3190.000000	0.846603
3189.000000	0.846597
3188.000000	0.846597
3187.000000	0.846608
3186.000000	0.846628
3185.000000	0.846653
3184.000000	0.846678
3183.000000	0.846699
3182.000000	0.846709
3181.000000	0.846709
3180.000000	0.846708
3179.000000	0.846718
3178.000000	0.846744
3177.000000	0.846776
3176.000000	0.846801
3175.000000	0.846814
3174.000000	0.846820
3173.000000	0.846830
3172.000000	0.846850
3171.000000	0.846879
3170.000000	0.846909
3169.000000	0.846932
3168.000000	0.846944
3167.000000	0.846948
3166.000000	0.846947
3165.000000	0.846945
3164.000000	0.846943
3163.000000	0.846942
3162.000000	0.846944
3161.000000	0.846953
3160.000000	0.846971
3159.000000	0.846993
3158.000000	0.847009
3157.000000	0.847015
3156.000000	0.847016
3155.000000	0.847022
3154.000000	0.847039
3153.000000	0.847062
3152.000000	0.847081
3151.000000	0.847088
3150.000000	0.847088
3149.000000	0.847089
3148.000000	0.847097
3147.000000	0.847114
3146.000000	0.847135
3145.000000	0.847157
3144.000000	0.847177
3143.000000	0.847191
3142.000000	0.847199
3141.000000	0.847203
3140.000000	0.847205
3139.000000	0.847208
3138.000000	0.847219
3137.000000	0.847238
3136.000000	0.847266
3135.000000	0.847294
3134.000000	0.847319
3133.000000	0.847343
3132.000000	0.847372
3131.000000	0.847409
3130.000000	0.847448
3129.000000	0.847479
3128.000000	0.847498
3127.000000	0.847502
3126.000000	0.847500
3125.000000	0.847504
3124.000000	0.847522
3123.000000	0.847550
3122.000000	0.847580
3121.000000	0.847607
3120.000000	0.847633
3119.000000	0.847659
3118.000000	0.847677
3117.000000	0.847682
3116.000000	0.847680
3115.000000	0.847685
3114.000000	0.847706
3113.000000	0.847738
3112.000000	0.847767
3111.000000	0.847784
3110.000000	0.847788
3109.000000	0.847787
3108.000000	0.847784
3107.000000	0.847784
3106.000000	0.847790
3105.000000	0.847803
3104.000000	0.847815
3103.000000	0.847819
3102.000000	0.847817
3101.000000	0.847822
3100.000000	0.847847
3099.000000	0.847887
3098.000000	0.847923
3097.000000	0.847944
3096.000000	0.847954
3095.000000	0.847959
3094.000000	0.847958
3093.000000	0.847948
3092.000000	0.847934
3091.000000	0.847921
3090.000000	0.847911
3089.000000	0.847902
3088.000000	0.847898
3087.000000	0.847906
3086.000000	0.847927
3085.000000	0.847951
3084.000000	0.847961
3083.000000	0.847953
3082.000000	0.847933
3081.000000	0.847914
3080.000000	0.847904
3079.000000	0.847909
3078.000000	0.847928
3077.000000	0.847953
3076.000000	0.847970
3075.000000	0.847971
3074.000000	0.847955
3073.000000	0.847935
3072.000000	0.847917
3071.000000	0.847905
3070.000000	0.847893
3069.000000	0.847876
3068.000000	0.847856
3067.000000	0.847833
3066.000000	0.847809
3065.000000	0.847786
3064.000000	0.847768
3063.000000	0.847759
3062.000000	0.847757
3061.000000	0.847761
3060.000000	0.847763
3059.000000	0.847752
3058.000000	0.847721
3057.000000	0.847682
3056.000000	0.847657
3055.000000	0.847653
3054.000000	0.847657
3053.000000	0.847649
3052.000000	0.847621
3051.000000	0.847582
3050.000000	0.847544
3049.000000	0.847514
3048.000000	0.847499
3047.000000	0.847500
3046.000000	0.847507
3045.000000	0.847497
3044.000000	0.847458
3043.000000	0.847402
3042.000000	0.847354
3041.000000	0.847333
3040.000000	0.847331
3039.000000	0.847333
3038.000000	0.847324
3037.000000	0.847305
3036.000000	0.847281
3035.000000	0.847259
3034.000000	0.847244
3033.000000	0.847233
3032.000000	0.847223
3031.000000	0.847208
3030.000000	0.847189
3029.000000	0.847169
3028.000000	0.847154
3027.000000	0.847147
3026.000000	0.847144
3025.000000	0.847133
3024.000000	0.847108
3023.000000	0.847072
3022.000000	0.847035
3021.000000	0.847005
3020.000000	0.846984
3019.000000	0.846970
3018.000000	0.846958
3017.000000	0.846940
3016.000000	0.846907
3015.000000	0.846859
3014.000000	0.846806
3013.000000	0.846763
3012.000000	0.846734
3011.000000	0.846715
3010.000000	0.846695
3009.000000	0.846665
3008.000000	0.846623
3007.000000	0.846577
3006.000000	0.846538
3005.000000	0.846508
3004.000000	0.846483
3003.000000	0.846459
3002.000000	0.846439
3001.000000	0.846429
3000.000000	0.846421
2999.000000	0.846400
2998.000000	0.846360
2997.000000	0.846308
2996.000000	0.846257
2995.000000	0.846214
2994.000000	0.846183
2993.000000	0.846162
2992.000000	0.846147
2991.000000	0.846127
2990.000000	0.846092
2989.000000	0.846041
2988.000000	0.845984
2987.000000	0.845934
2986.000000	0.845896
2985.000000	0.845866
2984.000000	0.845835
2983.000000	0.845799
2982.000000	0.845761
2981.000000	0.845730
2980.000000	0.845708
2979.000000	0.845695
2978.000000	0.845686
2977.000000	0.845682
2976.000000	0.845682
2975.000000	0.845681
2974.000000	0.845673
2973.000000	0.845658
2972.000000	0.845640
2971.000000	0.845624
2970.000000	0.845611
2969.000000	0.845598
2968.000000	0.845579
2967.000000	0.845548
2966.000000	0.845506
2965.000000	0.845453
2964.000000	0.845392
2963.000000	0.845321
2962.000000	0.845242
2961.000000	0.845163
2960.000000	0.845091
2959.000000	0.845029
2958.000000	0.844970
2957.000000	0.844912
2956.000000	0.844856
2955.000000	0.844802
2954.000000	0.844750
2953.000000	0.844694
2952.000000	0.844636
2951.000000	0.844580
2950.000000	0.844534
2949.000000	0.844498
2948.000000	0.844467
2947.000000	0.844431
2946.000000	0.844390
2945.000000	0.844355
2944.000000	0.844334
2943.000000	0.844325
2942.000000	0.844315
2941.000000	0.844297
2940.000000	0.844272
2939.000000	0.844244
2938.000000	0.844210
2937.000000	0.844168
2936.000000	0.844118
2935.000000	0.844065
2934.000000	0.844017
2933.000000	0.843976
2932.000000	0.843943
2931.000000	0.843918
2930.000000	0.843895
2929.000000	0.843870
2928.000000	0.843834
2927.000000	0.843780
2926.000000	0.843708
2925.000000	0.843629
2924.000000	0.843554
2923.000000	0.843486
2922.000000	0.843427
2921.000000	0.843370
2920.000000	0.843314
2919.000000	0.843257
2918.000000	0.843200
2917.000000	0.843143
2916.000000	0.843084
2915.000000	0.843021
2914.000000	0.842961
2913.000000	0.842915
2912.000000	0.842887
2911.000000	0.842870
2910.000000	0.842849
2909.000000	0.842818
2908.000000	0.842778
2907.000000	0.842726
2906.000000	0.842658
2905.000000	0.842578
2904.000000	0.842501
2903.000000	0.842442
2902.000000	0.842398
2901.000000	0.842361
2900.000000	0.842323
2899.000000	0.842283
2898.000000	0.842237
2897.000000	0.842186
2896.000000	0.842137
2895.000000	0.842100
2894.000000	0.842072
2893.000000	0.842045
2892.000000	0.842007
2891.000000	0.841962
2890.000000	0.841914
2889.000000	0.841868
2888.000000	0.841821
2887.000000	0.841772
2886.000000	0.841721
2885.000000	0.841672
2884.000000	0.841624
2883.000000	0.841577
2882.000000	0.841530
2881.000000	0.841484
2880.000000	0.841442
2879.000000	0.841405
2878.000000	0.841373
2877.000000	0.841339
2876.000000	0.841300
2875.000000	0.841253
2874.000000	0.841201
2873.000000	0.841149
2872.000000	0.841105
2871.000000	0.841072
2870.000000	0.841046
2869.000000	0.841021
2868.000000	0.840993
2867.000000	0.840961
2866.000000	0.840924
2865.000000	0.840879
2864.000000	0.840823
2863.000000	0.840758
2862.000000	0.840689
2861.000000	0.840621
2860.000000	0.840558
2859.000000	0.840499
2858.000000	0.840442
2857.000000	0.840386
2856.000000	0.840333
2855.000000	0.840284
2854.000000	0.840247
2853.000000	0.840226
2852.000000	0.840215
2851.000000	0.840201
2850.000000	0.840171
2849.000000	0.840127
2848.000000	0.840082
2847.000000	0.840047
2846.000000	0.840018
2845.000000	0.839987
2844.000000	0.839954
2843.000000	0.839928
2842.000000	0.839914
2841.000000	0.839907
2840.000000	0.839898
2839.000000	0.839885
2838.000000	0.839870
2837.000000	0.839855
2836.000000	0.839835
2835.000000	0.839809
2834.000000	0.839777
2833.000000	0.839748
2832.000000	0.839721
2831.000000	0.839691
2830.000000	0.839651
2829.000000	0.839600
2828.000000	0.839550
2827.000000	0.839517
2826.000000	0.839503
2825.000000	0.839498
2824.000000	0.839491
2823.000000	0.839476
2822.000000	0.839455
2821.000000	0.839428
2820.000000	0.839397
2819.000000	0.839364
2818.000000	0.839331
2817.000000	0.839297
2816.000000	0.839265
2815.000000	0.839239
2814.000000	0.839220
2813.000000	0.839203
2812.000000	0.839178
2811.000000	0.839140
2810.000000	0.839096
2809.000000	0.839058
2808.000000	0.839029
2807.000000	0.839004
2806.000000	0.838976
2805.000000	0.838946
2804.000000	0.838921
2803.000000	0.838905
2802.000000	0.838891
2801.000000	0.838868
2800.000000	0.838832
2799.000000	0.838795
2798.000000	0.838769
2797.000000	0.838753
2796.000000	0.838734
2795.000000	0.838705
2794.000000	0.838671
2793.000000	0.838642
2792.000000	0.838623
2791.000000	0.838610
2790.000000	0.838598
2789.000000	0.838587
2788.000000	0.838581
2787.000000	0.838579
2786.000000	0.838579
2785.000000	0.838574
2784.000000	0.838557
2783.000000	0.838529
2782.000000	0.838497
2781.000000	0.838469
2780.000000	0.838446
2779.000000	0.838420
2778.000000	0.838388
2777.000000	0.838353
2776.000000	0.838324
2775.000000	0.838308
2774.000000	0.838311
2773.000000	0.838331
2772.000000	0.838358
2771.000000	0.838373
2770.000000	0.838362
2769.000000	0.838324
2768.000000	0.838271
2767.000000	0.838219
2766.000000	0.838178
2765.000000	0.838153
2764.000000	0.838145
2763.000000	0.838149
2762.000000	0.838153
2761.000000	0.838148
2760.000000	0.838129
2759.000000	0.838104
2758.000000	0.838085
2757.000000	0.838073
2756.000000	0.838063
2755.000000	0.838051
2754.000000	0.838042
2753.000000	0.838039
2752.000000	0.838038
2751.000000	0.838032
2750.000000	0.838017
2749.000000	0.837996
2748.000000	0.837974
2747.000000	0.837957
2746.000000	0.837947
2745.000000	0.837945
2744.000000	0.837948
2743.000000	0.837953
2742.000000	0.837959
2741.000000	0.837969
2740.000000	0.837978
2739.000000	0.837979
2738.000000	0.837970
2737.000000	0.837958
2736.000000	0.837951
2735.000000	0.837952
2734.000000	0.837955
2733.000000	0.837956
2732.000000	0.837952
2731.000000	0.837944
2730.000000	0.837933
2729.000000	0.837920
2728.000000	0.837907
2727.000000	0.837891
2726.000000	0.837873
2725.000000	0.837857
2724.000000	0.837847
2723.000000	0.837843
2722.000000	0.837843
2721.000000	0.837847
2720.000000	0.837855
2719.000000	0.837865
2718.000000	0.837869
2717.000000	0.837863
2716.000000	0.837848
2715.000000	0.837829
2714.000000	0.837815
2713.000000	0.837810
2712.000000	0.837810
2711.000000	0.837809
2710.000000	0.837803
2709.000000	0.837797
2708.000000	0.837796
2707.000000	0.837797
2706.000000	0.837794
2705.000000	0.837786
2704.000000	0.837779
2703.000000	0.837778
2702.000000	0.837783
2701.000000	0.837788
2700.000000	0.837786
2699.000000	0.837778
2698.000000	0.837766
2697.000000	0.837758
2696.000000	0.837754
2695.000000	0.837756
2694.000000	0.837762
2693.000000	0.837772
2692.000000	0.837783
2691.000000	0.837792
2690.000000	0.837797
2689.000000	0.837798
2688.000000	0.837800
2687.000000	0.837802
2686.000000	0.837807
2685.000000	0.837815
2684.000000	0.837824
2683.000000	0.837829
2682.000000	0.837826
2681.000000	0.837819
2680.000000	0.837818
2679.000000	0.837827
2678.000000	0.837840
2677.000000	0.837848
2676.000000	0.837844
2675.000000	0.837834
2674.000000	0.837827
2673.000000	0.837833
2672.000000	0.837855
2671.000000	0.837880
2670.000000	0.837897
2669.000000	0.837904
2668.000000	0.837910
2667.000000	0.837924
2666.000000	0.837941
2665.000000	0.837953
2664.000000	0.837954
2663.000000	0.837949
2662.000000	0.837945
2661.000000	0.837952
2660.000000	0.837972
2659.000000	0.838003
2658.000000	0.838032
2657.000000	0.838052
2656.000000	0.838062
2655.000000	0.838070
2654.000000	0.838084
2653.000000	0.838106
2652.000000	0.838129
2651.000000	0.838147
2650.000000	0.838157
2649.000000	0.838165
2648.000000	0.838181
2647.000000	0.838202
2646.000000	0.838220
2645.000000	0.838228
2644.000000	0.838230
2643.000000	0.838236
2642.000000	0.838252
2641.000000	0.838274
2640.000000	0.838299
2639.000000	0.838323
2638.000000	0.838344
2637.000000	0.838358
2636.000000	0.838360
2635.000000	0.838355
2634.000000	0.838350
2633.000000	0.838352
2632.000000	0.838367
2631.000000	0.838393
2630.000000	0.838420
2629.000000	0.838437
2628.000000	0.838443
2627.000000	0.838446
2626.000000	0.838456
2625.000000	0.838474
2624.000000	0.838495
2623.000000	0.838513
2622.000000	0.838530
2621.000000	0.838548
2620.000000	0.838569
2619.000000	0.838588
2618.000000	0.838604
2617.000000	0.838618
2616.000000	0.838632
2615.000000	0.838645
2614.000000	0.838658
2613.000000	0.838674
2612.000000	0.838696
2611.000000	0.838716
2610.000000	0.838730
2609.000000	0.838741
2608.000000	0.838760
2607.000000	0.838793
2606.000000	0.838829
2605.000000	0.838856
2604.000000	0.838870
2603.000000	0.838878
2602.000000	0.838891
2601.000000	0.838911
2600.000000	0.838934
2599.000000	0.838953
2598.000000	0.838967
2597.000000	0.838981
2596.000000	0.838998
2595.000000	0.839019
2594.000000	0.839041
2593.000000	0.839062
2592.000000	0.839079
2591.000000	0.839091
2590.000000	0.839098
2589.000000	0.839107
2588.000000	0.839125
2587.000000	0.839149
2586.000000	0.839174
2585.000000	0.839190
2584.000000	0.839200
2583.000000	0.839206
2582.000000	0.839214
2581.000000	0.839226
2580.000000	0.839244
2579.000000	0.839268
2578.000000	0.839295
2577.000000	0.839320
2576.000000	0.839341
2575.000000	0.839355
2574.000000	0.839364
2573.000000	0.839377
2572.000000	0.839402
2571.000000	0.839439
2570.000000	0.839477
2569.000000	0.839497
2568.000000	0.839497
2567.000000	0.839488
2566.000000	0.839488
2565.000000	0.839509
2564.000000	0.839550
2563.000000	0.839595
2562.000000	0.839628
2561.000000	0.839642
2560.000000	0.839646
2559.000000	0.839654
2558.000000	0.839672
2557.000000	0.839699
2556.000000	0.839734
2555.000000	0.839781
2554.000000	0.839833
2553.000000	0.839878
2552.000000	0.839901
2551.000000	0.839904
2550.000000	0.839900
2549.000000	0.839904
2548.000000	0.839922
2547.000000	0.839947
2546.000000	0.839970
2545.000000	0.839988
2544.000000	0.840004
2543.000000	0.840021
2542.000000	0.840035
2541.000000	0.840049
2540.000000	0.840065
2539.000000	0.840088
2538.000000	0.840113
2537.000000	0.840139
2536.000000	0.840170
2535.000000	0.840209
2534.000000	0.840253
2533.000000	0.840283
2532.000000	0.840293
2531.000000	0.840290
2530.000000	0.840289
2529.000000	0.840297
2528.000000	0.840313
2527.000000	0.840331
2526.000000	0.840351
2525.000000	0.840371
2524.000000	0.840391
2523.000000	0.840413
2522.000000	0.840443
2521.000000	0.840482
2520.000000	0.840524
2519.000000	0.840556
2518.000000	0.840568
2517.000000	0.840565
2516.000000	0.840559
2515.000000	0.840563
2514.000000	0.840583
2513.000000	0.840619
2512.000000	0.840662
2511.000000	0.840702
2510.000000	0.840735
2509.000000	0.840760
2508.000000	0.840778
2507.000000	0.840791
2506.000000	0.840804
2505.000000	0.840825
2504.000000	0.840854
2503.000000	0.840882
2502.000000	0.840903
2501.000000	0.840917
2500.000000	0.840932
2499.000000	0.840949
2498.000000	0.840965
2497.000000	0.840977
2496.000000	0.840994
2495.000000	0.841022
2494.000000	0.841056
2493.000000	0.841088
2492.000000	0.841113
2491.000000	0.841132
2490.000000	0.841146
2489.000000	0.841161
2488.000000	0.841183
2487.000000	0.841211
2486.000000	0.841237
2485.000000	0.841252
2484.000000	0.841261
2483.000000	0.841273
2482.000000	0.841293
2481.000000	0.841314
2480.000000	0.841332
2479.000000	0.841346
2478.000000	0.841358
2477.000000	0.841376
2476.000000	0.841403
2475.000000	0.841442
2474.000000	0.841489
2473.000000	0.841538
2472.000000	0.841582
2471.000000	0.841619
2470.000000	0.841645
2469.000000	0.841661
2468.000000	0.841676
2467.000000	0.841698
2466.000000	0.841728
2465.000000	0.841758
2464.000000	0.841785
2463.000000	0.841815
2462.000000	0.841851
2461.000000	0.841885
2460.000000	0.841907
2459.000000	0.841915
2458.000000	0.841920
2457.000000	0.841933
2456.000000	0.841955
2455.000000	0.841980
2454.000000	0.841996
2453.000000	0.841997
2452.000000	0.841990
2451.000000	0.841985
2450.000000	0.841987
2449.000000	0.841989
2448.000000	0.841984
2447.000000	0.841971
2446.000000	0.841958
2445.000000	0.841954
2444.000000	0.841960
2443.000000	0.841970
2442.000000	0.841981
2441.000000	0.841990
2440.000000	0.841996
2439.000000	0.841999
2438.000000	0.841996
2437.000000	0.841985
2436.000000	0.841967
2435.000000	0.841950
2434.000000	0.841936
2433.000000	0.841923
2432.000000	0.841908
2431.000000	0.841891
2430.000000	0.841875
2429.000000	0.841861
2428.000000	0.841848
2427.000000	0.841835
2426.000000	0.841822
2425.000000	0.841807
2424.000000	0.841788
2423.000000	0.841765
2422.000000	0.841744
2421.000000	0.841725
2420.000000	0.841710
2419.000000	0.841694
2418.000000	0.841675
2417.000000	0.841652
2416.000000	0.841625
2415.000000	0.841600
2414.000000	0.841583
2413.000000	0.841574
2412.000000	0.841565
2411.000000	0.841548
2410.000000	0.841519
2409.000000	0.841480
2408.000000	0.841433
2407.000000	0.841384
2406.000000	0.841341
2405.000000	0.841308
2404.000000	0.841284
2403.000000	0.841258
2402.000000	0.841226
2401.000000	0.841190
2400.000000	0.841160
2399.000000	0.841141
2398.000000	0.841123
2397.000000	0.841094
2396.000000	0.841046
2395.000000	0.840984
2394.000000	0.840920
2393.000000	0.840864
2392.000000	0.840817
2391.000000	0.840777
2390.000000	0.840737
2389.000000	0.840696
2388.000000	0.840653
2387.000000	0.840610
2386.000000	0.840570
2385.000000	0.840541
2384.000000	0.840541
2383.000000	0.840596
2382.000000	0.840729
2381.000000	0.840946
2380.000000	0.841235
2379.000000	0.841561
2378.000000	0.841887
2377.000000	0.842177
2376.000000	0.842410
2375.000000	0.842581
2374.000000	0.842700
2373.000000	0.842784
2372.000000	0.842844
2371.000000	0.842890
2370.000000	0.842929
2369.000000	0.842965
2368.000000	0.843001
2367.000000	0.843040
2366.000000	0.843082
2365.000000	0.843128
2364.000000	0.843178
2363.000000	0.843231
2362.000000	0.843293
2361.000000	0.843369
2360.000000	0.843462
2359.000000	0.843568
2358.000000	0.843677
2357.000000	0.843783
2356.000000	0.843880
2355.000000	0.843963
2354.000000	0.844031
2353.000000	0.844084
2352.000000	0.844127
2351.000000	0.844167
2350.000000	0.844215
2349.000000	0.844283
2348.000000	0.844381
2347.000000	0.844519
2346.000000	0.844706
2345.000000	0.844954
2344.000000	0.845273
2343.000000	0.845659
2342.000000	0.846079
2341.000000	0.846465
2340.000000	0.846731
2339.000000	0.846815
2338.000000	0.846703
2337.000000	0.846435
2336.000000	0.846079
2335.000000	0.845707
2334.000000	0.845373
2333.000000	0.845102
2332.000000	0.844889
2331.000000	0.844709
2330.000000	0.844550
2329.000000	0.844417
2328.000000	0.844317
2327.000000	0.844242
2326.000000	0.844172
2325.000000	0.844099
2324.000000	0.844030
2323.000000	0.843975
2322.000000	0.843932
2321.000000	0.843888
2320.000000	0.843839
2319.000000	0.843792
2318.000000	0.843760
2317.000000	0.843744
2316.000000	0.843736
2315.000000	0.843723
2314.000000	0.843701
2313.000000	0.843676
2312.000000	0.843656
2311.000000	0.843645
2310.000000	0.843638
2309.000000	0.843633
2308.000000	0.843629
2307.000000	0.843627
2306.000000	0.843620
2305.000000	0.843604
2304.000000	0.843583
2303.000000	0.843571
2302.000000	0.843575
2301.000000	0.843589
2300.000000	0.843603
2299.000000	0.843613
2298.000000	0.843621
2297.000000	0.843631
2296.000000	0.843642
2295.000000	0.843648
2294.000000	0.843648
2293.000000	0.843647
2292.000000	0.843648
2291.000000	0.843649
2290.000000	0.843643
2289.000000	0.843628
2288.000000	0.843615
2287.000000	0.843619
2286.000000	0.843656
2285.000000	0.843732
2284.000000	0.843839
2283.000000	0.843943
2282.000000	0.844003
2281.000000	0.844001
2280.000000	0.843956
2279.000000	0.843913
2278.000000	0.843899
2277.000000	0.843913
2276.000000	0.843935
2275.000000	0.843949
2274.000000	0.843951
2273.000000	0.843943
2272.000000	0.843930
2271.000000	0.843920
2270.000000	0.843918
2269.000000	0.843924
2268.000000	0.843936
2267.000000	0.843949
2266.000000	0.843957
2265.000000	0.843961
2264.000000	0.843964
2263.000000	0.843968
2262.000000	0.843966
2261.000000	0.843954
2260.000000	0.843937
2259.000000	0.843928
2258.000000	0.843929
2257.000000	0.843932
2256.000000	0.843933
2255.000000	0.843936
2254.000000	0.843948
2253.000000	0.843966
2252.000000	0.843982
2251.000000	0.843994
2250.000000	0.844007
2249.000000	0.844022
2248.000000	0.844037
2247.000000	0.844042
2246.000000	0.844036
2245.000000	0.844021
2244.000000	0.844005
2243.000000	0.843998
2242.000000	0.844003
2241.000000	0.844012
2240.000000	0.844020
2239.000000	0.844029
2238.000000	0.844046
2237.000000	0.844069
2236.000000	0.844082
2235.000000	0.844077
2234.000000	0.844061
2233.000000	0.844044
2232.000000	0.844035
2231.000000	0.844036
2230.000000	0.844041
2229.000000	0.844044
2228.000000	0.844041
2227.000000	0.844032
2226.000000	0.844028
2225.000000	0.844029
2224.000000	0.844025
2223.000000	0.844007
2222.000000	0.843983
2221.000000	0.843975
2220.000000	0.843992
2219.000000	0.844021
2218.000000	0.844041
2217.000000	0.844040
2216.000000	0.844023
2215.000000	0.844001
2214.000000	0.843985
2213.000000	0.843979
2212.000000	0.843981
2211.000000	0.843986
2210.000000	0.843989
2209.000000	0.843988
2208.000000	0.843978
2207.000000	0.843957
2206.000000	0.843924
2205.000000	0.843887
2204.000000	0.843859
2203.000000	0.843854
2202.000000	0.843869
2201.000000	0.843888
2200.000000	0.843888
2199.000000	0.843864
2198.000000	0.843828
2197.000000	0.843797
2196.000000	0.843775
2195.000000	0.843760
2194.000000	0.843747
2193.000000	0.843743
2192.000000	0.843747
2191.000000	0.843753
2190.000000	0.843748
2189.000000	0.843733
2188.000000	0.843715
2187.000000	0.843703
2186.000000	0.843697
2185.000000	0.843689
2184.000000	0.843671
2183.000000	0.843642
2182.000000	0.843613
2181.000000	0.843592
2180.000000	0.843584
2179.000000	0.843581
2178.000000	0.843575
2177.000000	0.843560
2176.000000	0.843539
2175.000000	0.843516
2174.000000	0.843489
2173.000000	0.843457
2172.000000	0.843422
2171.000000	0.843386
2170.000000	0.843358
2169.000000	0.843339
2168.000000	0.843324
2167.000000	0.843308
2166.000000	0.843285
2165.000000	0.843256
2164.000000	0.843225
2163.000000	0.843195
2162.000000	0.843163
2161.000000	0.843130
2160.000000	0.843101
2159.000000	0.843080
2158.000000	0.843068
2157.000000	0.843062
2156.000000	0.843054
2155.000000	0.843039
2154.000000	0.843011
2153.000000	0.842970
2152.000000	0.842922
2151.000000	0.842876
2150.000000	0.842840
2149.000000	0.842811
2148.000000	0.842784
2147.000000	0.842758
2146.000000	0.842737
2145.000000	0.842721
2144.000000	0.842702
2143.000000	0.842675
2142.000000	0.842642
2141.000000	0.842610
2140.000000	0.842581
2139.000000	0.842549
2138.000000	0.842512
2137.000000	0.842476
2136.000000	0.842446
2135.000000	0.842423
2134.000000	0.842400
2133.000000	0.842367
2132.000000	0.842323
2131.000000	0.842276
2130.000000	0.842234
2129.000000	0.842197
2128.000000	0.842158
2127.000000	0.842114
2126.000000	0.842073
2125.000000	0.842040
2124.000000	0.842015
2123.000000	0.841989
2122.000000	0.841957
2121.000000	0.841918
2120.000000	0.841878
2119.000000	0.841840
2118.000000	0.841803
2117.000000	0.841765
2116.000000	0.841727
2115.000000	0.841691
2114.000000	0.841660
2113.000000	0.841631
2112.000000	0.841600
2111.000000	0.841566
2110.000000	0.841530
2109.000000	0.841495
2108.000000	0.841458
2107.000000	0.841414
2106.000000	0.841364
2105.000000	0.841315
2104.000000	0.841273
2103.000000	0.841235
2102.000000	0.841194
2101.000000	0.841148
2100.000000	0.841100
2099.000000	0.841059
2098.000000	0.841029
2097.000000	0.841009
2096.000000	0.840989
2095.000000	0.840960
2094.000000	0.840918
2093.000000	0.840867
2092.000000	0.840817
2091.000000	0.840775
2090.000000	0.840745
2089.000000	0.840719
2088.000000	0.840690
2087.000000	0.840651
2086.000000	0.840608
2085.000000	0.840568
2084.000000	0.840533
2083.000000	0.840499
2082.000000	0.840462
2081.000000	0.840424
2080.000000	0.840388
2079.000000	0.840353
2078.000000	0.840320
2077.000000	0.840288
2076.000000	0.840256
2075.000000	0.840218
2074.000000	0.840169
2073.000000	0.840114
2072.000000	0.840062
2071.000000	0.840020
2070.000000	0.839983
2069.000000	0.839944
2068.000000	0.839901
2067.000000	0.839858
2066.000000	0.839817
2065.000000	0.839778
2064.000000	0.839740
2063.000000	0.839708
2062.000000	0.839682
2061.000000	0.839657
2060.000000	0.839619
2059.000000	0.839562
2058.000000	0.839497
2057.000000	0.839443
2056.000000	0.839407
2055.000000	0.839376
2054.000000	0.839336
2053.000000	0.839287
2052.000000	0.839237
2051.000000	0.839194
2050.000000	0.839159
2049.000000	0.839128
2048.000000	0.839097
2047.000000	0.839062
2046.000000	0.839026
2045.000000	0.838995
2044.000000	0.838965
2043.000000	0.838926
2042.000000	0.838875
2041.000000	0.838820
2040.000000	0.838773
2039.000000	0.838736
2038.000000	0.838699
2037.000000	0.838662
2036.000000	0.838630
2035.000000	0.838603
2034.000000	0.838576
2033.000000	0.838542
2032.000000	0.838502
2031.000000	0.838461
2030.000000	0.838421
2029.000000	0.838382
2028.000000	0.838346
2027.000000	0.838314
2026.000000	0.838282
2025.000000	0.838244
2024.000000	0.838202
2023.000000	0.838164
2022.000000	0.838133
2021.000000	0.838099
2020.000000	0.838050
2019.000000	0.837984
2018.000000	0.837915
2017.000000	0.837862
2016.000000	0.837833
2015.000000	0.837821
2014.000000	0.837810
2013.000000	0.837794
2012.000000	0.837773
2011.000000	0.837747
2010.000000	0.837714
2009.000000	0.837672
2008.000000	0.837624
2007.000000	0.837574
2006.000000	0.837529
2005.000000	0.837493
2004.000000	0.837470
2003.000000	0.837457
2002.000000	0.837448
2001.000000	0.837433
2000.000000	0.837406
1999.000000	0.837361
1998.000000	0.837304
1997.000000	0.837242
1996.000000	0.837189
1995.000000	0.837150
1994.000000	0.837127
1993.000000	0.837114
1992.000000	0.837110
1991.000000	0.837109
1990.000000	0.837101
1989.000000	0.837078
1988.000000	0.837041
1987.000000	0.836997
1986.000000	0.836955
1985.000000	0.836918
1984.000000	0.836886
1983.000000	0.836861
1982.000000	0.836842
1981.000000	0.836826
1980.000000	0.836808
1979.000000	0.836788
1978.000000	0.836768
1977.000000	0.836750
1976.000000	0.836732
1975.000000	0.836712
1974.000000	0.836691
1973.000000	0.836670
1972.000000	0.836652
1971.000000	0.836636
1970.000000	0.836617
1969.000000	0.836594
1968.000000	0.836565
1967.000000	0.836535
1966.000000	0.836509
1965.000000	0.836488
1964.000000	0.836468
1963.000000	0.836450
1962.000000	0.836441
1961.000000	0.836439
1960.000000	0.836434
1959.000000	0.836417
1958.000000	0.836386
1957.000000	0.836355
1956.000000	0.836334
1955.000000	0.836324
1954.000000	0.836316
1953.000000	0.836303
1952.000000	0.836286
1951.000000	0.836269
1950.000000	0.836255
1949.000000	0.836248
1948.000000	0.836244
1947.000000	0.836239
1946.000000	0.836231
1945.000000	0.836223
1944.000000	0.836218
1943.000000	0.836220
1942.000000	0.836225
1941.000000	0.836226
1940.000000	0.836221
1939.000000	0.836210
1938.000000	0.836195
1937.000000	0.836183
1936.000000	0.836173
1935.000000	0.836160
1934.000000	0.836145
1933.000000	0.836131
1932.000000	0.836124
1931.000000	0.836124
1930.000000	0.836123
1929.000000	0.836117
1928.000000	0.836107
1927.000000	0.836097
1926.000000	0.836090
1925.000000	0.836085
1924.000000	0.836084
1923.000000	0.836083
1922.000000	0.836083
1921.000000	0.836082
1920.000000	0.836081
1919.000000	0.836080
1918.000000	0.836076
1917.000000	0.836072
1916.000000	0.836075
1915.000000	0.836083
1914.000000	0.836091
1913.000000	0.836095
1912.000000	0.836100
1911.000000	0.836107
1910.000000	0.836116
1909.000000	0.836127
1908.000000	0.836141
1907.000000	0.836158
1906.000000	0.836171
1905.000000	0.836172
1904.000000	0.836164
1903.000000	0.836155
1902.000000	0.836153
1901.000000	0.836157
1900.000000	0.836161
1899.000000	0.836159
1898.000000	0.836154
1897.000000	0.836151
1896.000000	0.836153
1895.000000	0.836156
1894.000000	0.836156
1893.000000	0.836151
1892.000000	0.836147
1891.000000	0.836148
1890.000000	0.836156
1889.000000	0.836169
1888.000000	0.836185
1887.000000	0.836201
1886.000000	0.836209
1885.000000	0.836208
1884.000000	0.836202
1883.000000	0.836201
1882.000000	0.836207
1881.000000	0.836216
1880.000000	0.836220
1879.000000	0.836223
1878.000000	0.836231
1877.000000	0.836246
1876.000000	0.836261
1875.000000	0.836263
1874.000000	0.836249
1873.000000	0.836229
1872.000000	0.836213
1871.000000	0.836207
1870.000000	0.836206
1869.000000	0.836209
1868.000000	0.836219
1867.000000	0.836234
1866.000000	0.836248
1865.000000	0.836258
1864.000000	0.836269
1863.000000	0.836289
1862.000000	0.836316
1861.000000	0.836339
1860.000000	0.836349
1859.000000	0.836349
1858.000000	0.836349
1857.000000	0.836354
1856.000000	0.836364
1855.000000	0.836375
1854.000000	0.836388
1853.000000	0.836399
1852.000000	0.836406
1851.000000	0.836407
1850.000000	0.836405
1849.000000	0.836408
1848.000000	0.836417
1847.000000	0.836425
1846.000000	0.836424
1845.000000	0.836413
1844.000000	0.836406
1843.000000	0.836418
1842.000000	0.836453
1841.000000	0.836494
1840.000000	0.836526
1839.000000	0.836542
1838.000000	0.836555
1837.000000	0.836573
1836.000000	0.836599
1835.000000	0.836626
1834.000000	0.836649
1833.000000	0.836666
1832.000000	0.836674
1831.000000	0.836673
1830.000000	0.836668
1829.000000	0.836668
1828.000000	0.836679
1827.000000	0.836703
1826.000000	0.836740
1825.000000	0.836789
1824.000000	0.836844
1823.000000	0.836894
1822.000000	0.836928
1821.000000	0.836949
1820.000000	0.836967
1819.000000	0.836987
1818.000000	0.837007
1817.000000	0.837027
1816.000000	0.837052
1815.000000	0.837084
1814.000000	0.837117
1813.000000	0.837146
1812.000000	0.837168
1811.000000	0.837186
1810.000000	0.837205
1809.000000	0.837223
1808.000000	0.837243
1807.000000	0.837263
1806.000000	0.837284
1805.000000	0.837300
1804.000000	0.837307
1803.000000	0.837309
1802.000000	0.837315
1801.000000	0.837333
1800.000000	0.837359
1799.000000	0.837383
1798.000000	0.837396
1797.000000	0.837402
1796.000000	0.837407
1795.000000	0.837412
1794.000000	0.837412
1793.000000	0.837411
1792.000000	0.837424
1791.000000	0.837462
1790.000000	0.837517
1789.000000	0.837571
1788.000000	0.837612
1787.000000	0.837640
1786.000000	0.837661
1785.000000	0.837684
1784.000000	0.837712
1783.000000	0.837749
1782.000000	0.837792
1781.000000	0.837842
1780.000000	0.837894
1779.000000	0.837940
1778.000000	0.837975
1777.000000	0.837998
1776.000000	0.838019
1775.000000	0.838038
1774.000000	0.838053
1773.000000	0.838066
1772.000000	0.838091
1771.000000	0.838141
1770.000000	0.838210
1769.000000	0.838278
1768.000000	0.838331
1767.000000	0.838380
1766.000000	0.838434
1765.000000	0.838489
1764.000000	0.838534
1763.000000	0.838562
1762.000000	0.838582
1761.000000	0.838608
1760.000000	0.838643
1759.000000	0.838685
1758.000000	0.838727
1757.000000	0.838767
1756.000000	0.838811
1755.000000	0.838859
1754.000000	0.838906
1753.000000	0.838943
1752.000000	0.838966
1751.000000	0.838989
1750.000000	0.839027
1749.000000	0.839087
1748.000000	0.839156
1747.000000	0.839221
1746.000000	0.839277
1745.000000	0.839328
1744.000000	0.839376
1743.000000	0.839418
1742.000000	0.839457
1741.000000	0.839498
1740.000000	0.839542
1739.000000	0.839592
1738.000000	0.839644
1737.000000	0.839690
1736.000000	0.839716
1735.000000	0.839717
1734.000000	0.839716
1733.000000	0.839747
1732.000000	0.839828
1731.000000	0.839937
1730.000000	0.840041
1729.000000	0.840121
1728.000000	0.840177
1727.000000	0.840215
1726.000000	0.840245
1725.000000	0.840280
1724.000000	0.840331
1723.000000	0.840395
1722.000000	0.840455
1721.000000	0.840498
1720.000000	0.840517
1719.000000	0.840514
1718.000000	0.840495
1717.000000	0.840485
1716.000000	0.840513
1715.000000	0.840590
1714.000000	0.840694
1713.000000	0.840794
1712.000000	0.840876
1711.000000	0.840939
1710.000000	0.840987
1709.000000	0.841024
1708.000000	0.841049
1707.000000	0.841062
1706.000000	0.841069
1705.000000	0.841080
1704.000000	0.841105
1703.000000	0.841132
1702.000000	0.841137
1701.000000	0.841116
1700.000000	0.841102
1699.000000	0.841129
1698.000000	0.841191
1697.000000	0.841247
1696.000000	0.841279
1695.000000	0.841310
1694.000000	0.841369
1693.000000	0.841453
1692.000000	0.841533
1691.000000	0.841587
1690.000000	0.841622
1689.000000	0.841654
1688.000000	0.841685
1687.000000	0.841698
1686.000000	0.841677
1685.000000	0.841633
1684.000000	0.841603
1683.000000	0.841622
1682.000000	0.841690
1681.000000	0.841775
1680.000000	0.841844
1679.000000	0.841891
1678.000000	0.841921
1677.000000	0.841939
1676.000000	0.841944
1675.000000	0.841943
1674.000000	0.841952
1673.000000	0.841973
1672.000000	0.841994
1671.000000	0.842005
1670.000000	0.842012
1669.000000	0.842033
1668.000000	0.842080
1667.000000	0.842146
1666.000000	0.842214
1665.000000	0.842260
1664.000000	0.842270
1663.000000	0.842252
1662.000000	0.842232
1661.000000	0.842236
1660.000000	0.842271
1659.000000	0.842322
1658.000000	0.842368
1657.000000	0.842389
1656.000000	0.842367
1655.000000	0.842290
1654.000000	0.842178
1653.000000	0.842093
1652.000000	0.842098
1651.000000	0.842200
1650.000000	0.842335
1649.000000	0.842425
1648.000000	0.842440
1647.000000	0.842415
1646.000000	0.842410
1645.000000	0.842455
1644.000000	0.842538
1643.000000	0.842619
1642.000000	0.842669
1641.000000	0.842686
1640.000000	0.842683
1639.000000	0.842668
1638.000000	0.842636
1637.000000	0.842590
1636.000000	0.842551
1635.000000	0.842549
1634.000000	0.842588
1633.000000	0.842643
1632.000000	0.842683
1631.000000	0.842695
1630.000000	0.842688
1629.000000	0.842679
1628.000000	0.842678
1627.000000	0.842683
1626.000000	0.842680
1625.000000	0.842660
1624.000000	0.842621
1623.000000	0.842579
1622.000000	0.842551
1621.000000	0.842542
1620.000000	0.842541
1619.000000	0.842531
1618.000000	0.842510
1617.000000	0.842497
1616.000000	0.842518
1615.000000	0.842588
1614.000000	0.842682
1613.000000	0.842760
1612.000000	0.842798
1611.000000	0.842802
1610.000000	0.842794
1609.000000	0.842784
1608.000000	0.842767
1607.000000	0.842746
1606.000000	0.842730
1605.000000	0.842727
1604.000000	0.842735
1603.000000	0.842750
1602.000000	0.842771
1601.000000	0.842794
1600.000000	0.842808
1599.000000	0.842813
1598.000000	0.842814
1597.000000	0.842821
1596.000000	0.842835
1595.000000	0.842849
1594.000000	0.842862
1593.000000	0.842876
1592.000000	0.842893
1591.000000	0.842913
1590.000000	0.842934
1589.000000	0.842954
1588.000000	0.842969
1587.000000	0.842973
1586.000000	0.842965
1585.000000	0.842952
1584.000000	0.842944
1583.000000	0.842946
1582.000000	0.842959
1581.000000	0.842979
1580.000000	0.842993
1579.000000	0.842983
1578.000000	0.842939
1577.000000	0.842872
1576.000000	0.842821
1575.000000	0.842818
1574.000000	0.842868
1573.000000	0.842939
1572.000000	0.842995
1571.000000	0.843021
1570.000000	0.843025
1569.000000	0.843024
1568.000000	0.843024
1567.000000	0.843027
1566.000000	0.843030
1565.000000	0.843036
1564.000000	0.843047
1563.000000	0.843048
1562.000000	0.843012
1561.000000	0.842914
1560.000000	0.842776
1559.000000	0.842668
1558.000000	0.842658
1557.000000	0.842746
1556.000000	0.842866
1555.000000	0.842951
1554.000000	0.842987
1553.000000	0.843006
1552.000000	0.843036
1551.000000	0.843076
1550.000000	0.843113
1549.000000	0.843144
1548.000000	0.843171
1547.000000	0.843188
1546.000000	0.843187
1545.000000	0.843163
1544.000000	0.843118
1543.000000	0.843054
1542.000000	0.842977
1541.000000	0.842900
1540.000000	0.842850
1539.000000	0.842854
1538.000000	0.842914
1537.000000	0.843007
1536.000000	0.843087
1535.000000	0.843125
1534.000000	0.843126
1533.000000	0.843124
1532.000000	0.843145
1531.000000	0.843184
1530.000000	0.843212
1529.000000	0.843213
1528.000000	0.843191
1527.000000	0.843164
1526.000000	0.843143
1525.000000	0.843125
1524.000000	0.843104
1523.000000	0.843071
1522.000000	0.843033
1521.000000	0.843013
1520.000000	0.843028
1519.000000	0.843072
1518.000000	0.843114
1517.000000	0.843133
1516.000000	0.843135
1515.000000	0.843137
1514.000000	0.843147
1513.000000	0.843159
1512.000000	0.843170
1511.000000	0.843176
1510.000000	0.843164
1509.000000	0.843112
1508.000000	0.843024
1507.000000	0.842936
1506.000000	0.842900
1505.000000	0.842942
1504.000000	0.843043
1503.000000	0.843164
1502.000000	0.843275
1501.000000	0.843362
1500.000000	0.843421
