PE IR       SUBTECH     SPECTRUM    ASCII       PEDS        4.00        
   -1
TE108B2_004.ASC
20/02/27
13:24:01.00
20/02/27
13:24:01.00
Administrator
Sample 004 By Administrator Date Thursday, February 27 2020
1500.000000
#HDR
-1
-1
#GR
cm-1
A
1.0
0.0
4000.000000
-1.000000
2501
8
0.851112
0.814724
#DATA
4000.000000	0.822244
3999.000000	0.822262
3998.000000	0.822274
3997.000000	0.822272
3996.000000	0.822255
3995.000000	0.822235
3994.000000	0.822223
3993.000000	0.822221
3992.000000	0.822220
3991.000000	0.822213
3990.000000	0.822198
3989.000000	0.822183
3988.000000	0.822178
3987.000000	0.822181
3986.000000	0.822180
3985.000000	0.822162
3984.000000	0.822121
3983.000000	0.822068
3982.000000	0.822020
3981.000000	0.821988
3980.000000	0.821975
3979.000000	0.821979
3978.000000	0.821991
3977.000000	0.822006
3976.000000	0.822011
3975.000000	0.821999
3974.000000	0.821973
3973.000000	0.821939
3972.000000	0.821908
3971.000000	0.821882
3970.000000	0.821860
3969.000000	0.821839
3968.000000	0.821812
3967.000000	0.821780
3966.000000	0.821749
3965.000000	0.821727
3964.000000	0.821716
3963.000000	0.821711
3962.000000	0.821698
3961.000000	0.821665
3960.000000	0.821613
3959.000000	0.821554
3958.000000	0.821505
3957.000000	0.821474
3956.000000	0.821454
3955.000000	0.821433
3954.000000	0.821407
3953.000000	0.821378
3952.000000	0.821346
3951.000000	0.821309
3950.000000	0.821262
3949.000000	0.821207
3948.000000	0.821154
3947.000000	0.821117
3946.000000	0.821098
3945.000000	0.821084
3944.000000	0.821058
3943.000000	0.821010
3942.000000	0.820951
3941.000000	0.820900
3940.000000	0.820868
3939.000000	0.820850
3938.000000	0.820833
3937.000000	0.820808
3936.000000	0.820770
3935.000000	0.820722
3934.000000	0.820668
3933.000000	0.820612
3932.000000	0.820559
3931.000000	0.820511
3930.000000	0.820468
3929.000000	0.820429
3928.000000	0.820391
3927.000000	0.820352
3926.000000	0.820309
3925.000000	0.820262
3924.000000	0.820208
3923.000000	0.820149
3922.000000	0.820092
3921.000000	0.820039
3920.000000	0.819991
3919.000000	0.819944
3918.000000	0.819897
3917.000000	0.819859
3916.000000	0.819839
3915.000000	0.819831
3914.000000	0.819818
3913.000000	0.819782
3912.000000	0.819724
3911.000000	0.819660
3910.000000	0.819608
3909.000000	0.819568
3908.000000	0.819526
3907.000000	0.819470
3906.000000	0.819396
3905.000000	0.819315
3904.000000	0.819239
3903.000000	0.819174
3902.000000	0.819123
3901.000000	0.819084
3900.000000	0.819048
3899.000000	0.819008
3898.000000	0.818966
3897.000000	0.818926
3896.000000	0.818896
3895.000000	0.818872
3894.000000	0.818846
3893.000000	0.818813
3892.000000	0.818773
3891.000000	0.818736
3890.000000	0.818708
3889.000000	0.818688
3888.000000	0.818665
3887.000000	0.818627
3886.000000	0.818571
3885.000000	0.818510
3884.000000	0.818462
3883.000000	0.818437
3882.000000	0.818429
3881.000000	0.818422
3880.000000	0.818403
3879.000000	0.818370
3878.000000	0.818332
3877.000000	0.818294
3876.000000	0.818257
3875.000000	0.818220
3874.000000	0.818182
3873.000000	0.818142
3872.000000	0.818088
3871.000000	0.818010
3870.000000	0.817911
3869.000000	0.817815
3868.000000	0.817751
3867.000000	0.817726
3866.000000	0.817721
3865.000000	0.817706
3864.000000	0.817669
3863.000000	0.817624
3862.000000	0.817590
3861.000000	0.817577
3860.000000	0.817576
3859.000000	0.817572
3858.000000	0.817556
3857.000000	0.817513
3856.000000	0.817424
3855.000000	0.817272
3854.000000	0.817068
3853.000000	0.816869
3852.000000	0.816744
3851.000000	0.816735
3850.000000	0.816828
3849.000000	0.816967
3848.000000	0.817090
3847.000000	0.817159
3846.000000	0.817172
3845.000000	0.817148
3844.000000	0.817106
3843.000000	0.817059
3842.000000	0.817008
3841.000000	0.816943
3840.000000	0.816856
3839.000000	0.816746
3838.000000	0.816635
3837.000000	0.816554
3836.000000	0.816528
3835.000000	0.816554
3834.000000	0.816603
3833.000000	0.816643
3832.000000	0.816656
3831.000000	0.816645
3830.000000	0.816625
3829.000000	0.816608
3828.000000	0.816594
3827.000000	0.816578
3826.000000	0.816555
3825.000000	0.816522
3824.000000	0.816471
3823.000000	0.816389
3822.000000	0.816276
3821.000000	0.816154
3820.000000	0.816063
3819.000000	0.816030
3818.000000	0.816043
3817.000000	0.816059
3816.000000	0.816044
3815.000000	0.816008
3814.000000	0.815990
3813.000000	0.816018
3812.000000	0.816080
3811.000000	0.816139
3810.000000	0.816159
3809.000000	0.816128
3808.000000	0.816057
3807.000000	0.815968
3806.000000	0.815891
3805.000000	0.815848
3804.000000	0.815839
3803.000000	0.815833
3802.000000	0.815796
3801.000000	0.815732
3800.000000	0.815682
3799.000000	0.815687
3798.000000	0.815751
3797.000000	0.815835
3796.000000	0.815898
3795.000000	0.815927
3794.000000	0.815939
3793.000000	0.815947
3792.000000	0.815948
3791.000000	0.815932
3790.000000	0.815900
3789.000000	0.815867
3788.000000	0.815845
3787.000000	0.815838
3786.000000	0.815842
3785.000000	0.815850
3784.000000	0.815855
3783.000000	0.815854
3782.000000	0.815845
3781.000000	0.815830
3780.000000	0.815805
3779.000000	0.815769
3778.000000	0.815723
3777.000000	0.815679
3776.000000	0.815651
3775.000000	0.815640
3774.000000	0.815638
3773.000000	0.815635
3772.000000	0.815627
3771.000000	0.815616
3770.000000	0.815606
3769.000000	0.815595
3768.000000	0.815583
3767.000000	0.815566
3766.000000	0.815542
3765.000000	0.815512
3764.000000	0.815480
3763.000000	0.815451
3762.000000	0.815430
3761.000000	0.815414
3760.000000	0.815396
3759.000000	0.815374
3758.000000	0.815353
3757.000000	0.815345
3756.000000	0.815347
3755.000000	0.815344
3754.000000	0.815309
3753.000000	0.815228
3752.000000	0.815107
3751.000000	0.814975
3750.000000	0.814867
3749.000000	0.814812
3748.000000	0.814811
3747.000000	0.814837
3746.000000	0.814845
3745.000000	0.814806
3744.000000	0.814745
3743.000000	0.814724
3742.000000	0.814792
3741.000000	0.814939
3740.000000	0.815097
3739.000000	0.815193
3738.000000	0.815195
3737.000000	0.815122
3736.000000	0.815026
3735.000000	0.814955
3734.000000	0.814930
3733.000000	0.814944
3732.000000	0.814979
3731.000000	0.815024
3730.000000	0.815076
3729.000000	0.815130
3728.000000	0.815172
3727.000000	0.815186
3726.000000	0.815175
3725.000000	0.815164
3724.000000	0.815175
3723.000000	0.815214
3722.000000	0.815266
3721.000000	0.815319
3720.000000	0.815366
3719.000000	0.815407
3718.000000	0.815440
3717.000000	0.815466
3716.000000	0.815484
3715.000000	0.815488
3714.000000	0.815480
3713.000000	0.815481
3712.000000	0.815542
3711.000000	0.815712
3710.000000	0.815991
3709.000000	0.816308
3708.000000	0.816562
3707.000000	0.816691
3706.000000	0.816706
3705.000000	0.816663
3704.000000	0.816616
3703.000000	0.816590
3702.000000	0.816594
3701.000000	0.816635
3700.000000	0.816714
3699.000000	0.816824
3698.000000	0.816950
3697.000000	0.817076
3696.000000	0.817192
3695.000000	0.817290
3694.000000	0.817361
3693.000000	0.817397
3692.000000	0.817400
3691.000000	0.817377
3690.000000	0.817345
3689.000000	0.817326
3688.000000	0.817344
3687.000000	0.817414
3686.000000	0.817539
3685.000000	0.817696
3684.000000	0.817855
3683.000000	0.817993
3682.000000	0.818102
3681.000000	0.818192
3680.000000	0.818278
3679.000000	0.818369
3678.000000	0.818460
3677.000000	0.818540
3676.000000	0.818600
3675.000000	0.818654
3674.000000	0.818736
3673.000000	0.818870
3672.000000	0.819042
3671.000000	0.819213
3670.000000	0.819353
3669.000000	0.819477
3668.000000	0.819622
3667.000000	0.819813
3666.000000	0.820041
3665.000000	0.820277
3664.000000	0.820496
3663.000000	0.820688
3662.000000	0.820850
3661.000000	0.820984
3660.000000	0.821098
3659.000000	0.821204
3658.000000	0.821304
3657.000000	0.821394
3656.000000	0.821476
3655.000000	0.821564
3654.000000	0.821677
3653.000000	0.821817
3652.000000	0.821956
3651.000000	0.822061
3650.000000	0.822124
3649.000000	0.822173
3648.000000	0.822253
3647.000000	0.822388
3646.000000	0.822564
3645.000000	0.822751
3644.000000	0.822921
3643.000000	0.823067
3642.000000	0.823193
3641.000000	0.823302
3640.000000	0.823397
3639.000000	0.823480
3638.000000	0.823560
3637.000000	0.823650
3636.000000	0.823753
3635.000000	0.823859
3634.000000	0.823949
3633.000000	0.824010
3632.000000	0.824047
3631.000000	0.824074
3630.000000	0.824101
3629.000000	0.824136
3628.000000	0.824190
3627.000000	0.824282
3626.000000	0.824416
3625.000000	0.824576
3624.000000	0.824727
3623.000000	0.824850
3622.000000	0.824942
3621.000000	0.825016
3620.000000	0.825077
3619.000000	0.825126
3618.000000	0.825174
3617.000000	0.825234
3616.000000	0.825314
3615.000000	0.825404
3614.000000	0.825488
3613.000000	0.825560
3612.000000	0.825631
3611.000000	0.825713
3610.000000	0.825811
3609.000000	0.825914
3608.000000	0.826010
3607.000000	0.826097
3606.000000	0.826182
3605.000000	0.826280
3604.000000	0.826407
3603.000000	0.826572
3602.000000	0.826763
3601.000000	0.826944
3600.000000	0.827078
3599.000000	0.827149
3598.000000	0.827171
3597.000000	0.827173
3596.000000	0.827176
3595.000000	0.827188
3594.000000	0.827209
3593.000000	0.827242
3592.000000	0.827287
3591.000000	0.827341
3590.000000	0.827398
3589.000000	0.827454
3588.000000	0.827506
3587.000000	0.827556
3586.000000	0.827612
3585.000000	0.827680
3584.000000	0.827760
3583.000000	0.827837
3582.000000	0.827901
3581.000000	0.827947
3580.000000	0.827986
3579.000000	0.828033
3578.000000	0.828098
3577.000000	0.828178
3576.000000	0.828262
3575.000000	0.828334
3574.000000	0.828383
3573.000000	0.828416
3572.000000	0.828446
3571.000000	0.828486
3570.000000	0.828539
3569.000000	0.828594
3568.000000	0.828641
3567.000000	0.828677
3566.000000	0.828708
3565.000000	0.828746
3564.000000	0.828801
3563.000000	0.828874
3562.000000	0.828958
3561.000000	0.829043
3560.000000	0.829117
3559.000000	0.829180
3558.000000	0.829235
3557.000000	0.829285
3556.000000	0.829331
3555.000000	0.829375
3554.000000	0.829421
3553.000000	0.829471
3552.000000	0.829526
3551.000000	0.829580
3550.000000	0.829627
3549.000000	0.829664
3548.000000	0.829694
3547.000000	0.829729
3546.000000	0.829777
3545.000000	0.829841
3544.000000	0.829914
3543.000000	0.829991
3542.000000	0.830068
3541.000000	0.830141
3540.000000	0.830205
3539.000000	0.830259
3538.000000	0.830305
3537.000000	0.830350
3536.000000	0.830398
3535.000000	0.830452
3534.000000	0.830516
3533.000000	0.830591
3532.000000	0.830670
3531.000000	0.830744
3530.000000	0.830811
3529.000000	0.830882
3528.000000	0.830965
3527.000000	0.831055
3526.000000	0.831142
3525.000000	0.831218
3524.000000	0.831285
3523.000000	0.831349
3522.000000	0.831416
3521.000000	0.831492
3520.000000	0.831582
3519.000000	0.831687
3518.000000	0.831797
3517.000000	0.831902
3516.000000	0.831992
3515.000000	0.832070
3514.000000	0.832152
3513.000000	0.832252
3512.000000	0.832371
3511.000000	0.832491
3510.000000	0.832594
3509.000000	0.832677
3508.000000	0.832757
3507.000000	0.832852
3506.000000	0.832967
3505.000000	0.833093
3504.000000	0.833220
3503.000000	0.833343
3502.000000	0.833462
3501.000000	0.833577
3500.000000	0.833690
3499.000000	0.833804
3498.000000	0.833920
3497.000000	0.834046
3496.000000	0.834183
3495.000000	0.834326
3494.000000	0.834465
3493.000000	0.834589
3492.000000	0.834695
3491.000000	0.834790
3490.000000	0.834891
3489.000000	0.835010
3488.000000	0.835147
3487.000000	0.835291
3486.000000	0.835432
3485.000000	0.835563
3484.000000	0.835687
3483.000000	0.835810
3482.000000	0.835936
3481.000000	0.836063
3480.000000	0.836188
3479.000000	0.836311
3478.000000	0.836432
3477.000000	0.836555
3476.000000	0.836681
3475.000000	0.836811
3474.000000	0.836945
3473.000000	0.837087
3472.000000	0.837235
3471.000000	0.837381
3470.000000	0.837519
3469.000000	0.837649
3468.000000	0.837780
3467.000000	0.837919
3466.000000	0.838069
3465.000000	0.838225
3464.000000	0.838382
3463.000000	0.838534
3462.000000	0.838674
3461.000000	0.838798
3460.000000	0.838913
3459.000000	0.839030
3458.000000	0.839156
3457.000000	0.839293
3456.000000	0.839432
3455.000000	0.839568
3454.000000	0.839701
3453.000000	0.839837
3452.000000	0.839977
3451.000000	0.840119
3450.000000	0.840256
3449.000000	0.840386
3448.000000	0.840511
3447.000000	0.840640
3446.000000	0.840770
3445.000000	0.840892
3444.000000	0.841001
3443.000000	0.841104
3442.000000	0.841215
3441.000000	0.841337
3440.000000	0.841462
3439.000000	0.841576
3438.000000	0.841675
3437.000000	0.841761
3436.000000	0.841841
3435.000000	0.841923
3434.000000	0.842019
3433.000000	0.842135
3432.000000	0.842264
3431.000000	0.842390
3430.000000	0.842503
3429.000000	0.842606
3428.000000	0.842712
3427.000000	0.842826
3426.000000	0.842948
3425.000000	0.843069
3424.000000	0.843180
3423.000000	0.843273
3422.000000	0.843351
3421.000000	0.843419
3420.000000	0.843488
3419.000000	0.843567
3418.000000	0.843657
3417.000000	0.843755
3416.000000	0.843856
3415.000000	0.843951
3414.000000	0.844035
3413.000000	0.844103
3412.000000	0.844158
3411.000000	0.844208
3410.000000	0.844265
3409.000000	0.844337
3408.000000	0.844425
3407.000000	0.844520
3406.000000	0.844617
3405.000000	0.844707
3404.000000	0.844781
3403.000000	0.844834
3402.000000	0.844871
3401.000000	0.844911
3400.000000	0.844970
3399.000000	0.845047
3398.000000	0.845124
3397.000000	0.845188
3396.000000	0.845234
3395.000000	0.845265
3394.000000	0.845290
3393.000000	0.845314
3392.000000	0.845340
3391.000000	0.845373
3390.000000	0.845417
3389.000000	0.845472
3388.000000	0.845534
3387.000000	0.845592
3386.000000	0.845640
3385.000000	0.845678
3384.000000	0.845711
3383.000000	0.845740
3382.000000	0.845763
3381.000000	0.845777
3380.000000	0.845789
3379.000000	0.845811
3378.000000	0.845852
3377.000000	0.845907
3376.000000	0.845955
3375.000000	0.845979
3374.000000	0.845975
3373.000000	0.845959
3372.000000	0.845951
3371.000000	0.845965
3370.000000	0.846000
3369.000000	0.846050
3368.000000	0.846110
3367.000000	0.846171
3366.000000	0.846220
3365.000000	0.846249
3364.000000	0.846258
3363.000000	0.846257
3362.000000	0.846262
3361.000000	0.846280
3360.000000	0.846308
3359.000000	0.846342
3358.000000	0.846375
3357.000000	0.846407
3356.000000	0.846438
3355.000000	0.846469
3354.000000	0.846493
3353.000000	0.846510
3352.000000	0.846519
3351.000000	0.846522
3350.000000	0.846528
3349.000000	0.846543
3348.000000	0.846574
3347.000000	0.846616
3346.000000	0.846656
3345.000000	0.846681
3344.000000	0.846688
3343.000000	0.846685
3342.000000	0.846682
3341.000000	0.846682
3340.000000	0.846683
3339.000000	0.846690
3338.000000	0.846710
3337.000000	0.846742
3336.000000	0.846780
3335.000000	0.846813
3334.000000	0.846834
3333.000000	0.846842
3332.000000	0.846843
3331.000000	0.846845
3330.000000	0.846856
3329.000000	0.846878
3328.000000	0.846913
3327.000000	0.846957
3326.000000	0.847005
3325.000000	0.847052
3324.000000	0.847092
3323.000000	0.847122
3322.000000	0.847146
3321.000000	0.847169
3320.000000	0.847200
3319.000000	0.847237
3318.000000	0.847274
3317.000000	0.847307
3316.000000	0.847335
3315.000000	0.847359
3314.000000	0.847377
3313.000000	0.847384
3312.000000	0.847388
3311.000000	0.847398
3310.000000	0.847420
3309.000000	0.847443
3308.000000	0.847456
3307.000000	0.847468
3306.000000	0.847498
3305.000000	0.847559
3304.000000	0.847631
3303.000000	0.847690
3302.000000	0.847720
3301.000000	0.847730
3300.000000	0.847735
3299.000000	0.847747
3298.000000	0.847773
3297.000000	0.847813
3296.000000	0.847859
3295.000000	0.847899
3294.000000	0.847928
3293.000000	0.847946
3292.000000	0.847959
3291.000000	0.847968
3290.000000	0.847977
3289.000000	0.847992
3288.000000	0.848017
3287.000000	0.848049
3286.000000	0.848082
3285.000000	0.848111
3284.000000	0.848131
3283.000000	0.848142
3282.000000	0.848150
3281.000000	0.848160
3280.000000	0.848176
3279.000000	0.848199
3278.000000	0.848230
3277.000000	0.848271
3276.000000	0.848314
3275.000000	0.848348
3274.000000	0.848365
3273.000000	0.848364
3272.000000	0.848359
3271.000000	0.848368
3270.000000	0.848401
3269.000000	0.848453
3268.000000	0.848500
3267.000000	0.848521
3266.000000	0.848516
3265.000000	0.848510
3264.000000	0.848526
3263.000000	0.848562
3262.000000	0.848595
3261.000000	0.848606
3260.000000	0.848599
3259.000000	0.848595
3258.000000	0.848607
3257.000000	0.848635
3256.000000	0.848672
3255.000000	0.848715
3254.000000	0.848760
3253.000000	0.848798
3252.000000	0.848821
3251.000000	0.848831
3250.000000	0.848837
3249.000000	0.848848
3248.000000	0.848870
3247.000000	0.848901
3246.000000	0.848932
3245.000000	0.848952
3244.000000	0.848958
3243.000000	0.848955
3242.000000	0.848953
3241.000000	0.848957
3240.000000	0.848966
3239.000000	0.848982
3238.000000	0.849008
3237.000000	0.849043
3236.000000	0.849072
3235.000000	0.849079
3234.000000	0.849071
3233.000000	0.849072
3232.000000	0.849098
3231.000000	0.849144
3230.000000	0.849188
3229.000000	0.849214
3228.000000	0.849223
3227.000000	0.849230
3226.000000	0.849246
3225.000000	0.849268
3224.000000	0.849288
3223.000000	0.849301
3222.000000	0.849311
3221.000000	0.849326
3220.000000	0.849350
3219.000000	0.849380
3218.000000	0.849415
3217.000000	0.849452
3216.000000	0.849487
3215.000000	0.849509
3214.000000	0.849517
3213.000000	0.849523
3212.000000	0.849540
3211.000000	0.849571
3210.000000	0.849607
3209.000000	0.849641
3208.000000	0.849666
3207.000000	0.849681
3206.000000	0.849688
3205.000000	0.849692
3204.000000	0.849697
3203.000000	0.849703
3202.000000	0.849709
3201.000000	0.849717
3200.000000	0.849725
3199.000000	0.849729
3198.000000	0.849728
3197.000000	0.849732
3196.000000	0.849753
3195.000000	0.849787
3194.000000	0.849820
3193.000000	0.849839
3192.000000	0.849845
3191.000000	0.849847
3190.000000	0.849853
3189.000000	0.849865
3188.000000	0.849880
3187.000000	0.849896
3186.000000	0.849915
3185.000000	0.849939
3184.000000	0.849971
3183.000000	0.850006
3182.000000	0.850035
3181.000000	0.850052
3180.000000	0.850056
3179.000000	0.850053
3178.000000	0.850048
3177.000000	0.850045
3176.000000	0.850041
3175.000000	0.850038
3174.000000	0.850040
3173.000000	0.850054
3172.000000	0.850081
3171.000000	0.850112
3170.000000	0.850136
3169.000000	0.850146
3168.000000	0.850149
3167.000000	0.850155
3166.000000	0.850172
3165.000000	0.850192
3164.000000	0.850204
3163.000000	0.850205
3162.000000	0.850202
3161.000000	0.850203
3160.000000	0.850209
3159.000000	0.850217
3158.000000	0.850229
3157.000000	0.850245
3156.000000	0.850263
3155.000000	0.850276
3154.000000	0.850283
3153.000000	0.850293
3152.000000	0.850315
3151.000000	0.850348
3150.000000	0.850382
3149.000000	0.850406
3148.000000	0.850418
3147.000000	0.850426
3146.000000	0.850436
3145.000000	0.850444
3144.000000	0.850446
3143.000000	0.850442
3142.000000	0.850440
3141.000000	0.850450
3140.000000	0.850473
3139.000000	0.850499
3138.000000	0.850524
3137.000000	0.850543
3136.000000	0.850557
3135.000000	0.850568
3134.000000	0.850583
3133.000000	0.850610
3132.000000	0.850648
3131.000000	0.850687
3130.000000	0.850717
3129.000000	0.850736
3128.000000	0.850752
3127.000000	0.850766
3126.000000	0.850775
3125.000000	0.850778
3124.000000	0.850780
3123.000000	0.850785
3122.000000	0.850795
3121.000000	0.850807
3120.000000	0.850813
3119.000000	0.850812
3118.000000	0.850814
3117.000000	0.850831
3116.000000	0.850867
3115.000000	0.850908
3114.000000	0.850938
3113.000000	0.850951
3112.000000	0.850955
3111.000000	0.850958
3110.000000	0.850963
3109.000000	0.850972
3108.000000	0.850985
3107.000000	0.851006
3106.000000	0.851033
3105.000000	0.851061
3104.000000	0.851085
3103.000000	0.851101
3102.000000	0.851106
3101.000000	0.851103
3100.000000	0.851093
3099.000000	0.851081
3098.000000	0.851074
3097.000000	0.851077
3096.000000	0.851090
3095.000000	0.851106
3094.000000	0.851112
3093.000000	0.851104
3092.000000	0.851085
3091.000000	0.851063
3090.000000	0.851051
3089.000000	0.851054
3088.000000	0.851068
3087.000000	0.851083
3086.000000	0.851089
3085.000000	0.851083
3084.000000	0.851068
3083.000000	0.851045
3082.000000	0.851023
3081.000000	0.851011
3080.000000	0.851015
3079.000000	0.851028
3078.000000	0.851040
3077.000000	0.851047
3076.000000	0.851052
3075.000000	0.851058
3074.000000	0.851061
3073.000000	0.851053
3072.000000	0.851028
3071.000000	0.850991
3070.000000	0.850956
3069.000000	0.850936
3068.000000	0.850934
3067.000000	0.850934
3066.000000	0.850921
3065.000000	0.850892
3064.000000	0.850859
3063.000000	0.850833
3062.000000	0.850817
3061.000000	0.850808
3060.000000	0.850801
3059.000000	0.850792
3058.000000	0.850775
3057.000000	0.850746
3056.000000	0.850714
3055.000000	0.850689
3054.000000	0.850675
3053.000000	0.850664
3052.000000	0.850645
3051.000000	0.850614
3050.000000	0.850575
3049.000000	0.850536
3048.000000	0.850504
3047.000000	0.850477
3046.000000	0.850447
3045.000000	0.850413
3044.000000	0.850379
3043.000000	0.850353
3042.000000	0.850339
3041.000000	0.850334
3040.000000	0.850333
3039.000000	0.850327
3038.000000	0.850311
3037.000000	0.850284
3036.000000	0.850252
3035.000000	0.850224
3034.000000	0.850201
3033.000000	0.850178
3032.000000	0.850149
3031.000000	0.850112
3030.000000	0.850071
3029.000000	0.850039
3028.000000	0.850025
3027.000000	0.850026
3026.000000	0.850032
3025.000000	0.850029
3024.000000	0.850012
3023.000000	0.849985
3022.000000	0.849955
3021.000000	0.849928
3020.000000	0.849904
3019.000000	0.849880
3018.000000	0.849854
3017.000000	0.849826
3016.000000	0.849798
3015.000000	0.849767
3014.000000	0.849725
3013.000000	0.849668
3012.000000	0.849606
3011.000000	0.849550
3010.000000	0.849506
3009.000000	0.849469
3008.000000	0.849431
3007.000000	0.849394
3006.000000	0.849367
3005.000000	0.849354
3004.000000	0.849348
3003.000000	0.849336
3002.000000	0.849306
3001.000000	0.849258
3000.000000	0.849201
2999.000000	0.849145
2998.000000	0.849098
2997.000000	0.849065
2996.000000	0.849040
2995.000000	0.849014
2994.000000	0.848977
2993.000000	0.848932
2992.000000	0.848884
2991.000000	0.848842
2990.000000	0.848805
2989.000000	0.848771
2988.000000	0.848735
2987.000000	0.848697
2986.000000	0.848658
2985.000000	0.848620
2984.000000	0.848585
2983.000000	0.848552
2982.000000	0.848515
2981.000000	0.848474
2980.000000	0.848437
2979.000000	0.848414
2978.000000	0.848407
2977.000000	0.848404
2976.000000	0.848389
2975.000000	0.848354
2974.000000	0.848307
2973.000000	0.848265
2972.000000	0.848239
2971.000000	0.848229
2970.000000	0.848224
2969.000000	0.848216
2968.000000	0.848203
2967.000000	0.848182
2966.000000	0.848147
2965.000000	0.848100
2964.000000	0.848047
2963.000000	0.847996
2962.000000	0.847946
2961.000000	0.847895
2960.000000	0.847840
2959.000000	0.847785
2958.000000	0.847731
2957.000000	0.847674
2956.000000	0.847610
2955.000000	0.847536
2954.000000	0.847453
2953.000000	0.847367
2952.000000	0.847288
2951.000000	0.847223
2950.000000	0.847176
2949.000000	0.847139
2948.000000	0.847104
2947.000000	0.847068
2946.000000	0.847033
2945.000000	0.847003
2944.000000	0.846978
2943.000000	0.846951
2942.000000	0.846920
2941.000000	0.846889
2940.000000	0.846860
2939.000000	0.846832
2938.000000	0.846797
2937.000000	0.846751
2936.000000	0.846697
2935.000000	0.846640
2934.000000	0.846590
2933.000000	0.846550
2932.000000	0.846520
2931.000000	0.846493
2930.000000	0.846461
2929.000000	0.846425
2928.000000	0.846389
2927.000000	0.846355
2926.000000	0.846316
2925.000000	0.846259
2924.000000	0.846182
2923.000000	0.846092
2922.000000	0.846002
2921.000000	0.845922
2920.000000	0.845856
2919.000000	0.845797
2918.000000	0.845738
2917.000000	0.845678
2916.000000	0.845620
2915.000000	0.845567
2914.000000	0.845521
2913.000000	0.845481
2912.000000	0.845449
2911.000000	0.845419
2910.000000	0.845387
2909.000000	0.845346
2908.000000	0.845295
2907.000000	0.845240
2906.000000	0.845185
2905.000000	0.845131
2904.000000	0.845082
2903.000000	0.845038
2902.000000	0.845000
2901.000000	0.844964
2900.000000	0.844922
2899.000000	0.844872
2898.000000	0.844820
2897.000000	0.844774
2896.000000	0.844737
2895.000000	0.844699
2894.000000	0.844648
2893.000000	0.844585
2892.000000	0.844520
2891.000000	0.844465
2890.000000	0.844421
2889.000000	0.844381
2888.000000	0.844337
2887.000000	0.844287
2886.000000	0.844232
2885.000000	0.844180
2884.000000	0.844139
2883.000000	0.844103
2882.000000	0.844061
2881.000000	0.844004
2880.000000	0.843940
2879.000000	0.843887
2878.000000	0.843850
2877.000000	0.843816
2876.000000	0.843771
2875.000000	0.843714
2874.000000	0.843658
2873.000000	0.843612
2872.000000	0.843574
2871.000000	0.843531
2870.000000	0.843480
2869.000000	0.843425
2868.000000	0.843374
2867.000000	0.843329
2866.000000	0.843288
2865.000000	0.843250
2864.000000	0.843215
2863.000000	0.843180
2862.000000	0.843141
2861.000000	0.843095
2860.000000	0.843040
2859.000000	0.842976
2858.000000	0.842909
2857.000000	0.842850
2856.000000	0.842809
2855.000000	0.842783
2854.000000	0.842755
2853.000000	0.842713
2852.000000	0.842659
2851.000000	0.842609
2850.000000	0.842572
2849.000000	0.842547
2848.000000	0.842525
2847.000000	0.842506
2846.000000	0.842493
2845.000000	0.842484
2844.000000	0.842472
2843.000000	0.842449
2842.000000	0.842409
2841.000000	0.842357
2840.000000	0.842305
2839.000000	0.842267
2838.000000	0.842245
2837.000000	0.842235
2836.000000	0.842225
2835.000000	0.842209
2834.000000	0.842187
2833.000000	0.842157
2832.000000	0.842116
2831.000000	0.842068
2830.000000	0.842024
2829.000000	0.841995
2828.000000	0.841981
2827.000000	0.841972
2826.000000	0.841959
2825.000000	0.841941
2824.000000	0.841916
2823.000000	0.841883
2822.000000	0.841843
2821.000000	0.841800
2820.000000	0.841761
2819.000000	0.841726
2818.000000	0.841692
2817.000000	0.841655
2816.000000	0.841619
2815.000000	0.841587
2814.000000	0.841557
2813.000000	0.841524
2812.000000	0.841484
2811.000000	0.841445
2810.000000	0.841414
2809.000000	0.841396
2808.000000	0.841385
2807.000000	0.841372
2806.000000	0.841348
2805.000000	0.841317
2804.000000	0.841284
2803.000000	0.841255
2802.000000	0.841228
2801.000000	0.841199
2800.000000	0.841164
2799.000000	0.841127
2798.000000	0.841092
2797.000000	0.841061
2796.000000	0.841033
2795.000000	0.841005
2794.000000	0.840976
2793.000000	0.840950
2792.000000	0.840934
2791.000000	0.840931
2790.000000	0.840937
2789.000000	0.840940
2788.000000	0.840930
2787.000000	0.840907
2786.000000	0.840877
2785.000000	0.840849
2784.000000	0.840829
2783.000000	0.840813
2782.000000	0.840793
2781.000000	0.840764
2780.000000	0.840727
2779.000000	0.840692
2778.000000	0.840667
2777.000000	0.840655
2776.000000	0.840652
2775.000000	0.840654
2774.000000	0.840657
2773.000000	0.840661
2772.000000	0.840659
2771.000000	0.840644
2770.000000	0.840613
2769.000000	0.840572
2768.000000	0.840536
2767.000000	0.840512
2766.000000	0.840493
2765.000000	0.840472
2764.000000	0.840447
2763.000000	0.840423
2762.000000	0.840402
2761.000000	0.840383
2760.000000	0.840365
2759.000000	0.840349
2758.000000	0.840336
2757.000000	0.840322
2756.000000	0.840305
2755.000000	0.840288
2754.000000	0.840279
2753.000000	0.840281
2752.000000	0.840285
2751.000000	0.840279
2750.000000	0.840259
2749.000000	0.840237
2748.000000	0.840228
2747.000000	0.840237
2746.000000	0.840254
2745.000000	0.840265
2744.000000	0.840261
2743.000000	0.840245
2742.000000	0.840225
2741.000000	0.840212
2740.000000	0.840210
2739.000000	0.840220
2738.000000	0.840235
2737.000000	0.840249
2736.000000	0.840255
2735.000000	0.840251
2734.000000	0.840233
2733.000000	0.840206
2732.000000	0.840176
2731.000000	0.840149
2730.000000	0.840125
2729.000000	0.840105
2728.000000	0.840093
2727.000000	0.840096
2726.000000	0.840106
2725.000000	0.840111
2724.000000	0.840102
2723.000000	0.840084
2722.000000	0.840067
2721.000000	0.840054
2720.000000	0.840047
2719.000000	0.840042
2718.000000	0.840036
2717.000000	0.840025
2716.000000	0.840011
2715.000000	0.839999
2714.000000	0.840001
2713.000000	0.840017
2712.000000	0.840038
2711.000000	0.840053
2710.000000	0.840056
2709.000000	0.840051
2708.000000	0.840041
2707.000000	0.840027
2706.000000	0.840011
2705.000000	0.839992
2704.000000	0.839976
2703.000000	0.839968
2702.000000	0.839966
2701.000000	0.839964
2700.000000	0.839960
2699.000000	0.839957
2698.000000	0.839957
2697.000000	0.839962
2696.000000	0.839969
2695.000000	0.839974
2694.000000	0.839978
2693.000000	0.839985
2692.000000	0.839994
2691.000000	0.840001
2690.000000	0.840001
2689.000000	0.839995
2688.000000	0.839989
2687.000000	0.839992
2686.000000	0.840003
2685.000000	0.840011
2684.000000	0.840009
2683.000000	0.839999
2682.000000	0.839989
2681.000000	0.839985
2680.000000	0.839990
2679.000000	0.840002
2678.000000	0.840018
2677.000000	0.840034
2676.000000	0.840049
2675.000000	0.840062
2674.000000	0.840074
2673.000000	0.840083
2672.000000	0.840086
2671.000000	0.840083
2670.000000	0.840080
2669.000000	0.840085
2668.000000	0.840099
2667.000000	0.840118
2666.000000	0.840132
2665.000000	0.840136
2664.000000	0.840131
2663.000000	0.840125
2662.000000	0.840126
2661.000000	0.840138
2660.000000	0.840159
2659.000000	0.840182
2658.000000	0.840204
2657.000000	0.840223
2656.000000	0.840241
2655.000000	0.840255
2654.000000	0.840262
2653.000000	0.840262
2652.000000	0.840262
2651.000000	0.840272
2650.000000	0.840293
2649.000000	0.840318
2648.000000	0.840338
2647.000000	0.840353
2646.000000	0.840370
2645.000000	0.840393
2644.000000	0.840421
2643.000000	0.840453
2642.000000	0.840485
2641.000000	0.840509
2640.000000	0.840517
2639.000000	0.840512
2638.000000	0.840504
2637.000000	0.840506
2636.000000	0.840522
2635.000000	0.840546
2634.000000	0.840570
2633.000000	0.840589
2632.000000	0.840602
2631.000000	0.840613
2630.000000	0.840626
2629.000000	0.840641
2628.000000	0.840655
2627.000000	0.840664
2626.000000	0.840668
2625.000000	0.840674
2624.000000	0.840689
2623.000000	0.840711
2622.000000	0.840728
2621.000000	0.840731
2620.000000	0.840728
2619.000000	0.840737
2618.000000	0.840765
2617.000000	0.840797
2616.000000	0.840816
2615.000000	0.840820
2614.000000	0.840823
2613.000000	0.840836
2612.000000	0.840855
2611.000000	0.840870
2610.000000	0.840881
2609.000000	0.840895
2608.000000	0.840913
2607.000000	0.840933
2606.000000	0.840952
2605.000000	0.840972
2604.000000	0.840995
2603.000000	0.841021
2602.000000	0.841044
2601.000000	0.841056
2600.000000	0.841057
2599.000000	0.841055
2598.000000	0.841062
2597.000000	0.841081
2596.000000	0.841107
2595.000000	0.841136
2594.000000	0.841166
2593.000000	0.841195
2592.000000	0.841216
2591.000000	0.841228
2590.000000	0.841239
2589.000000	0.841254
2588.000000	0.841273
2587.000000	0.841290
2586.000000	0.841306
2585.000000	0.841324
2584.000000	0.841344
2583.000000	0.841363
2582.000000	0.841382
2581.000000	0.841402
2580.000000	0.841426
2579.000000	0.841448
2578.000000	0.841465
2577.000000	0.841481
2576.000000	0.841503
2575.000000	0.841527
2574.000000	0.841544
2573.000000	0.841552
2572.000000	0.841558
2571.000000	0.841572
2570.000000	0.841597
2569.000000	0.841624
2568.000000	0.841645
2567.000000	0.841659
2566.000000	0.841671
2565.000000	0.841684
2564.000000	0.841699
2563.000000	0.841715
2562.000000	0.841734
2561.000000	0.841758
2560.000000	0.841790
2559.000000	0.841827
2558.000000	0.841869
2557.000000	0.841912
2556.000000	0.841954
2555.000000	0.841993
2554.000000	0.842026
2553.000000	0.842050
2552.000000	0.842068
2551.000000	0.842087
2550.000000	0.842115
2549.000000	0.842147
2548.000000	0.842173
2547.000000	0.842184
2546.000000	0.842178
2545.000000	0.842166
2544.000000	0.842159
2543.000000	0.842163
2542.000000	0.842181
2541.000000	0.842214
2540.000000	0.842260
2539.000000	0.842305
2538.000000	0.842337
2537.000000	0.842350
2536.000000	0.842350
2535.000000	0.842351
2534.000000	0.842361
2533.000000	0.842373
2532.000000	0.842385
2531.000000	0.842405
2530.000000	0.842442
2529.000000	0.842493
2528.000000	0.842543
2527.000000	0.842579
2526.000000	0.842605
2525.000000	0.842632
2524.000000	0.842665
2523.000000	0.842699
2522.000000	0.842724
2521.000000	0.842737
2520.000000	0.842742
2519.000000	0.842744
2518.000000	0.842749
2517.000000	0.842759
2516.000000	0.842777
2515.000000	0.842800
2514.000000	0.842828
2513.000000	0.842858
2512.000000	0.842889
2511.000000	0.842920
2510.000000	0.842946
2509.000000	0.842962
2508.000000	0.842970
2507.000000	0.842977
2506.000000	0.842991
2505.000000	0.843012
2504.000000	0.843037
2503.000000	0.843064
2502.000000	0.843092
2501.000000	0.843120
2500.000000	0.843148
2499.000000	0.843177
2498.000000	0.843212
2497.000000	0.843248
2496.000000	0.843280
2495.000000	0.843303
2494.000000	0.843321
2493.000000	0.843345
2492.000000	0.843375
2491.000000	0.843403
2490.000000	0.843418
2489.000000	0.843420
2488.000000	0.843420
2487.000000	0.843431
2486.000000	0.843453
2485.000000	0.843476
2484.000000	0.843493
2483.000000	0.843504
2482.000000	0.843514
2481.000000	0.843529
2480.000000	0.843554
2479.000000	0.843591
2478.000000	0.843632
2477.000000	0.843669
2476.000000	0.843691
2475.000000	0.843700
2474.000000	0.843709
2473.000000	0.843731
2472.000000	0.843769
2471.000000	0.843814
2470.000000	0.843855
2469.000000	0.843885
2468.000000	0.843904
2467.000000	0.843915
2466.000000	0.843920
2465.000000	0.843923
2464.000000	0.843934
2463.000000	0.843963
2462.000000	0.844012
2461.000000	0.844069
2460.000000	0.844115
2459.000000	0.844138
2458.000000	0.844139
2457.000000	0.844134
2456.000000	0.844142
2455.000000	0.844171
2454.000000	0.844211
2453.000000	0.844244
2452.000000	0.844259
2451.000000	0.844264
2450.000000	0.844269
2449.000000	0.844274
2448.000000	0.844272
2447.000000	0.844259
2446.000000	0.844243
2445.000000	0.844231
2444.000000	0.844222
2443.000000	0.844210
2442.000000	0.844197
2441.000000	0.844188
2440.000000	0.844185
2439.000000	0.844184
2438.000000	0.844179
2437.000000	0.844166
2436.000000	0.844148
2435.000000	0.844131
2434.000000	0.844126
2433.000000	0.844131
2432.000000	0.844138
2431.000000	0.844139
2430.000000	0.844127
2429.000000	0.844107
2428.000000	0.844083
2427.000000	0.844060
2426.000000	0.844041
2425.000000	0.844028
2424.000000	0.844015
2423.000000	0.844000
2422.000000	0.843984
2421.000000	0.843971
2420.000000	0.843962
2419.000000	0.843952
2418.000000	0.843936
2417.000000	0.843910
2416.000000	0.843873
2415.000000	0.843828
2414.000000	0.843787
2413.000000	0.843757
2412.000000	0.843736
2411.000000	0.843713
2410.000000	0.843684
2409.000000	0.843651
2408.000000	0.843622
2407.000000	0.843597
2406.000000	0.843574
2405.000000	0.843552
2404.000000	0.843529
2403.000000	0.843502
2402.000000	0.843464
2401.000000	0.843415
2400.000000	0.843362
2399.000000	0.843315
2398.000000	0.843276
2397.000000	0.843242
2396.000000	0.843203
2395.000000	0.843155
2394.000000	0.843098
2393.000000	0.843037
2392.000000	0.842980
2391.000000	0.842932
2390.000000	0.842887
2389.000000	0.842838
2388.000000	0.842784
2387.000000	0.842730
2386.000000	0.842686
2385.000000	0.842661
2384.000000	0.842671
2383.000000	0.842734
2382.000000	0.842867
2381.000000	0.843075
2380.000000	0.843345
2379.000000	0.843655
2378.000000	0.843972
2377.000000	0.844258
2376.000000	0.844481
2375.000000	0.844627
2374.000000	0.844705
2373.000000	0.844732
2372.000000	0.844732
2371.000000	0.844720
2370.000000	0.844702
2369.000000	0.844673
2368.000000	0.844631
2367.000000	0.844584
2366.000000	0.844547
2365.000000	0.844530
2364.000000	0.844535
2363.000000	0.844567
2362.000000	0.844636
2361.000000	0.844747
2360.000000	0.844893
2359.000000	0.845058
2358.000000	0.845227
2357.000000	0.845396
2356.000000	0.845567
2355.000000	0.845750
2354.000000	0.845946
2353.000000	0.846146
2352.000000	0.846332
2351.000000	0.846488
2350.000000	0.846611
2349.000000	0.846706
2348.000000	0.846781
2347.000000	0.846849
2346.000000	0.846940
2345.000000	0.847090
2344.000000	0.847329
2343.000000	0.847656
2342.000000	0.848026
2341.000000	0.848358
2340.000000	0.848566
2339.000000	0.848596
2338.000000	0.848442
2337.000000	0.848145
2336.000000	0.847775
2335.000000	0.847407
2334.000000	0.847095
2333.000000	0.846846
2332.000000	0.846640
2331.000000	0.846457
2330.000000	0.846305
2329.000000	0.846198
2328.000000	0.846133
2327.000000	0.846088
2326.000000	0.846047
2325.000000	0.846008
2324.000000	0.845974
2323.000000	0.845944
2322.000000	0.845919
2321.000000	0.845905
2320.000000	0.845901
2319.000000	0.845895
2318.000000	0.845880
2317.000000	0.845859
2316.000000	0.845846
2315.000000	0.845847
2314.000000	0.845857
2313.000000	0.845864
2312.000000	0.845864
2311.000000	0.845860
2310.000000	0.845857
2309.000000	0.845860
2308.000000	0.845868
2307.000000	0.845881
2306.000000	0.845892
2305.000000	0.845895
2304.000000	0.845884
2303.000000	0.845865
2302.000000	0.845852
2301.000000	0.845851
2300.000000	0.845862
2299.000000	0.845878
2298.000000	0.845894
2297.000000	0.845910
2296.000000	0.845920
2295.000000	0.845921
2294.000000	0.845917
2293.000000	0.845910
2292.000000	0.845901
2291.000000	0.845891
2290.000000	0.845887
2289.000000	0.845895
2288.000000	0.845916
2287.000000	0.845947
2286.000000	0.845998
2285.000000	0.846082
2284.000000	0.846193
2283.000000	0.846300
2282.000000	0.846365
2281.000000	0.846375
2280.000000	0.846346
2279.000000	0.846304
2278.000000	0.846272
2277.000000	0.846260
2276.000000	0.846267
2275.000000	0.846278
2274.000000	0.846277
2273.000000	0.846260
2272.000000	0.846237
2271.000000	0.846223
2270.000000	0.846224
2269.000000	0.846231
2268.000000	0.846233
2267.000000	0.846226
2266.000000	0.846217
2265.000000	0.846216
2264.000000	0.846220
2263.000000	0.846222
2262.000000	0.846222
2261.000000	0.846224
2260.000000	0.846229
2259.000000	0.846235
2258.000000	0.846239
2257.000000	0.846245
2256.000000	0.846255
2255.000000	0.846270
2254.000000	0.846289
2253.000000	0.846305
2252.000000	0.846308
2251.000000	0.846296
2250.000000	0.846276
2249.000000	0.846263
2248.000000	0.846261
2247.000000	0.846267
2246.000000	0.846273
2245.000000	0.846284
2244.000000	0.846301
2243.000000	0.846320
2242.000000	0.846331
2241.000000	0.846337
2240.000000	0.846342
2239.000000	0.846350
2238.000000	0.846358
2237.000000	0.846363
2236.000000	0.846363
2235.000000	0.846360
2234.000000	0.846356
2233.000000	0.846350
2232.000000	0.846343
2231.000000	0.846334
2230.000000	0.846324
2229.000000	0.846318
2228.000000	0.846319
2227.000000	0.846323
2226.000000	0.846328
2225.000000	0.846334
2224.000000	0.846338
2223.000000	0.846337
2222.000000	0.846330
2221.000000	0.846325
2220.000000	0.846327
2219.000000	0.846333
2218.000000	0.846333
2217.000000	0.846324
2216.000000	0.846312
2215.000000	0.846303
2214.000000	0.846295
2213.000000	0.846282
2212.000000	0.846265
2211.000000	0.846246
2210.000000	0.846229
2209.000000	0.846219
2208.000000	0.846213
2207.000000	0.846206
2206.000000	0.846195
2205.000000	0.846180
2204.000000	0.846169
2203.000000	0.846167
2202.000000	0.846168
2201.000000	0.846162
2200.000000	0.846143
2199.000000	0.846111
2198.000000	0.846076
2197.000000	0.846048
2196.000000	0.846031
2195.000000	0.846022
2194.000000	0.846017
2193.000000	0.846015
2192.000000	0.846012
2191.000000	0.846006
2190.000000	0.845992
2189.000000	0.845973
2188.000000	0.845955
2187.000000	0.845942
2186.000000	0.845936
2185.000000	0.845940
2184.000000	0.845950
2183.000000	0.845957
2182.000000	0.845951
2181.000000	0.845934
2180.000000	0.845911
2179.000000	0.845888
2178.000000	0.845859
2177.000000	0.845821
2176.000000	0.845777
2175.000000	0.845738
2174.000000	0.845712
2173.000000	0.845700
2172.000000	0.845694
2171.000000	0.845684
2170.000000	0.845665
2169.000000	0.845641
2168.000000	0.845617
2167.000000	0.845593
2166.000000	0.845564
2165.000000	0.845525
2164.000000	0.845479
2163.000000	0.845436
2162.000000	0.845404
2161.000000	0.845387
2160.000000	0.845384
2159.000000	0.845390
2158.000000	0.845393
2157.000000	0.845383
2156.000000	0.845354
2155.000000	0.845307
2154.000000	0.845247
2153.000000	0.845185
2152.000000	0.845132
2151.000000	0.845097
2150.000000	0.845078
2149.000000	0.845064
2148.000000	0.845043
2147.000000	0.845010
2146.000000	0.844968
2145.000000	0.844926
2144.000000	0.844894
2143.000000	0.844878
2142.000000	0.844874
2141.000000	0.844867
2140.000000	0.844842
2139.000000	0.844801
2138.000000	0.844753
2137.000000	0.844711
2136.000000	0.844677
2135.000000	0.844647
2134.000000	0.844612
2133.000000	0.844569
2132.000000	0.844521
2131.000000	0.844476
2130.000000	0.844442
2129.000000	0.844415
2128.000000	0.844387
2127.000000	0.844354
2126.000000	0.844316
2125.000000	0.844277
2124.000000	0.844236
2123.000000	0.844190
2122.000000	0.844141
2121.000000	0.844096
2120.000000	0.844063
2119.000000	0.844041
2118.000000	0.844028
2117.000000	0.844017
2116.000000	0.844000
2115.000000	0.843973
2114.000000	0.843935
2113.000000	0.843889
2112.000000	0.843841
2111.000000	0.843797
2110.000000	0.843760
2109.000000	0.843725
2108.000000	0.843682
2107.000000	0.843630
2106.000000	0.843580
2105.000000	0.843542
2104.000000	0.843513
2103.000000	0.843480
2102.000000	0.843437
2101.000000	0.843393
2100.000000	0.843358
2099.000000	0.843330
2098.000000	0.843298
2097.000000	0.843263
2096.000000	0.843232
2095.000000	0.843208
2094.000000	0.843185
2093.000000	0.843155
2092.000000	0.843119
2091.000000	0.843081
2090.000000	0.843040
2089.000000	0.842994
2088.000000	0.842946
2087.000000	0.842906
2086.000000	0.842879
2085.000000	0.842860
2084.000000	0.842838
2083.000000	0.842807
2082.000000	0.842768
2081.000000	0.842724
2080.000000	0.842679
2079.000000	0.842635
2078.000000	0.842593
2077.000000	0.842551
2076.000000	0.842508
2075.000000	0.842461
2074.000000	0.842414
2073.000000	0.842368
2072.000000	0.842323
2071.000000	0.842277
2070.000000	0.842230
2069.000000	0.842187
2068.000000	0.842145
2067.000000	0.842103
2066.000000	0.842063
2065.000000	0.842027
2064.000000	0.841994
2063.000000	0.841966
2062.000000	0.841939
2061.000000	0.841912
2060.000000	0.841875
2059.000000	0.841826
2058.000000	0.841769
2057.000000	0.841715
2056.000000	0.841673
2055.000000	0.841645
2054.000000	0.841622
2053.000000	0.841596
2052.000000	0.841557
2051.000000	0.841503
2050.000000	0.841439
2049.000000	0.841383
2048.000000	0.841344
2047.000000	0.841317
2046.000000	0.841291
2045.000000	0.841259
2044.000000	0.841225
2043.000000	0.841188
2042.000000	0.841149
2041.000000	0.841103
2040.000000	0.841051
2039.000000	0.840993
2038.000000	0.840939
2037.000000	0.840895
2036.000000	0.840864
2035.000000	0.840834
2034.000000	0.840800
2033.000000	0.840764
2032.000000	0.840735
2031.000000	0.840707
2030.000000	0.840670
2029.000000	0.840620
2028.000000	0.840567
2027.000000	0.840521
2026.000000	0.840481
2025.000000	0.840437
2024.000000	0.840388
2023.000000	0.840339
2022.000000	0.840296
2021.000000	0.840258
2020.000000	0.840224
2019.000000	0.840194
2018.000000	0.840164
2017.000000	0.840128
2016.000000	0.840083
2015.000000	0.840041
2014.000000	0.840013
2013.000000	0.839992
2012.000000	0.839964
2011.000000	0.839919
2010.000000	0.839866
2009.000000	0.839825
2008.000000	0.839804
2007.000000	0.839799
2006.000000	0.839793
2005.000000	0.839776
2004.000000	0.839743
2003.000000	0.839700
2002.000000	0.839655
2001.000000	0.839615
2000.000000	0.839578
1999.000000	0.839541
1998.000000	0.839506
1997.000000	0.839482
1996.000000	0.839466
1995.000000	0.839442
1994.000000	0.839397
1993.000000	0.839336
1992.000000	0.839280
1991.000000	0.839242
1990.000000	0.839220
1989.000000	0.839204
1988.000000	0.839187
1987.000000	0.839170
1986.000000	0.839151
1985.000000	0.839133
1984.000000	0.839120
1983.000000	0.839112
1982.000000	0.839104
1981.000000	0.839085
1980.000000	0.839055
1979.000000	0.839022
1978.000000	0.838990
1977.000000	0.838961
1976.000000	0.838928
1975.000000	0.838891
1974.000000	0.838856
1973.000000	0.838826
1972.000000	0.838802
1971.000000	0.838779
1970.000000	0.838757
1969.000000	0.838736
1968.000000	0.838716
1967.000000	0.838697
1966.000000	0.838680
1965.000000	0.838668
1964.000000	0.838660
1963.000000	0.838649
1962.000000	0.838631
1961.000000	0.838610
1960.000000	0.838590
1959.000000	0.838573
1958.000000	0.838552
1957.000000	0.838523
1956.000000	0.838490
1955.000000	0.838465
1954.000000	0.838456
1953.000000	0.838460
1952.000000	0.838466
1951.000000	0.838468
1950.000000	0.838461
1949.000000	0.838446
1948.000000	0.838423
1947.000000	0.838395
1946.000000	0.838373
1945.000000	0.838365
1944.000000	0.838365
1943.000000	0.838362
1942.000000	0.838353
1941.000000	0.838347
1940.000000	0.838357
1939.000000	0.838380
1938.000000	0.838397
1937.000000	0.838393
1936.000000	0.838368
1935.000000	0.838341
1934.000000	0.838329
1933.000000	0.838330
1932.000000	0.838334
1931.000000	0.838330
1930.000000	0.838319
1929.000000	0.838306
1928.000000	0.838297
1927.000000	0.838289
1926.000000	0.838279
1925.000000	0.838263
1924.000000	0.838244
1923.000000	0.838232
1922.000000	0.838231
1921.000000	0.838237
1920.000000	0.838237
1919.000000	0.838226
1918.000000	0.838213
1917.000000	0.838219
1916.000000	0.838249
1915.000000	0.838293
1914.000000	0.838334
1913.000000	0.838361
1912.000000	0.838373
1911.000000	0.838371
1910.000000	0.838359
1909.000000	0.838339
1908.000000	0.838318
1907.000000	0.838301
1906.000000	0.838290
1905.000000	0.838287
1904.000000	0.838291
1903.000000	0.838305
1902.000000	0.838323
1901.000000	0.838337
1900.000000	0.838338
1899.000000	0.838327
1898.000000	0.838317
1897.000000	0.838316
1896.000000	0.838324
1895.000000	0.838333
1894.000000	0.838335
1893.000000	0.838327
1892.000000	0.838309
1891.000000	0.838289
1890.000000	0.838284
1889.000000	0.838301
1888.000000	0.838327
1887.000000	0.838345
1886.000000	0.838350
1885.000000	0.838353
1884.000000	0.838364
1883.000000	0.838381
1882.000000	0.838394
1881.000000	0.838404
1880.000000	0.838414
1879.000000	0.838423
1878.000000	0.838424
1877.000000	0.838413
1876.000000	0.838395
1875.000000	0.838383
1874.000000	0.838383
1873.000000	0.838388
1872.000000	0.838383
1871.000000	0.838360
1870.000000	0.838327
1869.000000	0.838302
1868.000000	0.838299
1867.000000	0.838318
1866.000000	0.838350
1865.000000	0.838388
1864.000000	0.838427
1863.000000	0.838463
1862.000000	0.838490
1861.000000	0.838508
1860.000000	0.838515
1859.000000	0.838515
1858.000000	0.838516
1857.000000	0.838523
1856.000000	0.838531
1855.000000	0.838536
1854.000000	0.838538
1853.000000	0.838543
1852.000000	0.838555
1851.000000	0.838569
1850.000000	0.838579
1849.000000	0.838581
1848.000000	0.838569
1847.000000	0.838536
1846.000000	0.838488
1845.000000	0.838445
1844.000000	0.838433
1843.000000	0.838464
1842.000000	0.838524
1841.000000	0.838588
1840.000000	0.838634
1839.000000	0.838657
1838.000000	0.838669
1837.000000	0.838684
1836.000000	0.838707
1835.000000	0.838733
1834.000000	0.838750
1833.000000	0.838755
1832.000000	0.838748
1831.000000	0.838735
1830.000000	0.838733
1829.000000	0.838757
1828.000000	0.838808
1827.000000	0.838862
1826.000000	0.838898
1825.000000	0.838918
1824.000000	0.838939
1823.000000	0.838973
1822.000000	0.839014
1821.000000	0.839052
1820.000000	0.839086
1819.000000	0.839120
1818.000000	0.839156
1817.000000	0.839191
1816.000000	0.839222
1815.000000	0.839244
1814.000000	0.839259
1813.000000	0.839269
1812.000000	0.839280
1811.000000	0.839295
1810.000000	0.839316
1809.000000	0.839340
1808.000000	0.839361
1807.000000	0.839374
1806.000000	0.839384
1805.000000	0.839397
1804.000000	0.839412
1803.000000	0.839424
1802.000000	0.839428
1801.000000	0.839431
1800.000000	0.839447
1799.000000	0.839477
1798.000000	0.839512
1797.000000	0.839538
1796.000000	0.839543
1795.000000	0.839529
1794.000000	0.839507
1793.000000	0.839496
1792.000000	0.839511
1791.000000	0.839554
1790.000000	0.839614
1789.000000	0.839680
1788.000000	0.839742
1787.000000	0.839789
1786.000000	0.839823
1785.000000	0.839850
1784.000000	0.839878
1783.000000	0.839904
1782.000000	0.839925
1781.000000	0.839943
1780.000000	0.839972
1779.000000	0.840017
1778.000000	0.840069
1777.000000	0.840114
1776.000000	0.840134
1775.000000	0.840119
1774.000000	0.840080
1773.000000	0.840048
1772.000000	0.840062
1771.000000	0.840130
1770.000000	0.840223
1769.000000	0.840304
1768.000000	0.840364
1767.000000	0.840421
1766.000000	0.840494
1765.000000	0.840573
1764.000000	0.840631
1763.000000	0.840653
1762.000000	0.840656
1761.000000	0.840674
1760.000000	0.840723
1759.000000	0.840789
1758.000000	0.840849
1757.000000	0.840896
1756.000000	0.840943
1755.000000	0.840995
1754.000000	0.841036
1753.000000	0.841047
1752.000000	0.841030
1751.000000	0.841020
1750.000000	0.841050
1749.000000	0.841123
1748.000000	0.841215
1747.000000	0.841301
1746.000000	0.841372
1745.000000	0.841429
1744.000000	0.841473
1743.000000	0.841499
1742.000000	0.841512
1741.000000	0.841527
1740.000000	0.841561
1739.000000	0.841620
1738.000000	0.841680
1737.000000	0.841702
1736.000000	0.841664
1735.000000	0.841596
1734.000000	0.841570
1733.000000	0.841641
1732.000000	0.841795
1731.000000	0.841968
1730.000000	0.842107
1729.000000	0.842210
1728.000000	0.842297
1727.000000	0.842374
1726.000000	0.842436
1725.000000	0.842483
1724.000000	0.842525
1723.000000	0.842571
1722.000000	0.842611
1721.000000	0.842621
1720.000000	0.842581
1719.000000	0.842497
1718.000000	0.842410
1717.000000	0.842377
1716.000000	0.842429
1715.000000	0.842550
1714.000000	0.842694
1713.000000	0.842829
1712.000000	0.842943
1711.000000	0.843035
1710.000000	0.843108
1709.000000	0.843161
1708.000000	0.843190
1707.000000	0.843188
1706.000000	0.843167
1705.000000	0.843150
1704.000000	0.843145
1703.000000	0.843120
1702.000000	0.843043
1701.000000	0.842938
1700.000000	0.842878
1699.000000	0.842902
1698.000000	0.842970
1697.000000	0.843025
1696.000000	0.843073
1695.000000	0.843166
1694.000000	0.843324
1693.000000	0.843501
1692.000000	0.843631
1691.000000	0.843702
1690.000000	0.843743
1689.000000	0.843772
1688.000000	0.843763
1687.000000	0.843677
1686.000000	0.843528
1685.000000	0.843397
1684.000000	0.843382
1683.000000	0.843507
1682.000000	0.843701
1681.000000	0.843868
1680.000000	0.843958
1679.000000	0.843983
1678.000000	0.843973
1677.000000	0.843947
1676.000000	0.843919
1675.000000	0.843917
1674.000000	0.843952
1673.000000	0.844001
1672.000000	0.844022
1671.000000	0.844005
1670.000000	0.843984
1669.000000	0.844001
1668.000000	0.844068
1667.000000	0.844162
1666.000000	0.844243
1665.000000	0.844287
1664.000000	0.844293
1663.000000	0.844288
1662.000000	0.844308
1661.000000	0.844360
1660.000000	0.844421
1659.000000	0.844458
1658.000000	0.844457
1657.000000	0.844406
1656.000000	0.844280
1655.000000	0.844064
1654.000000	0.843819
1653.000000	0.843678
1652.000000	0.843739
1651.000000	0.843963
1650.000000	0.844207
1649.000000	0.844349
1648.000000	0.844373
1647.000000	0.844351
1646.000000	0.844366
1645.000000	0.844445
1644.000000	0.844560
1643.000000	0.844663
1642.000000	0.844730
1641.000000	0.844760
1640.000000	0.844760
1639.000000	0.844723
1638.000000	0.844638
1637.000000	0.844521
1636.000000	0.844420
1635.000000	0.844391
1634.000000	0.844454
1633.000000	0.844570
1632.000000	0.844679
1631.000000	0.844739
1630.000000	0.844747
1629.000000	0.844730
1628.000000	0.844719
1627.000000	0.844721
1626.000000	0.844716
1625.000000	0.844683
1624.000000	0.844626
1623.000000	0.844576
1622.000000	0.844555
1621.000000	0.844552
1620.000000	0.844531
1619.000000	0.844469
1618.000000	0.844389
1617.000000	0.844351
1616.000000	0.844398
1615.000000	0.844516
1614.000000	0.844650
1613.000000	0.844749
1612.000000	0.844799
1611.000000	0.844820
1610.000000	0.844834
1609.000000	0.844852
1608.000000	0.844879
1607.000000	0.844913
1606.000000	0.844942
1605.000000	0.844952
1604.000000	0.844936
1603.000000	0.844910
1602.000000	0.844891
1601.000000	0.844887
1600.000000	0.844892
1599.000000	0.844901
1598.000000	0.844912
1597.000000	0.844925
1596.000000	0.844936
1595.000000	0.844945
1594.000000	0.844954
1593.000000	0.844963
1592.000000	0.844969
1591.000000	0.844972
1590.000000	0.844981
1589.000000	0.845000
1588.000000	0.845019
1587.000000	0.845024
1586.000000	0.845008
1585.000000	0.844985
1584.000000	0.844972
1583.000000	0.844976
1582.000000	0.844993
1581.000000	0.845008
1580.000000	0.844997
1579.000000	0.844935
1578.000000	0.844824
1577.000000	0.844710
1576.000000	0.844663
1575.000000	0.844717
1574.000000	0.844835
1573.000000	0.844941
1572.000000	0.844980
1571.000000	0.844960
1570.000000	0.844934
1569.000000	0.844947
1568.000000	0.845002
1567.000000	0.845064
1566.000000	0.845101
1565.000000	0.845108
1564.000000	0.845090
1563.000000	0.845035
1562.000000	0.844911
1561.000000	0.844710
1560.000000	0.844492
1559.000000	0.844362
1558.000000	0.844387
1557.000000	0.844526
1556.000000	0.844680
1555.000000	0.844784
1554.000000	0.844848
1553.000000	0.844912
1552.000000	0.844992
1551.000000	0.845068
1550.000000	0.845120
1549.000000	0.845144
1548.000000	0.845140
1547.000000	0.845105
1546.000000	0.845049
1545.000000	0.844990
1544.000000	0.844935
1543.000000	0.844861
1542.000000	0.844751
1541.000000	0.844628
1540.000000	0.844556
1539.000000	0.844596
1538.000000	0.844742
1537.000000	0.844922
1536.000000	0.845055
1535.000000	0.845108
1534.000000	0.845112
1533.000000	0.845119
1532.000000	0.845148
1531.000000	0.845177
1530.000000	0.845185
1529.000000	0.845173
1528.000000	0.845155
1527.000000	0.845135
1526.000000	0.845111
1525.000000	0.845078
1524.000000	0.845028
1523.000000	0.844958
1522.000000	0.844887
1521.000000	0.844853
1520.000000	0.844878
1519.000000	0.844936
1518.000000	0.844990
1517.000000	0.845030
1516.000000	0.845074
1515.000000	0.845127
1514.000000	0.845171
1513.000000	0.845186
1512.000000	0.845179
1511.000000	0.845155
1510.000000	0.845094
1509.000000	0.844971
1508.000000	0.844802
1507.000000	0.844661
1506.000000	0.844638
1505.000000	0.844759
1504.000000	0.844964
1503.000000	0.845152
1502.000000	0.845257
1501.000000	0.845281
1500.000000	0.845267
