PE IR       SUBTECH     SPECTRUM    ASCII       PEDS        4.00        
   -1
TE108B2_007.ASC
20/02/27
13:48:37.00
20/02/27
13:48:37.00
Administrator
Sample 007 By Administrator Date Thursday, February 27 2020
1500.000000
#HDR
-1
-1
#GR
cm-1
EGY
1.0
0.0
4000.000000
-1.000000
2501
8
15.395731
10.783851
#DATA
4000.000000	10.783851
3999.000000	10.789372
3998.000000	10.794939
3997.000000	10.800355
3996.000000	10.805602
3995.000000	10.810845
3994.000000	10.816247
3993.000000	10.821822
3992.000000	10.827451
3991.000000	10.832976
3990.000000	10.838303
3989.000000	10.843445
3988.000000	10.848475
3987.000000	10.853464
3986.000000	10.858453
3985.000000	10.863456
3984.000000	10.868421
3983.000000	10.873268
3982.000000	10.878038
3981.000000	10.882964
3980.000000	10.888232
3979.000000	10.893662
3978.000000	10.898777
3977.000000	10.903291
3976.000000	10.907450
3975.000000	10.911822
3974.000000	10.916789
3973.000000	10.922281
3972.000000	10.927921
3971.000000	10.933377
3970.000000	10.938613
3969.000000	10.943863
3968.000000	10.949350
3967.000000	10.955019
3966.000000	10.960559
3965.000000	10.965743
3964.000000	10.970684
3963.000000	10.975762
3962.000000	10.981287
3961.000000	10.987244
3960.000000	10.993328
3959.000000	10.999217
3958.000000	11.004853
3957.000000	11.010430
3956.000000	11.016104
3955.000000	11.021738
3954.000000	11.026994
3953.000000	11.031639
3952.000000	11.035710
3951.000000	11.039478
3950.000000	11.043391
3949.000000	11.047992
3948.000000	11.053604
3947.000000	11.059965
3946.000000	11.066298
3945.000000	11.071963
3944.000000	11.077062
3943.000000	11.082369
3942.000000	11.088648
3941.000000	11.096042
3940.000000	11.103994
3939.000000	11.111654
3938.000000	11.118325
3937.000000	11.123647
3936.000000	11.127571
3935.000000	11.130402
3934.000000	11.132937
3933.000000	11.136377
3932.000000	11.141698
3931.000000	11.148925
3930.000000	11.157009
3929.000000	11.164564
3928.000000	11.170851
3927.000000	11.176180
3926.000000	11.181513
3925.000000	11.187623
3924.000000	11.194455
3923.000000	11.201137
3922.000000	11.206660
3921.000000	11.210702
3920.000000	11.213971
3919.000000	11.217865
3918.000000	11.223730
3917.000000	11.232156
3916.000000	11.242614
3915.000000	11.253712
3914.000000	11.263989
3913.000000	11.272726
3912.000000	11.280044
3911.000000	11.286214
3910.000000	11.290887
3909.000000	11.293038
3908.000000	11.291755
3907.000000	11.287263
3906.000000	11.281288
3905.000000	11.276346
3904.000000	11.274470
3903.000000	11.276476
3902.000000	11.282336
3901.000000	11.291952
3900.000000	11.305264
3899.000000	11.321551
3898.000000	11.338783
3897.000000	11.353870
3896.000000	11.363794
3895.000000	11.367216
3894.000000	11.365684
3893.000000	11.363288
3892.000000	11.364240
3891.000000	11.369753
3890.000000	11.377079
3889.000000	11.382024
3888.000000	11.382974
3887.000000	11.382527
3886.000000	11.385101
3885.000000	11.392804
3884.000000	11.403738
3883.000000	11.414293
3882.000000	11.422889
3881.000000	11.431056
3880.000000	11.440906
3879.000000	11.452129
3878.000000	11.462026
3877.000000	11.468224
3876.000000	11.470520
3875.000000	11.469908
3874.000000	11.466759
3873.000000	11.461105
3872.000000	11.454699
3871.000000	11.451582
3870.000000	11.455505
3869.000000	11.466449
3868.000000	11.480277
3867.000000	11.492192
3866.000000	11.500680
3865.000000	11.507976
3864.000000	11.517109
3863.000000	11.528976
3862.000000	11.542178
3861.000000	11.554363
3860.000000	11.562431
3859.000000	11.561625
3858.000000	11.546648
3857.000000	11.516172
3856.000000	11.477366
3855.000000	11.445092
3854.000000	11.434606
3853.000000	11.452620
3852.000000	11.493515
3851.000000	11.543351
3850.000000	11.588133
3849.000000	11.620085
3848.000000	11.638463
3847.000000	11.646622
3846.000000	11.648793
3845.000000	11.648387
3844.000000	11.647062
3843.000000	11.644163
3842.000000	11.637515
3841.000000	11.626184
3840.000000	11.613194
3839.000000	11.605084
3838.000000	11.607917
3837.000000	11.622797
3836.000000	11.644991
3835.000000	11.667375
3834.000000	11.685305
3833.000000	11.698704
3832.000000	11.710183
3831.000000	11.721593
3830.000000	11.732565
3829.000000	11.741831
3828.000000	11.748936
3827.000000	11.753948
3826.000000	11.755937
3825.000000	11.753084
3824.000000	11.745304
3823.000000	11.736333
3822.000000	11.731881
3821.000000	11.734575
3820.000000	11.741147
3819.000000	11.745684
3818.000000	11.746262
3817.000000	11.747868
3816.000000	11.757950
3815.000000	11.779177
3814.000000	11.806580
3813.000000	11.831301
3812.000000	11.846340
3811.000000	11.849548
3810.000000	11.843466
3809.000000	11.833982
3808.000000	11.827907
3807.000000	11.828865
3806.000000	11.834151
3805.000000	11.836744
3804.000000	11.832276
3803.000000	11.824265
3802.000000	11.821758
3801.000000	11.831309
3800.000000	11.851378
3799.000000	11.874468
3798.000000	11.893899
3797.000000	11.908274
3796.000000	11.920099
3795.000000	11.931675
3794.000000	11.942959
3793.000000	11.952637
3792.000000	11.960030
3791.000000	11.965520
3790.000000	11.969740
3789.000000	11.973022
3788.000000	11.975661
3787.000000	11.978274
3786.000000	11.981578
3785.000000	11.985732
3784.000000	11.990010
3783.000000	11.993311
3782.000000	11.995264
3781.000000	11.996943
3780.000000	12.000292
3779.000000	12.006587
3778.000000	12.015413
3777.000000	12.025055
3776.000000	12.033612
3775.000000	12.039556
3774.000000	12.041828
3773.000000	12.040340
3772.000000	12.036766
3771.000000	12.034218
3770.000000	12.035333
3769.000000	12.040475
3768.000000	12.048008
3767.000000	12.056195
3766.000000	12.064416
3765.000000	12.072539
3764.000000	12.079701
3763.000000	12.084385
3762.000000	12.085898
3761.000000	12.085573
3760.000000	12.086160
3759.000000	12.089575
3758.000000	12.094724
3757.000000	12.097309
3756.000000	12.092144
3755.000000	12.076554
3754.000000	12.052786
3753.000000	12.027957
3752.000000	12.011209
3751.000000	12.009031
3750.000000	12.020564
3749.000000	12.036601
3748.000000	12.045101
3747.000000	12.040755
3746.000000	12.030738
3745.000000	12.030067
3744.000000	12.049470
3743.000000	12.086276
3742.000000	12.126404
3741.000000	12.154856
3740.000000	12.164841
3739.000000	12.159603
3738.000000	12.147929
3737.000000	12.138301
3736.000000	12.135445
3735.000000	12.139962
3734.000000	12.150346
3733.000000	12.165197
3732.000000	12.183501
3731.000000	12.203202
3730.000000	12.220655
3729.000000	12.232596
3728.000000	12.238672
3727.000000	12.241503
3726.000000	12.244209
3725.000000	12.248248
3724.000000	12.253533
3723.000000	12.259723
3722.000000	12.266770
3721.000000	12.274581
3720.000000	12.282798
3719.000000	12.290833
3718.000000	12.297471
3717.000000	12.300403
3716.000000	12.297006
3715.000000	12.286627
3714.000000	12.272315
3713.000000	12.259743
3712.000000	12.253819
3711.000000	12.255972
3710.000000	12.264393
3709.000000	12.276303
3708.000000	12.289537
3707.000000	12.302259
3706.000000	12.312273
3705.000000	12.317702
3704.000000	12.318624
3703.000000	12.317590
3702.000000	12.317985
3701.000000	12.321615
3700.000000	12.327777
3699.000000	12.334373
3698.000000	12.339573
3697.000000	12.342505
3696.000000	12.342784
3695.000000	12.339821
3694.000000	12.332524
3693.000000	12.319761
3692.000000	12.301768
3691.000000	12.282023
3690.000000	12.267588
3689.000000	12.265969
3688.000000	12.280043
3687.000000	12.305258
3686.000000	12.332197
3685.000000	12.352490
3684.000000	12.362936
3683.000000	12.365137
3682.000000	12.361970
3681.000000	12.354280
3680.000000	12.340351
3679.000000	12.318723
3678.000000	12.292304
3677.000000	12.269388
3676.000000	12.258662
3675.000000	12.261790
3674.000000	12.271259
3673.000000	12.277063
3672.000000	12.276056
3671.000000	12.274246
3670.000000	12.280013
3669.000000	12.295977
3668.000000	12.317332
3667.000000	12.336757
3666.000000	12.349759
3665.000000	12.356065
3664.000000	12.357766
3663.000000	12.356969
3662.000000	12.354500
3661.000000	12.349682
3660.000000	12.341287
3659.000000	12.329443
3658.000000	12.316995
3657.000000	12.308377
3656.000000	12.305958
3655.000000	12.306947
3654.000000	12.304373
3653.000000	12.292252
3652.000000	12.270936
3651.000000	12.247842
3650.000000	12.232849
3649.000000	12.232248
3648.000000	12.245631
3647.000000	12.267210
3646.000000	12.289577
3645.000000	12.307271
3644.000000	12.318300
3643.000000	12.323602
3642.000000	12.325371
3641.000000	12.325515
3640.000000	12.324980
3639.000000	12.323797
3638.000000	12.321523
3637.000000	12.317894
3636.000000	12.313204
3635.000000	12.307620
3634.000000	12.299758
3633.000000	12.286656
3632.000000	12.266668
3631.000000	12.243259
3630.000000	12.225173
3629.000000	12.221080
3628.000000	12.233072
3627.000000	12.254906
3626.000000	12.276523
3625.000000	12.290119
3624.000000	12.292978
3623.000000	12.286484
3622.000000	12.274280
3621.000000	12.261171
3620.000000	12.251984
3619.000000	12.249456
3618.000000	12.252646
3617.000000	12.257649
3616.000000	12.260482
3615.000000	12.259553
3614.000000	12.255786
3613.000000	12.250835
3612.000000	12.245657
3611.000000	12.240785
3610.000000	12.237386
3609.000000	12.237255
3608.000000	12.241407
3607.000000	12.248724
3606.000000	12.256265
3605.000000	12.260954
3604.000000	12.261199
3603.000000	12.257336
3602.000000	12.251096
3601.000000	12.244647
3600.000000	12.239597
3599.000000	12.236311
3598.000000	12.234099
3597.000000	12.232181
3596.000000	12.230531
3595.000000	12.229663
3594.000000	12.229541
3593.000000	12.228826
3592.000000	12.225392
3591.000000	12.217990
3590.000000	12.207741
3589.000000	12.198115
3588.000000	12.193019
3587.000000	12.194338
3586.000000	12.200729
3585.000000	12.208709
3584.000000	12.214923
3583.000000	12.217831
3582.000000	12.217796
3581.000000	12.216106
3580.000000	12.213967
3579.000000	12.212030
3578.000000	12.210398
3577.000000	12.208920
3576.000000	12.207526
3575.000000	12.206337
3574.000000	12.205288
3573.000000	12.203526
3572.000000	12.199364
3571.000000	12.191322
3570.000000	12.179740
3569.000000	12.167440
3568.000000	12.158491
3567.000000	12.155671
3566.000000	12.158749
3565.000000	12.164903
3564.000000	12.170802
3563.000000	12.174510
3562.000000	12.175926
3561.000000	12.175955
3560.000000	12.175470
3559.000000	12.174820
3558.000000	12.173883
3557.000000	12.172292
3556.000000	12.169676
3555.000000	12.166000
3554.000000	12.161830
3553.000000	12.158169
3552.000000	12.155705
3551.000000	12.154109
3550.000000	12.152149
3549.000000	12.148726
3548.000000	12.143863
3547.000000	12.138757
3546.000000	12.134901
3545.000000	12.133127
3544.000000	12.133218
3543.000000	12.134157
3542.000000	12.134672
3541.000000	12.133804
3540.000000	12.131299
3539.000000	12.127648
3538.000000	12.123743
3537.000000	12.120352
3536.000000	12.117731
3535.000000	12.115551
3534.000000	12.113139
3533.000000	12.109831
3532.000000	12.105270
3531.000000	12.099554
3530.000000	12.093190
3529.000000	12.086879
3528.000000	12.081177
3527.000000	12.076222
3526.000000	12.071748
3525.000000	12.067376
3524.000000	12.062911
3523.000000	12.058391
3522.000000	12.053905
3521.000000	12.049445
3520.000000	12.044947
3519.000000	12.040391
3518.000000	12.035814
3517.000000	12.031173
3516.000000	12.026251
3515.000000	12.020742
3514.000000	12.014473
3513.000000	12.007574
3512.000000	12.000422
3511.000000	11.993434
3510.000000	11.986849
3509.000000	11.980638
3508.000000	11.974547
3507.000000	11.968284
3506.000000	11.961725
3505.000000	11.954997
3504.000000	11.948323
3503.000000	11.941806
3502.000000	11.935374
3501.000000	11.928901
3500.000000	11.922285
3499.000000	11.915405
3498.000000	11.908107
3497.000000	11.900349
3496.000000	11.892353
3495.000000	11.884517
3494.000000	11.877133
3493.000000	11.870173
3492.000000	11.863352
3491.000000	11.856403
3490.000000	11.849300
3489.000000	11.842228
3488.000000	11.835375
3487.000000	11.828775
3486.000000	11.822351
3485.000000	11.816029
3484.000000	11.809781
3483.000000	11.803620
3482.000000	11.797687
3481.000000	11.792295
3480.000000	11.787705
3479.000000	11.783758
3478.000000	11.779867
3477.000000	11.775533
3476.000000	11.770872
3475.000000	11.766528
3474.000000	11.763047
3473.000000	11.760403
3472.000000	11.758111
3471.000000	11.755667
3470.000000	11.752861
3469.000000	11.749817
3468.000000	11.746893
3467.000000	11.744529
3466.000000	11.743010
3465.000000	11.742227
3464.000000	11.741674
3463.000000	11.740805
3462.000000	11.739469
3461.000000	11.737982
3460.000000	11.736739
3459.000000	11.735805
3458.000000	11.734936
3457.000000	11.733946
3456.000000	11.732885
3455.000000	11.731802
3454.000000	11.730490
3453.000000	11.728614
3452.000000	11.726100
3451.000000	11.723271
3450.000000	11.720570
3449.000000	11.718227
3448.000000	11.716250
3447.000000	11.714649
3446.000000	11.713583
3445.000000	11.713251
3444.000000	11.713669
3443.000000	11.714625
3442.000000	11.715869
3441.000000	11.717363
3440.000000	11.719320
3439.000000	11.722008
3438.000000	11.725561
3437.000000	11.729969
3436.000000	11.735201
3435.000000	11.741243
3434.000000	11.748033
3433.000000	11.755398
3432.000000	11.763101
3431.000000	11.770908
3430.000000	11.778638
3429.000000	11.786163
3428.000000	11.793386
3427.000000	11.800223
3426.000000	11.806598
3425.000000	11.812499
3424.000000	11.818020
3423.000000	11.823351
3422.000000	11.828711
3421.000000	11.834256
3420.000000	11.839981
3419.000000	11.845681
3418.000000	11.851026
3417.000000	11.855767
3416.000000	11.859905
3415.000000	11.863657
3414.000000	11.867280
3413.000000	11.870914
3412.000000	11.874554
3411.000000	11.878085
3410.000000	11.881346
3409.000000	11.884203
3408.000000	11.886608
3407.000000	11.888626
3406.000000	11.890414
3405.000000	11.892212
3404.000000	11.894288
3403.000000	11.896836
3402.000000	11.899867
3401.000000	11.903179
3400.000000	11.906443
3399.000000	11.909400
3398.000000	11.912101
3397.000000	11.915002
3396.000000	11.918689
3395.000000	11.923358
3394.000000	11.928559
3393.000000	11.933553
3392.000000	11.937942
3391.000000	11.941906
3390.000000	11.945849
3389.000000	11.949959
3388.000000	11.954139
3387.000000	11.958246
3386.000000	11.962275
3385.000000	11.966298
3384.000000	11.970305
3383.000000	11.974106
3382.000000	11.977390
3381.000000	11.979971
3380.000000	11.982024
3379.000000	11.984034
3378.000000	11.986422
3377.000000	11.989185
3376.000000	11.991936
3375.000000	11.994327
3374.000000	11.996404
3373.000000	11.998540
3372.000000	12.001031
3371.000000	12.003790
3370.000000	12.006453
3369.000000	12.008788
3368.000000	12.010970
3367.000000	12.013406
3366.000000	12.016293
3365.000000	12.019426
3364.000000	12.022452
3363.000000	12.025231
3362.000000	12.027915
3361.000000	12.030714
3360.000000	12.033687
3359.000000	12.036715
3358.000000	12.039612
3357.000000	12.042229
3356.000000	12.044528
3355.000000	12.046603
3354.000000	12.048655
3353.000000	12.050885
3352.000000	12.053391
3351.000000	12.056128
3350.000000	12.058940
3349.000000	12.061633
3348.000000	12.064063
3347.000000	12.066217
3346.000000	12.068258
3345.000000	12.070486
3344.000000	12.073154
3343.000000	12.076241
3342.000000	12.079403
3341.000000	12.082212
3340.000000	12.084464
3339.000000	12.086304
3338.000000	12.088093
3337.000000	12.090215
3336.000000	12.092900
3335.000000	12.096075
3334.000000	12.099339
3333.000000	12.102187
3332.000000	12.104374
3331.000000	12.106034
3330.000000	12.107469
3329.000000	12.108910
3328.000000	12.110488
3327.000000	12.112310
3326.000000	12.114427
3325.000000	12.116767
3324.000000	12.119191
3323.000000	12.121587
3322.000000	12.123852
3321.000000	12.125851
3320.000000	12.127496
3319.000000	12.128874
3318.000000	12.130209
3317.000000	12.131701
3316.000000	12.133443
3315.000000	12.135421
3314.000000	12.137482
3313.000000	12.139339
3312.000000	12.140724
3311.000000	12.141630
3310.000000	12.142374
3309.000000	12.143420
3308.000000	12.145144
3307.000000	12.147672
3306.000000	12.150786
3305.000000	12.153986
3304.000000	12.156802
3303.000000	12.159114
3302.000000	12.161150
3301.000000	12.163150
3300.000000	12.165141
3299.000000	12.167052
3298.000000	12.168926
3297.000000	12.170884
3296.000000	12.172925
3295.000000	12.174891
3294.000000	12.176642
3293.000000	12.178210
3292.000000	12.179753
3291.000000	12.181400
3290.000000	12.183165
3289.000000	12.185016
3288.000000	12.186970
3287.000000	12.189099
3286.000000	12.191433
3285.000000	12.193897
3284.000000	12.196372
3283.000000	12.198778
3282.000000	12.201096
3281.000000	12.203324
3280.000000	12.205453
3279.000000	12.207450
3278.000000	12.209240
3277.000000	12.210785
3276.000000	12.212223
3275.000000	12.213878
3274.000000	12.215992
3273.000000	12.218473
3272.000000	12.221006
3271.000000	12.223428
3270.000000	12.225895
3269.000000	12.228653
3268.000000	12.231741
3267.000000	12.234947
3266.000000	12.238002
3265.000000	12.240765
3264.000000	12.243294
3263.000000	12.245756
3262.000000	12.248241
3261.000000	12.250653
3260.000000	12.252888
3259.000000	12.255092
3258.000000	12.257622
3257.000000	12.260659
3256.000000	12.263937
3255.000000	12.266965
3254.000000	12.269465
3253.000000	12.271568
3252.000000	12.273634
3251.000000	12.275982
3250.000000	12.278726
3249.000000	12.281757
3248.000000	12.284856
3247.000000	12.287902
3246.000000	12.290995
3245.000000	12.294346
3244.000000	12.298029
3243.000000	12.301850
3242.000000	12.305488
3241.000000	12.308772
3240.000000	12.311857
3239.000000	12.315095
3238.000000	12.318689
3237.000000	12.322440
3236.000000	12.325917
3235.000000	12.328883
3234.000000	12.331511
3233.000000	12.334142
3232.000000	12.336927
3231.000000	12.339763
3230.000000	12.342516
3229.000000	12.345206
3228.000000	12.347976
3227.000000	12.350971
3226.000000	12.354242
3225.000000	12.357713
3224.000000	12.361212
3223.000000	12.364563
3222.000000	12.367689
3221.000000	12.370626
3220.000000	12.373465
3219.000000	12.376273
3218.000000	12.379060
3217.000000	12.381816
3216.000000	12.384600
3215.000000	12.387584
3214.000000	12.390903
3213.000000	12.394448
3212.000000	12.397876
3211.000000	12.400954
3210.000000	12.403859
3209.000000	12.407067
3208.000000	12.410899
3207.000000	12.415222
3206.000000	12.419601
3205.000000	12.423689
3204.000000	12.427481
3203.000000	12.431223
3202.000000	12.435151
3201.000000	12.439314
3200.000000	12.443625
3199.000000	12.448030
3198.000000	12.452586
3197.000000	12.457385
3196.000000	12.462429
3195.000000	12.467611
3194.000000	12.472808
3193.000000	12.477986
3192.000000	12.483201
3191.000000	12.488497
3190.000000	12.493810
3189.000000	12.498997
3188.000000	12.503962
3187.000000	12.508699
3186.000000	12.513224
3185.000000	12.517533
3184.000000	12.521698
3183.000000	12.525919
3182.000000	12.530349
3181.000000	12.534934
3180.000000	12.539527
3179.000000	12.544175
3178.000000	12.549109
3177.000000	12.554429
3176.000000	12.559918
3175.000000	12.565257
3174.000000	12.570310
3173.000000	12.575126
3172.000000	12.579764
3171.000000	12.584259
3170.000000	12.588721
3169.000000	12.593345
3168.000000	12.598297
3167.000000	12.603598
3166.000000	12.609097
3165.000000	12.614546
3164.000000	12.619802
3163.000000	12.624982
3162.000000	12.630352
3161.000000	12.635977
3160.000000	12.641602
3159.000000	12.646941
3158.000000	12.651979
3157.000000	12.656872
3156.000000	12.661662
3155.000000	12.666300
3154.000000	12.670914
3153.000000	12.675827
3152.000000	12.681204
3151.000000	12.686816
3150.000000	12.692287
3149.000000	12.697477
3148.000000	12.702540
3147.000000	12.707642
3146.000000	12.712743
3145.000000	12.717684
3144.000000	12.722397
3143.000000	12.726973
3142.000000	12.731569
3141.000000	12.736321
3140.000000	12.741328
3139.000000	12.746605
3138.000000	12.751982
3137.000000	12.757109
3136.000000	12.761708
3135.000000	12.765829
3134.000000	12.769781
3133.000000	12.773790
3132.000000	12.777820
3131.000000	12.781747
3130.000000	12.785572
3129.000000	12.789397
3128.000000	12.793306
3127.000000	12.797340
3126.000000	12.801520
3125.000000	12.805776
3124.000000	12.809923
3123.000000	12.813817
3122.000000	12.817491
3121.000000	12.821039
3120.000000	12.824460
3119.000000	12.827751
3118.000000	12.831087
3117.000000	12.834717
3116.000000	12.838630
3115.000000	12.842477
3114.000000	12.845896
3113.000000	12.848823
3112.000000	12.851492
3111.000000	12.854236
3110.000000	12.857376
3109.000000	12.861138
3108.000000	12.865532
3107.000000	12.870288
3106.000000	12.874975
3105.000000	12.879225
3104.000000	12.882883
3103.000000	12.886069
3102.000000	12.889176
3101.000000	12.892707
3100.000000	12.896945
3099.000000	12.901727
3098.000000	12.906565
3097.000000	12.911050
3096.000000	12.915152
3095.000000	12.919164
3094.000000	12.923406
3093.000000	12.927985
3092.000000	12.932786
3091.000000	12.937620
3090.000000	12.942330
3089.000000	12.946780
3088.000000	12.950846
3087.000000	12.954504
3086.000000	12.957909
3085.000000	12.961287
3084.000000	12.964727
3083.000000	12.968137
3082.000000	12.971428
3081.000000	12.974655
3080.000000	12.977901
3079.000000	12.981081
3078.000000	12.983997
3077.000000	12.986572
3076.000000	12.988941
3075.000000	12.991225
3074.000000	12.993308
3073.000000	12.994914
3072.000000	12.995915
3071.000000	12.996497
3070.000000	12.997012
3069.000000	12.997761
3068.000000	12.998912
3067.000000	13.000580
3066.000000	13.002859
3065.000000	13.005779
3064.000000	13.009254
3063.000000	13.013114
3062.000000	13.017186
3061.000000	13.021365
3060.000000	13.025622
3059.000000	13.029969
3058.000000	13.034426
3057.000000	13.039035
3056.000000	13.043871
3055.000000	13.048941
3054.000000	13.054081
3053.000000	13.059027
3052.000000	13.063653
3051.000000	13.068078
3050.000000	13.072464
3049.000000	13.076786
3048.000000	13.080896
3047.000000	13.084763
3046.000000	13.088491
3045.000000	13.092079
3044.000000	13.095299
3043.000000	13.097907
3042.000000	13.099909
3041.000000	13.101543
3040.000000	13.103055
3039.000000	13.104542
3038.000000	13.105960
3037.000000	13.107204
3036.000000	13.108199
3035.000000	13.108918
3034.000000	13.109326
3033.000000	13.109284
3032.000000	13.108549
3031.000000	13.106903
3030.000000	13.104215
3029.000000	13.100381
3028.000000	13.095239
3027.000000	13.088642
3026.000000	13.080608
3025.000000	13.071448
3024.000000	13.061825
3023.000000	13.052709
3022.000000	13.045155
3021.000000	13.039989
3020.000000	13.037682
3019.000000	13.038587
3018.000000	13.043176
3017.000000	13.051917
3016.000000	13.064831
3015.000000	13.081276
3014.000000	13.100203
3013.000000	13.120579
3012.000000	13.141512
3011.000000	13.162092
3010.000000	13.181345
3009.000000	13.198502
3008.000000	13.213302
3007.000000	13.225941
3006.000000	13.236721
3005.000000	13.245839
3004.000000	13.253498
3003.000000	13.260031
3002.000000	13.265733
3001.000000	13.270620
3000.000000	13.274561
2999.000000	13.277677
2998.000000	13.280473
2997.000000	13.283433
2996.000000	13.286535
2995.000000	13.289285
2994.000000	13.291228
2993.000000	13.292351
2992.000000	13.292990
2991.000000	13.293446
2990.000000	13.293773
2989.000000	13.293909
2988.000000	13.293840
2987.000000	13.293474
2986.000000	13.292386
2985.000000	13.289919
2984.000000	13.285744
2983.000000	13.280289
2982.000000	13.274426
2981.000000	13.268663
2980.000000	13.262729
2979.000000	13.255941
2978.000000	13.247788
2977.000000	13.238006
2976.000000	13.226266
2975.000000	13.212032
2974.000000	13.194826
2973.000000	13.174542
2972.000000	13.151483
2971.000000	13.126231
2970.000000	13.099581
2969.000000	13.072504
2968.000000	13.045993
2967.000000	13.020868
2966.000000	12.997805
2965.000000	12.977564
2964.000000	12.961082
2963.000000	12.949183
2962.000000	12.942166
2961.000000	12.939688
2960.000000	12.940987
2959.000000	12.945140
2958.000000	12.951220
2957.000000	12.958446
2956.000000	12.966301
2955.000000	12.974425
2954.000000	12.982331
2953.000000	12.989300
2952.000000	12.994624
2951.000000	12.997827
2950.000000	12.998558
2949.000000	12.996365
2948.000000	12.990705
2947.000000	12.981090
2946.000000	12.967093
2945.000000	12.948338
2944.000000	12.924734
2943.000000	12.896760
2942.000000	12.865347
2941.000000	12.831451
2940.000000	12.795860
2939.000000	12.759418
2938.000000	12.723245
2937.000000	12.688548
2936.000000	12.656179
2935.000000	12.626264
2934.000000	12.598149
2933.000000	12.570761
2932.000000	12.543308
2931.000000	12.515886
2930.000000	12.489482
2929.000000	12.465524
2928.000000	12.445593
2927.000000	12.431554
2926.000000	12.425573
2925.000000	12.429638
2924.000000	12.444912
2923.000000	12.471544
2922.000000	12.508893
2921.000000	12.555725
2920.000000	12.610173
2919.000000	12.669838
2918.000000	12.732232
2917.000000	12.795354
2916.000000	12.857838
2915.000000	12.918613
2914.000000	12.976490
2913.000000	13.030215
2912.000000	13.078909
2911.000000	13.122359
2910.000000	13.160862
2909.000000	13.194946
2908.000000	13.225316
2907.000000	13.252849
2906.000000	13.278327
2905.000000	13.302119
2904.000000	13.324305
2903.000000	13.345128
2902.000000	13.365139
2901.000000	13.384821
2900.000000	13.404214
2899.000000	13.423004
2898.000000	13.440916
2897.000000	13.457967
2896.000000	13.474446
2895.000000	13.490700
2894.000000	13.506871
2893.000000	13.522756
2892.000000	13.537977
2891.000000	13.552304
2890.000000	13.565815
2889.000000	13.578712
2888.000000	13.591059
2887.000000	13.602700
2886.000000	13.613321
2885.000000	13.622576
2884.000000	13.630208
2883.000000	13.636114
2882.000000	13.640263
2881.000000	13.642607
2880.000000	13.643124
2879.000000	13.641871
2878.000000	13.638861
2877.000000	13.633892
2876.000000	13.626665
2875.000000	13.617038
2874.000000	13.604991
2873.000000	13.590261
2872.000000	13.572157
2871.000000	13.549813
2870.000000	13.522604
2869.000000	13.490425
2868.000000	13.453870
2867.000000	13.414350
2866.000000	13.374000
2865.000000	13.335334
2864.000000	13.300940
2863.000000	13.273267
2862.000000	13.254354
2861.000000	13.245380
2860.000000	13.246389
2859.000000	13.256357
2858.000000	13.273485
2857.000000	13.295614
2856.000000	13.320805
2855.000000	13.347911
2854.000000	13.376705
2853.000000	13.407547
2852.000000	13.441019
2851.000000	13.477756
2850.000000	13.518182
2849.000000	13.562008
2848.000000	13.607996
2847.000000	13.654298
2846.000000	13.699112
2845.000000	13.741092
2844.000000	13.779438
2843.000000	13.813854
2842.000000	13.844427
2841.000000	13.871413
2840.000000	13.895140
2839.000000	13.916084
2838.000000	13.934883
2837.000000	13.952089
2836.000000	13.967940
2835.000000	13.982475
2834.000000	13.995821
2833.000000	14.008275
2832.000000	14.020117
2831.000000	14.031430
2830.000000	14.042126
2829.000000	14.052129
2828.000000	14.061540
2827.000000	14.070611
2826.000000	14.079526
2825.000000	14.088228
2824.000000	14.096529
2823.000000	14.104352
2822.000000	14.111787
2821.000000	14.118943
2820.000000	14.125887
2819.000000	14.132688
2818.000000	14.139369
2817.000000	14.145817
2816.000000	14.151928
2815.000000	14.157815
2814.000000	14.163663
2813.000000	14.169310
2812.000000	14.174279
2811.000000	14.178396
2810.000000	14.182182
2809.000000	14.186392
2808.000000	14.191240
2807.000000	14.196274
2806.000000	14.200941
2805.000000	14.205108
2804.000000	14.209068
2803.000000	14.213199
2802.000000	14.217643
2801.000000	14.222211
2800.000000	14.226559
2799.000000	14.230483
2798.000000	14.234044
2797.000000	14.237436
2796.000000	14.240833
2795.000000	14.244387
2794.000000	14.248250
2793.000000	14.252498
2792.000000	14.257087
2791.000000	14.261933
2790.000000	14.267001
2789.000000	14.272291
2788.000000	14.277833
2787.000000	14.283725
2786.000000	14.290056
2785.000000	14.296735
2784.000000	14.303465
2783.000000	14.309956
2782.000000	14.316086
2781.000000	14.321856
2780.000000	14.327326
2779.000000	14.332633
2778.000000	14.337935
2777.000000	14.343258
2776.000000	14.348500
2775.000000	14.353621
2774.000000	14.358684
2773.000000	14.363672
2772.000000	14.368425
2771.000000	14.372871
2770.000000	14.377146
2769.000000	14.381391
2768.000000	14.385580
2767.000000	14.389643
2766.000000	14.393611
2765.000000	14.397492
2764.000000	14.401163
2763.000000	14.404571
2762.000000	14.407931
2761.000000	14.411550
2760.000000	14.415483
2759.000000	14.419502
2758.000000	14.423357
2757.000000	14.426965
2756.000000	14.430376
2755.000000	14.433688
2754.000000	14.436969
2753.000000	14.440197
2752.000000	14.443315
2751.000000	14.446368
2750.000000	14.449465
2749.000000	14.452550
2748.000000	14.455356
2747.000000	14.457742
2746.000000	14.459964
2745.000000	14.462481
2744.000000	14.465514
2743.000000	14.468905
2742.000000	14.472319
2741.000000	14.475468
2740.000000	14.478228
2739.000000	14.480694
2738.000000	14.483122
2737.000000	14.485721
2736.000000	14.488514
2735.000000	14.491428
2734.000000	14.494406
2733.000000	14.497371
2732.000000	14.500165
2731.000000	14.502695
2730.000000	14.505073
2729.000000	14.507517
2728.000000	14.510127
2727.000000	14.512851
2726.000000	14.515630
2725.000000	14.518471
2724.000000	14.521398
2723.000000	14.524379
2722.000000	14.527306
2721.000000	14.530049
2720.000000	14.532571
2719.000000	14.534988
2718.000000	14.537426
2717.000000	14.539847
2716.000000	14.542124
2715.000000	14.544262
2714.000000	14.546358
2713.000000	14.548349
2712.000000	14.550024
2711.000000	14.551389
2710.000000	14.552805
2709.000000	14.554608
2708.000000	14.556745
2707.000000	14.558942
2706.000000	14.561098
2705.000000	14.563341
2704.000000	14.565808
2703.000000	14.568544
2702.000000	14.571527
2701.000000	14.574643
2700.000000	14.577676
2699.000000	14.580493
2698.000000	14.583224
2697.000000	14.586143
2696.000000	14.589386
2695.000000	14.592851
2694.000000	14.596333
2693.000000	14.599697
2692.000000	14.602978
2691.000000	14.606352
2690.000000	14.609937
2689.000000	14.613596
2688.000000	14.617012
2687.000000	14.619992
2686.000000	14.622582
2685.000000	14.624908
2684.000000	14.627096
2683.000000	14.629377
2682.000000	14.632016
2681.000000	14.635003
2680.000000	14.638019
2679.000000	14.640828
2678.000000	14.643484
2677.000000	14.646010
2676.000000	14.648161
2675.000000	14.649793
2674.000000	14.651258
2673.000000	14.653083
2672.000000	14.655314
2671.000000	14.657528
2670.000000	14.659459
2669.000000	14.661308
2668.000000	14.663375
2667.000000	14.665638
2666.000000	14.667841
2665.000000	14.669837
2664.000000	14.671697
2663.000000	14.673523
2662.000000	14.675251
2661.000000	14.676688
2660.000000	14.677788
2659.000000	14.678858
2658.000000	14.680365
2657.000000	14.682457
2656.000000	14.684827
2655.000000	14.687152
2654.000000	14.689519
2653.000000	14.692234
2652.000000	14.695301
2651.000000	14.698323
2650.000000	14.700891
2649.000000	14.702937
2648.000000	14.704699
2647.000000	14.706502
2646.000000	14.708567
2645.000000	14.710904
2644.000000	14.713341
2643.000000	14.715719
2642.000000	14.718030
2641.000000	14.720305
2640.000000	14.722437
2639.000000	14.724246
2638.000000	14.725722
2637.000000	14.727101
2636.000000	14.728690
2635.000000	14.730639
2634.000000	14.732850
2633.000000	14.735030
2632.000000	14.736902
2631.000000	14.738435
2630.000000	14.739839
2629.000000	14.741315
2628.000000	14.742882
2627.000000	14.744486
2626.000000	14.746151
2625.000000	14.747932
2624.000000	14.749768
2623.000000	14.751483
2622.000000	14.752903
2621.000000	14.753976
2620.000000	14.754866
2619.000000	14.755953
2618.000000	14.757563
2617.000000	14.759590
2616.000000	14.761540
2615.000000	14.763047
2614.000000	14.764227
2613.000000	14.765389
2612.000000	14.766570
2611.000000	14.767565
2610.000000	14.768321
2609.000000	14.769100
2608.000000	14.770202
2607.000000	14.771649
2606.000000	14.773126
2605.000000	14.774200
2604.000000	14.774640
2603.000000	14.774604
2602.000000	14.774474
2601.000000	14.774479
2600.000000	14.774566
2599.000000	14.774642
2598.000000	14.774778
2597.000000	14.775092
2596.000000	14.775569
2595.000000	14.776122
2594.000000	14.776714
2593.000000	14.777341
2592.000000	14.778033
2591.000000	14.778979
2590.000000	14.780513
2589.000000	14.782813
2588.000000	14.785742
2587.000000	14.789094
2586.000000	14.792861
2585.000000	14.797071
2584.000000	14.801517
2583.000000	14.805826
2582.000000	14.809747
2581.000000	14.813217
2580.000000	14.816261
2579.000000	14.819008
2578.000000	14.821739
2577.000000	14.824694
2576.000000	14.827860
2575.000000	14.831052
2574.000000	14.834131
2573.000000	14.837021
2572.000000	14.839632
2571.000000	14.841950
2570.000000	14.844124
2569.000000	14.846307
2568.000000	14.848445
2567.000000	14.850364
2566.000000	14.852023
2565.000000	14.853529
2564.000000	14.855004
2563.000000	14.856543
2562.000000	14.858214
2561.000000	14.859919
2560.000000	14.861358
2559.000000	14.862331
2558.000000	14.863020
2557.000000	14.863778
2556.000000	14.864692
2555.000000	14.865555
2554.000000	14.866243
2553.000000	14.866888
2552.000000	14.867710
2551.000000	14.868851
2550.000000	14.870406
2549.000000	14.872364
2548.000000	14.874446
2547.000000	14.876177
2546.000000	14.877258
2545.000000	14.877843
2544.000000	14.878396
2543.000000	14.879312
2542.000000	14.880669
2541.000000	14.882227
2540.000000	14.883628
2539.000000	14.884666
2538.000000	14.885442
2537.000000	14.886246
2536.000000	14.887305
2535.000000	14.888610
2534.000000	14.889951
2533.000000	14.891112
2532.000000	14.892091
2531.000000	14.893154
2530.000000	14.894588
2529.000000	14.896360
2528.000000	14.898110
2527.000000	14.899517
2526.000000	14.900601
2525.000000	14.901635
2524.000000	14.902855
2523.000000	14.904273
2522.000000	14.905686
2521.000000	14.906805
2520.000000	14.907506
2519.000000	14.908016
2518.000000	14.908727
2517.000000	14.909768
2516.000000	14.910897
2515.000000	14.911882
2514.000000	14.912785
2513.000000	14.913755
2512.000000	14.914717
2511.000000	14.915465
2510.000000	14.915961
2509.000000	14.916395
2508.000000	14.916975
2507.000000	14.917773
2506.000000	14.918704
2505.000000	14.919571
2504.000000	14.920221
2503.000000	14.920746
2502.000000	14.921439
2501.000000	14.922501
2500.000000	14.923892
2499.000000	14.925490
2498.000000	14.927193
2497.000000	14.928771
2496.000000	14.929895
2495.000000	14.930502
2494.000000	14.930966
2493.000000	14.931690
2492.000000	14.932682
2491.000000	14.933739
2490.000000	14.934882
2489.000000	14.936278
2488.000000	14.937814
2487.000000	14.939075
2486.000000	14.939826
2485.000000	14.940315
2484.000000	14.941014
2483.000000	14.942170
2482.000000	14.943679
2481.000000	14.945294
2480.000000	14.946874
2479.000000	14.948405
2478.000000	14.949834
2477.000000	14.950963
2476.000000	14.951654
2475.000000	14.952084
2474.000000	14.952625
2473.000000	14.953427
2472.000000	14.954264
2471.000000	14.954844
2470.000000	14.955059
2469.000000	14.954909
2468.000000	14.954443
2467.000000	14.953903
2466.000000	14.953676
2465.000000	14.953896
2464.000000	14.954257
2463.000000	14.954433
2462.000000	14.954523
2461.000000	14.954884
2460.000000	14.955639
2459.000000	14.956603
2458.000000	14.957567
2457.000000	14.958464
2456.000000	14.959299
2455.000000	14.960102
2454.000000	14.960909
2453.000000	14.961680
2452.000000	14.962313
2451.000000	14.962837
2450.000000	14.963460
2449.000000	14.964329
2448.000000	14.965376
2447.000000	14.966533
2446.000000	14.967901
2445.000000	14.969525
2444.000000	14.971148
2443.000000	14.972413
2442.000000	14.973228
2441.000000	14.973792
2440.000000	14.974404
2439.000000	14.975383
2438.000000	14.976975
2437.000000	14.979077
2436.000000	14.981184
2435.000000	14.982828
2434.000000	14.983990
2433.000000	14.984926
2432.000000	14.985753
2431.000000	14.986452
2430.000000	14.987112
2429.000000	14.987907
2428.000000	14.988901
2427.000000	14.990085
2426.000000	14.991484
2425.000000	14.993032
2424.000000	14.994514
2423.000000	14.995910
2422.000000	14.997594
2421.000000	14.999867
2420.000000	15.002415
2419.000000	15.004600
2418.000000	15.006235
2417.000000	15.007709
2416.000000	15.009358
2415.000000	15.011091
2414.000000	15.012671
2413.000000	15.014056
2412.000000	15.015357
2411.000000	15.016730
2410.000000	15.018391
2409.000000	15.020478
2408.000000	15.022799
2407.000000	15.024939
2406.000000	15.026713
2405.000000	15.028359
2404.000000	15.030252
2403.000000	15.032563
2402.000000	15.035237
2401.000000	15.038098
2400.000000	15.040939
2399.000000	15.043692
2398.000000	15.046530
2397.000000	15.049672
2396.000000	15.053013
2395.000000	15.056138
2394.000000	15.058719
2393.000000	15.060776
2392.000000	15.062558
2391.000000	15.064349
2390.000000	15.066405
2389.000000	15.068825
2388.000000	15.071335
2387.000000	15.073323
2386.000000	15.074175
2385.000000	15.073450
2384.000000	15.070655
2383.000000	15.064981
2382.000000	15.055451
2381.000000	15.041405
2380.000000	15.022902
2379.000000	15.000699
2378.000000	14.975823
2377.000000	14.949104
2376.000000	14.921043
2375.000000	14.892062
2374.000000	14.862658
2373.000000	14.833195
2372.000000	14.803692
2371.000000	14.774063
2370.000000	14.744550
2369.000000	14.715775
2368.000000	14.688466
2367.000000	14.663343
2366.000000	14.641223
2365.000000	14.622916
2364.000000	14.608889
2363.000000	14.599228
2362.000000	14.594052
2361.000000	14.593789
2360.000000	14.598915
2359.000000	14.609584
2358.000000	14.625656
2357.000000	14.646975
2356.000000	14.673352
2355.000000	14.704328
2354.000000	14.739105
2353.000000	14.776452
2352.000000	14.813966
2351.000000	14.846981
2350.000000	14.868889
2349.000000	14.873901
2348.000000	14.860568
2347.000000	14.832752
2346.000000	14.796932
2345.000000	14.758532
2344.000000	14.720535
2343.000000	14.684641
2342.000000	14.652637
2341.000000	14.626515
2340.000000	14.608021
2339.000000	14.598398
2338.000000	14.598016
2337.000000	14.605712
2336.000000	14.618795
2335.000000	14.634247
2334.000000	14.650100
2333.000000	14.665690
2332.000000	14.680963
2331.000000	14.695969
2330.000000	14.710857
2329.000000	14.725914
2328.000000	14.741353
2327.000000	14.757147
2326.000000	14.773068
2325.000000	14.788849
2324.000000	14.804346
2323.000000	14.819598
2322.000000	14.834649
2321.000000	14.849284
2320.000000	14.863114
2319.000000	14.875958
2318.000000	14.887977
2317.000000	14.899393
2316.000000	14.910278
2315.000000	14.920676
2314.000000	14.930631
2313.000000	14.939935
2312.000000	14.948138
2311.000000	14.955060
2310.000000	14.961086
2309.000000	14.966743
2308.000000	14.972146
2307.000000	14.977088
2306.000000	14.981476
2305.000000	14.985417
2304.000000	14.988983
2303.000000	14.992165
2302.000000	14.994986
2301.000000	14.997492
2300.000000	14.999726
2299.000000	15.001861
2298.000000	15.004185
2297.000000	15.006748
2296.000000	15.009182
2295.000000	15.011084
2294.000000	15.012454
2293.000000	15.013536
2292.000000	15.014420
2291.000000	15.015070
2290.000000	15.015629
2289.000000	15.016345
2288.000000	15.017167
2287.000000	15.017621
2286.000000	15.017133
2285.000000	15.015429
2284.000000	15.012792
2283.000000	15.010088
2282.000000	15.008320
2281.000000	15.007872
2280.000000	15.008207
2279.000000	15.008479
2278.000000	15.008326
2277.000000	15.007930
2276.000000	15.007529
2275.000000	15.007212
2274.000000	15.007048
2273.000000	15.007040
2272.000000	15.006984
2271.000000	15.006629
2270.000000	15.006011
2269.000000	15.005376
2268.000000	15.004824
2267.000000	15.004282
2266.000000	15.003804
2265.000000	15.003630
2264.000000	15.003849
2263.000000	15.004200
2262.000000	15.004308
2261.000000	15.004026
2260.000000	15.003521
2259.000000	15.003108
2258.000000	15.002966
2257.000000	15.002951
2256.000000	15.002760
2255.000000	15.002328
2254.000000	15.001952
2253.000000	15.001923
2252.000000	15.002187
2251.000000	15.002528
2250.000000	15.002936
2249.000000	15.003573
2248.000000	15.004456
2247.000000	15.005385
2246.000000	15.006148
2245.000000	15.006671
2244.000000	15.007020
2243.000000	15.007375
2242.000000	15.007944
2241.000000	15.008755
2240.000000	15.009636
2239.000000	15.010456
2238.000000	15.011246
2237.000000	15.011975
2236.000000	15.012472
2235.000000	15.012781
2234.000000	15.013388
2233.000000	15.014761
2232.000000	15.016710
2231.000000	15.018477
2230.000000	15.019476
2229.000000	15.019773
2228.000000	15.019899
2227.000000	15.020370
2226.000000	15.021368
2225.000000	15.022705
2224.000000	15.024038
2223.000000	15.025182
2222.000000	15.026172
2221.000000	15.027009
2220.000000	15.027552
2219.000000	15.027766
2218.000000	15.027896
2217.000000	15.028215
2216.000000	15.028736
2215.000000	15.029317
2214.000000	15.029907
2213.000000	15.030514
2212.000000	15.031073
2211.000000	15.031521
2210.000000	15.031882
2209.000000	15.032150
2208.000000	15.032267
2207.000000	15.032382
2206.000000	15.032924
2205.000000	15.034146
2204.000000	15.035730
2203.000000	15.037076
2202.000000	15.037887
2201.000000	15.038296
2200.000000	15.038604
2199.000000	15.039113
2198.000000	15.040045
2197.000000	15.041298
2196.000000	15.042381
2195.000000	15.042888
2194.000000	15.043010
2193.000000	15.043322
2192.000000	15.044104
2191.000000	15.045102
2190.000000	15.045925
2189.000000	15.046419
2188.000000	15.046666
2187.000000	15.046819
2186.000000	15.047021
2185.000000	15.047330
2184.000000	15.047685
2183.000000	15.048008
2182.000000	15.048325
2181.000000	15.048725
2180.000000	15.049265
2179.000000	15.049949
2178.000000	15.050711
2177.000000	15.051391
2176.000000	15.051848
2175.000000	15.052079
2174.000000	15.052047
2173.000000	15.051430
2172.000000	15.049940
2171.000000	15.048067
2170.000000	15.047112
2169.000000	15.048110
2168.000000	15.050810
2167.000000	15.053974
2166.000000	15.056524
2165.000000	15.058193
2164.000000	15.059269
2163.000000	15.060078
2162.000000	15.060744
2161.000000	15.061287
2160.000000	15.061850
2159.000000	15.062753
2158.000000	15.064142
2157.000000	15.065602
2156.000000	15.066477
2155.000000	15.066667
2154.000000	15.066772
2153.000000	15.067272
2152.000000	15.067954
2151.000000	15.068439
2150.000000	15.068878
2149.000000	15.069706
2148.000000	15.070970
2147.000000	15.072342
2146.000000	15.073634
2145.000000	15.074900
2144.000000	15.076138
2143.000000	15.077273
2142.000000	15.078370
2141.000000	15.079514
2140.000000	15.080566
2139.000000	15.081330
2138.000000	15.081932
2137.000000	15.082725
2136.000000	15.083860
2135.000000	15.085163
2134.000000	15.086379
2133.000000	15.087318
2132.000000	15.087896
2131.000000	15.088298
2130.000000	15.088961
2129.000000	15.090128
2128.000000	15.091512
2127.000000	15.092669
2126.000000	15.093620
2125.000000	15.094758
2124.000000	15.096230
2123.000000	15.097723
2122.000000	15.098907
2121.000000	15.099830
2120.000000	15.100812
2119.000000	15.102154
2118.000000	15.103980
2117.000000	15.106175
2116.000000	15.108440
2115.000000	15.110480
2114.000000	15.112181
2113.000000	15.113620
2112.000000	15.114999
2111.000000	15.116595
2110.000000	15.118600
2109.000000	15.120917
2108.000000	15.123258
2107.000000	15.125502
2106.000000	15.127767
2105.000000	15.130096
2104.000000	15.132333
2103.000000	15.134421
2102.000000	15.136545
2101.000000	15.138814
2100.000000	15.141073
2099.000000	15.143163
2098.000000	15.145148
2097.000000	15.147121
2096.000000	15.149071
2095.000000	15.151090
2094.000000	15.153381
2093.000000	15.155879
2092.000000	15.158188
2091.000000	15.160110
2090.000000	15.161920
2089.000000	15.163922
2088.000000	15.166118
2087.000000	15.168528
2086.000000	15.171391
2085.000000	15.174699
2084.000000	15.177940
2083.000000	15.180708
2082.000000	15.183233
2081.000000	15.185888
2080.000000	15.188528
2079.000000	15.190781
2078.000000	15.192713
2077.000000	15.194687
2076.000000	15.196806
2075.000000	15.199014
2074.000000	15.201529
2073.000000	15.204651
2072.000000	15.208203
2071.000000	15.211666
2070.000000	15.214782
2069.000000	15.217653
2068.000000	15.220344
2067.000000	15.222857
2066.000000	15.225417
2065.000000	15.228319
2064.000000	15.231464
2063.000000	15.234436
2062.000000	15.237074
2061.000000	15.239643
2060.000000	15.242420
2059.000000	15.245391
2058.000000	15.248376
2057.000000	15.251235
2056.000000	15.253926
2055.000000	15.256533
2054.000000	15.259184
2053.000000	15.261861
2052.000000	15.264448
2051.000000	15.267063
2050.000000	15.270074
2049.000000	15.273579
2048.000000	15.277124
2047.000000	15.280169
2046.000000	15.282601
2045.000000	15.284594
2044.000000	15.286327
2043.000000	15.288119
2042.000000	15.290454
2041.000000	15.293440
2040.000000	15.296493
2039.000000	15.298958
2038.000000	15.300829
2037.000000	15.302551
2036.000000	15.304418
2035.000000	15.306517
2034.000000	15.308868
2033.000000	15.311102
2032.000000	15.312386
2031.000000	15.312347
2030.000000	15.311933
2029.000000	15.312747
2028.000000	15.315497
2027.000000	15.319543
2026.000000	15.323821
2025.000000	15.327695
2024.000000	15.330952
2023.000000	15.333538
2022.000000	15.335473
2021.000000	15.336773
2020.000000	15.337457
2019.000000	15.337878
2018.000000	15.338843
2017.000000	15.341008
2016.000000	15.344239
2015.000000	15.347875
2014.000000	15.351452
2013.000000	15.354814
2012.000000	15.357761
2011.000000	15.360124
2010.000000	15.362117
2009.000000	15.364122
2008.000000	15.366184
2007.000000	15.368098
2006.000000	15.369876
2005.000000	15.371684
2004.000000	15.373411
2003.000000	15.374782
2002.000000	15.375849
2001.000000	15.376913
2000.000000	15.378036
1999.000000	15.379108
1998.000000	15.380283
1997.000000	15.381722
1996.000000	15.382912
1995.000000	15.382933
1994.000000	15.381701
1993.000000	15.380436
1992.000000	15.380537
1991.000000	15.382318
1990.000000	15.385037
1989.000000	15.387809
1988.000000	15.390134
1987.000000	15.391844
1986.000000	15.392957
1985.000000	15.393622
1984.000000	15.394003
1983.000000	15.394217
1982.000000	15.394414
1981.000000	15.394796
1980.000000	15.395363
1979.000000	15.395731
1978.000000	15.395420
1977.000000	15.394385
1976.000000	15.393157
1975.000000	15.392343
1974.000000	15.392061
1973.000000	15.391917
1972.000000	15.391441
1971.000000	15.390382
1970.000000	15.388679
1969.000000	15.386467
1968.000000	15.384227
1967.000000	15.382625
1966.000000	15.381976
1965.000000	15.381929
1964.000000	15.381591
1963.000000	15.379638
1962.000000	15.374618
1961.000000	15.366292
1960.000000	15.357235
1959.000000	15.352037
1958.000000	15.353566
1957.000000	15.360101
1956.000000	15.367022
1955.000000	15.371084
1954.000000	15.372209
1953.000000	15.371704
1952.000000	15.370363
1951.000000	15.368629
1950.000000	15.367130
1949.000000	15.366158
1948.000000	15.365245
1947.000000	15.363731
1946.000000	15.361239
1945.000000	15.357552
1944.000000	15.352992
1943.000000	15.349120
1942.000000	15.347931
1941.000000	15.349694
1940.000000	15.352406
1939.000000	15.353877
1938.000000	15.353608
1937.000000	15.352247
1936.000000	15.350266
1935.000000	15.347914
1934.000000	15.345662
1933.000000	15.343800
1932.000000	15.342035
1931.000000	15.340081
1930.000000	15.338169
1929.000000	15.336490
1928.000000	15.334618
1927.000000	15.331874
1926.000000	15.327909
1925.000000	15.322906
1924.000000	15.317786
1923.000000	15.313896
1922.000000	15.311336
1921.000000	15.307837
1920.000000	15.301144
1919.000000	15.292851
1918.000000	15.287834
1917.000000	15.288775
1916.000000	15.292898
1915.000000	15.295296
1914.000000	15.293899
1913.000000	15.289769
1912.000000	15.284251
1911.000000	15.278083
1910.000000	15.272442
1909.000000	15.268532
1908.000000	15.266102
1907.000000	15.263819
1906.000000	15.260996
1905.000000	15.257837
1904.000000	15.254385
1903.000000	15.250495
1902.000000	15.246544
1901.000000	15.242978
1900.000000	15.239388
1899.000000	15.235057
1898.000000	15.230144
1897.000000	15.225488
1896.000000	15.221632
1895.000000	15.218708
1894.000000	15.216500
1893.000000	15.213848
1892.000000	15.209144
1891.000000	15.202706
1890.000000	15.197645
1889.000000	15.196765
1888.000000	15.199246
1887.000000	15.201857
1886.000000	15.202721
1885.000000	15.202306
1884.000000	15.201449
1883.000000	15.200347
1882.000000	15.199266
1881.000000	15.198448
1880.000000	15.197317
1879.000000	15.195127
1878.000000	15.192285
1877.000000	15.189814
1876.000000	15.187861
1875.000000	15.185807
1874.000000	15.183067
1873.000000	15.178377
1872.000000	15.169514
1871.000000	15.156162
1870.000000	15.142689
1869.000000	15.135508
1868.000000	15.137123
1867.000000	15.144266
1866.000000	15.151795
1865.000000	15.156570
1864.000000	15.157748
1863.000000	15.155857
1862.000000	15.152548
1861.000000	15.149624
1860.000000	15.147429
1859.000000	15.145080
1858.000000	15.142286
1857.000000	15.139594
1856.000000	15.136990
1855.000000	15.133938
1854.000000	15.130793
1853.000000	15.128336
1852.000000	15.125884
1851.000000	15.121813
1850.000000	15.115917
1849.000000	15.108769
1848.000000	15.098520
1847.000000	15.081780
1846.000000	15.059821
1845.000000	15.041454
1844.000000	15.036443
1843.000000	15.046085
1842.000000	15.061930
1841.000000	15.073642
1840.000000	15.076831
1839.000000	15.073752
1838.000000	15.068641
1837.000000	15.063814
1836.000000	15.059381
1835.000000	15.054508
1834.000000	15.047579
1833.000000	15.036284
1832.000000	15.020138
1831.000000	15.003409
1830.000000	14.992928
1829.000000	14.991007
1828.000000	14.992248
1827.000000	14.989761
1826.000000	14.983293
1825.000000	14.978464
1824.000000	14.978800
1823.000000	14.981819
1822.000000	14.983060
1821.000000	14.980747
1820.000000	14.975562
1819.000000	14.968647
1818.000000	14.961392
1817.000000	14.955214
1816.000000	14.949925
1815.000000	14.943507
1814.000000	14.934555
1813.000000	14.923948
1812.000000	14.913604
1811.000000	14.904815
1810.000000	14.898193
1809.000000	14.893668
1808.000000	14.889886
1807.000000	14.884811
1806.000000	14.877391
1805.000000	14.867640
1804.000000	14.855374
1803.000000	14.840717
1802.000000	14.825833
1801.000000	14.814030
1800.000000	14.806590
1799.000000	14.802037
1798.000000	14.798135
1797.000000	14.792139
1796.000000	14.779577
1795.000000	14.757093
1794.000000	14.728537
1793.000000	14.705132
1792.000000	14.696531
1791.000000	14.702384
1790.000000	14.713602
1789.000000	14.720182
1788.000000	14.717041
1787.000000	14.705262
1786.000000	14.690356
1785.000000	14.678041
1784.000000	14.669636
1783.000000	14.662047
1782.000000	14.652743
1781.000000	14.642868
1780.000000	14.634615
1779.000000	14.627858
1778.000000	14.620425
1777.000000	14.608988
1776.000000	14.588688
1775.000000	14.556418
1774.000000	14.518084
1773.000000	14.488904
1772.000000	14.480712
1771.000000	14.489711
1770.000000	14.501231
1769.000000	14.506104
1768.000000	14.507473
1767.000000	14.511059
1766.000000	14.514338
1765.000000	14.509049
1764.000000	14.492058
1763.000000	14.470165
1762.000000	14.453887
1761.000000	14.447601
1760.000000	14.446057
1759.000000	14.440563
1758.000000	14.428533
1757.000000	14.415451
1756.000000	14.406122
1755.000000	14.396125
1754.000000	14.375929
1753.000000	14.343688
1752.000000	14.310018
1751.000000	14.288028
1750.000000	14.281124
1749.000000	14.282500
1748.000000	14.283807
1747.000000	14.281056
1746.000000	14.273755
1745.000000	14.262434
1744.000000	14.247750
1743.000000	14.229856
1742.000000	14.208746
1741.000000	14.187287
1740.000000	14.172082
1739.000000	14.165881
1738.000000	14.158274
1737.000000	14.131260
1736.000000	14.080548
1735.000000	14.028063
1734.000000	14.005341
1733.000000	14.023159
1732.000000	14.062608
1731.000000	14.096559
1730.000000	14.113577
1729.000000	14.118801
1728.000000	14.119388
1727.000000	14.116874
1726.000000	14.111072
1725.000000	14.103814
1724.000000	14.097034
1723.000000	14.089725
1722.000000	14.076671
1721.000000	14.049524
1720.000000	14.003592
1719.000000	13.948141
1718.000000	13.906215
1717.000000	13.896955
1716.000000	13.917967
1715.000000	13.949720
1714.000000	13.975404
1713.000000	13.990589
1712.000000	13.996220
1711.000000	13.992284
1710.000000	13.980331
1709.000000	13.964170
1708.000000	13.945308
1707.000000	13.924115
1706.000000	13.905792
1705.000000	13.895013
1704.000000	13.882188
1703.000000	13.848432
1702.000000	13.792862
1701.000000	13.743507
1700.000000	13.727567
1699.000000	13.737771
1698.000000	13.743648
1697.000000	13.733730
1696.000000	13.729878
1695.000000	13.755719
1694.000000	13.804637
1693.000000	13.847747
1692.000000	13.865694
1691.000000	13.863034
1690.000000	13.853858
1689.000000	13.841085
1688.000000	13.813031
1687.000000	13.760077
1686.000000	13.694203
1685.000000	13.648108
1684.000000	13.648882
1683.000000	13.691971
1682.000000	13.745945
1681.000000	13.782660
1680.000000	13.796263
1679.000000	13.793352
1678.000000	13.777101
1677.000000	13.749806
1676.000000	13.723024
1675.000000	13.711628
1674.000000	13.716512
1673.000000	13.721869
1672.000000	13.713062
1671.000000	13.692484
1670.000000	13.675277
1669.000000	13.673216
1668.000000	13.685058
1667.000000	13.699242
1666.000000	13.702971
1665.000000	13.691206
1664.000000	13.670642
1663.000000	13.654540
1662.000000	13.651014
1661.000000	13.656351
1660.000000	13.660868
1659.000000	13.658426
1658.000000	13.645264
1657.000000	13.611315
1656.000000	13.543680
1655.000000	13.447790
1654.000000	13.360664
1653.000000	13.329375
1652.000000	13.368636
1651.000000	13.443440
1650.000000	13.498928
1649.000000	13.506447
1648.000000	13.479550
1647.000000	13.451713
1646.000000	13.445924
1645.000000	13.462825
1644.000000	13.487849
1643.000000	13.504944
1642.000000	13.507117
1641.000000	13.497274
1640.000000	13.478998
1639.000000	13.448973
1638.000000	13.403563
1637.000000	13.352366
1636.000000	13.317691
1635.000000	13.315492
1634.000000	13.339451
1633.000000	13.367043
1632.000000	13.379082
1631.000000	13.371215
1630.000000	13.350425
1629.000000	13.325895
1628.000000	13.302720
1627.000000	13.279776
1626.000000	13.252029
1625.000000	13.216879
1624.000000	13.178998
1623.000000	13.146992
1622.000000	13.123828
1621.000000	13.101243
1620.000000	13.065641
1619.000000	13.011701
1618.000000	12.950877
1617.000000	12.904291
1616.000000	12.883979
1615.000000	12.880656
1614.000000	12.872014
1613.000000	12.843288
1612.000000	12.797928
1611.000000	12.749539
1610.000000	12.708629
1609.000000	12.679163
1608.000000	12.662594
1607.000000	12.659228
1606.000000	12.666277
1605.000000	12.678844
1604.000000	12.693696
1603.000000	12.710160
1602.000000	12.727684
1601.000000	12.744897
1600.000000	12.761090
1599.000000	12.776522
1598.000000	12.790925
1597.000000	12.803310
1596.000000	12.813449
1595.000000	12.822090
1594.000000	12.829434
1593.000000	12.834659
1592.000000	12.837231
1591.000000	12.837673
1590.000000	12.836730
1589.000000	12.834546
1588.000000	12.830977
1587.000000	12.826188
1586.000000	12.820681
1585.000000	12.814954
1584.000000	12.809422
1583.000000	12.804767
1582.000000	12.801624
1581.000000	12.798016
1580.000000	12.786630
1579.000000	12.758603
1578.000000	12.715256
1577.000000	12.675360
1576.000000	12.663545
1575.000000	12.686539
1574.000000	12.723564
1573.000000	12.744467
1572.000000	12.736679
1571.000000	12.712299
1570.000000	12.691658
1569.000000	12.684543
1568.000000	12.686282
1567.000000	12.686507
1566.000000	12.678846
1565.000000	12.663019
1564.000000	12.638184
1563.000000	12.596008
1562.000000	12.526625
1561.000000	12.437041
1560.000000	12.359345
1559.000000	12.330044
1558.000000	12.357438
1557.000000	12.414869
1556.000000	12.468596
1555.000000	12.506534
1554.000000	12.536809
1553.000000	12.566924
1552.000000	12.594315
1551.000000	12.614909
1550.000000	12.630522
1549.000000	12.644321
1548.000000	12.654776
1547.000000	12.658242
1546.000000	12.654577
1545.000000	12.646391
1544.000000	12.633792
1543.000000	12.613624
1542.000000	12.586416
1541.000000	12.563999
1540.000000	12.566968
1539.000000	12.608854
1538.000000	12.679629
1537.000000	12.748302
1536.000000	12.787464
1535.000000	12.796081
1534.000000	12.795623
1533.000000	12.805363
1532.000000	12.825965
1531.000000	12.845736
1530.000000	12.855201
1529.000000	12.852665
1528.000000	12.841720
1527.000000	12.828442
1526.000000	12.817331
1525.000000	12.805421
1524.000000	12.783972
1523.000000	12.751524
1522.000000	12.722112
1521.000000	12.713027
1520.000000	12.724675
1519.000000	12.739530
1518.000000	12.742243
1517.000000	12.734054
1516.000000	12.724736
1515.000000	12.717514
1514.000000	12.708298
1513.000000	12.695328
1512.000000	12.680638
1511.000000	12.661010
1510.000000	12.625086
1509.000000	12.565661
1508.000000	12.493660
1507.000000	12.434727
1506.000000	12.407880
1505.000000	12.406313
1504.000000	12.399470
1503.000000	12.354188
1502.000000	12.254043
1501.000000	12.100922
1500.000000	11.904665
