PE IR       SUBTECH     SPECTRUM    ASCII       PEDS        4.00        
   -1
TE108B2_010.ASC
20/02/27
13:55:31.00
20/02/27
13:55:31.00
Administrator
Sample 010 By Administrator Date Thursday, February 27 2020
1500.000000
#HDR
-1
-1
#GR
cm-1
A
1.0
0.0
4000.000000
-1.000000
2501
8
0.846238
0.810727
#DATA
4000.000000	0.818103
3999.000000	0.818075
3998.000000	0.818032
3997.000000	0.817989
3996.000000	0.817964
3995.000000	0.817962
3994.000000	0.817976
3993.000000	0.817992
3992.000000	0.817996
3991.000000	0.817984
3990.000000	0.817958
3989.000000	0.817925
3988.000000	0.817892
3987.000000	0.817863
3986.000000	0.817839
3985.000000	0.817822
3984.000000	0.817809
3983.000000	0.817798
3982.000000	0.817783
3981.000000	0.817759
3980.000000	0.817732
3979.000000	0.817709
3978.000000	0.817697
3977.000000	0.817699
3976.000000	0.817704
3975.000000	0.817702
3974.000000	0.817685
3973.000000	0.817653
3972.000000	0.817617
3971.000000	0.817589
3970.000000	0.817577
3969.000000	0.817577
3968.000000	0.817577
3967.000000	0.817565
3966.000000	0.817539
3965.000000	0.817504
3964.000000	0.817466
3963.000000	0.817428
3962.000000	0.817388
3961.000000	0.817348
3960.000000	0.817311
3959.000000	0.817278
3958.000000	0.817246
3957.000000	0.817214
3956.000000	0.817183
3955.000000	0.817155
3954.000000	0.817129
3953.000000	0.817102
3952.000000	0.817074
3951.000000	0.817053
3950.000000	0.817040
3949.000000	0.817027
3948.000000	0.816997
3947.000000	0.816943
3946.000000	0.816877
3945.000000	0.816820
3944.000000	0.816787
3943.000000	0.816772
3942.000000	0.816759
3941.000000	0.816737
3940.000000	0.816704
3939.000000	0.816667
3938.000000	0.816630
3937.000000	0.816595
3936.000000	0.816557
3935.000000	0.816510
3934.000000	0.816455
3933.000000	0.816399
3932.000000	0.816352
3931.000000	0.816320
3930.000000	0.816298
3929.000000	0.816272
3928.000000	0.816232
3927.000000	0.816176
3926.000000	0.816112
3925.000000	0.816053
3924.000000	0.816004
3923.000000	0.815962
3922.000000	0.815918
3921.000000	0.815864
3920.000000	0.815799
3919.000000	0.815729
3918.000000	0.815662
3917.000000	0.815606
3916.000000	0.815563
3915.000000	0.815533
3914.000000	0.815520
3913.000000	0.815523
3912.000000	0.815535
3911.000000	0.815538
3910.000000	0.815518
3909.000000	0.815472
3908.000000	0.815412
3907.000000	0.815350
3906.000000	0.815295
3905.000000	0.815242
3904.000000	0.815186
3903.000000	0.815128
3902.000000	0.815073
3901.000000	0.815024
3900.000000	0.814976
3899.000000	0.814926
3898.000000	0.814875
3897.000000	0.814833
3896.000000	0.814807
3895.000000	0.814798
3894.000000	0.814798
3893.000000	0.814788
3892.000000	0.814755
3891.000000	0.814698
3890.000000	0.814635
3889.000000	0.814589
3888.000000	0.814566
3887.000000	0.814553
3886.000000	0.814530
3885.000000	0.814489
3884.000000	0.814439
3883.000000	0.814392
3882.000000	0.814349
3881.000000	0.814301
3880.000000	0.814244
3879.000000	0.814185
3878.000000	0.814141
3877.000000	0.814116
3876.000000	0.814103
3875.000000	0.814089
3874.000000	0.814066
3873.000000	0.814033
3872.000000	0.813988
3871.000000	0.813930
3870.000000	0.813862
3869.000000	0.813794
3868.000000	0.813741
3867.000000	0.813704
3866.000000	0.813673
3865.000000	0.813633
3864.000000	0.813581
3863.000000	0.813526
3862.000000	0.813479
3861.000000	0.813442
3860.000000	0.813414
3859.000000	0.813398
3858.000000	0.813407
3857.000000	0.813437
3856.000000	0.813456
3855.000000	0.813418
3854.000000	0.813296
3853.000000	0.813115
3852.000000	0.812944
3851.000000	0.812846
3850.000000	0.812838
3849.000000	0.812889
3848.000000	0.812951
3847.000000	0.812993
3846.000000	0.813010
3845.000000	0.813007
3844.000000	0.812987
3843.000000	0.812953
3842.000000	0.812910
3841.000000	0.812861
3840.000000	0.812804
3839.000000	0.812729
3838.000000	0.812636
3837.000000	0.812549
3836.000000	0.812497
3835.000000	0.812495
3834.000000	0.812526
3833.000000	0.812557
3832.000000	0.812560
3831.000000	0.812534
3830.000000	0.812491
3829.000000	0.812450
3828.000000	0.812417
3827.000000	0.812393
3826.000000	0.812377
3825.000000	0.812367
3824.000000	0.812358
3823.000000	0.812335
3822.000000	0.812284
3821.000000	0.812213
3820.000000	0.812148
3819.000000	0.812114
3818.000000	0.812102
3817.000000	0.812080
3816.000000	0.812022
3815.000000	0.811942
3814.000000	0.811883
3813.000000	0.811877
3812.000000	0.811919
3811.000000	0.811973
3810.000000	0.812007
3809.000000	0.812008
3808.000000	0.811979
3807.000000	0.811932
3806.000000	0.811884
3805.000000	0.811857
3804.000000	0.811853
3803.000000	0.811847
3802.000000	0.811799
3801.000000	0.811701
3800.000000	0.811588
3799.000000	0.811517
3798.000000	0.811514
3797.000000	0.811560
3796.000000	0.811613
3795.000000	0.811642
3794.000000	0.811650
3793.000000	0.811652
3792.000000	0.811658
3791.000000	0.811666
3790.000000	0.811672
3789.000000	0.811672
3788.000000	0.811663
3787.000000	0.811642
3786.000000	0.811608
3785.000000	0.811565
3784.000000	0.811525
3783.000000	0.811500
3782.000000	0.811498
3781.000000	0.811515
3780.000000	0.811536
3779.000000	0.811549
3778.000000	0.811545
3777.000000	0.811526
3776.000000	0.811499
3775.000000	0.811470
3774.000000	0.811443
3773.000000	0.811418
3772.000000	0.811393
3771.000000	0.811364
3770.000000	0.811337
3769.000000	0.811323
3768.000000	0.811327
3767.000000	0.811339
3766.000000	0.811338
3765.000000	0.811311
3764.000000	0.811271
3763.000000	0.811236
3762.000000	0.811216
3761.000000	0.811203
3760.000000	0.811178
3759.000000	0.811136
3758.000000	0.811096
3757.000000	0.811083
3756.000000	0.811112
3755.000000	0.811172
3754.000000	0.811229
3753.000000	0.811243
3752.000000	0.811197
3751.000000	0.811103
3750.000000	0.811003
3749.000000	0.810941
3748.000000	0.810940
3747.000000	0.810975
3746.000000	0.810990
3745.000000	0.810943
3744.000000	0.810844
3743.000000	0.810753
3742.000000	0.810727
3741.000000	0.810773
3740.000000	0.810847
3739.000000	0.810902
3738.000000	0.810919
3737.000000	0.810914
3736.000000	0.810910
3735.000000	0.810914
3734.000000	0.810916
3733.000000	0.810901
3732.000000	0.810871
3731.000000	0.810840
3730.000000	0.810829
3729.000000	0.810845
3728.000000	0.810874
3727.000000	0.810898
3726.000000	0.810913
3725.000000	0.810928
3724.000000	0.810945
3723.000000	0.810963
3722.000000	0.810977
3721.000000	0.810993
3720.000000	0.811019
3719.000000	0.811052
3718.000000	0.811084
3717.000000	0.811112
3716.000000	0.811139
3715.000000	0.811170
3714.000000	0.811203
3713.000000	0.811247
3712.000000	0.811326
3711.000000	0.811473
3710.000000	0.811692
3709.000000	0.811942
3708.000000	0.812149
3707.000000	0.812264
3706.000000	0.812285
3705.000000	0.812253
3704.000000	0.812212
3703.000000	0.812191
3702.000000	0.812201
3701.000000	0.812250
3700.000000	0.812341
3699.000000	0.812465
3698.000000	0.812597
3697.000000	0.812715
3696.000000	0.812807
3695.000000	0.812880
3694.000000	0.812948
3693.000000	0.813015
3692.000000	0.813071
3691.000000	0.813100
3690.000000	0.813093
3689.000000	0.813057
3688.000000	0.813019
3687.000000	0.813022
3686.000000	0.813092
3685.000000	0.813225
3684.000000	0.813383
3683.000000	0.813527
3682.000000	0.813643
3681.000000	0.813749
3680.000000	0.813869
3679.000000	0.814009
3678.000000	0.814151
3677.000000	0.814266
3676.000000	0.814341
3675.000000	0.814393
3674.000000	0.814465
3673.000000	0.814591
3672.000000	0.814765
3671.000000	0.814942
3670.000000	0.815080
3669.000000	0.815172
3668.000000	0.815252
3667.000000	0.815354
3666.000000	0.815495
3665.000000	0.815665
3664.000000	0.815842
3663.000000	0.816010
3662.000000	0.816166
3661.000000	0.816316
3660.000000	0.816467
3659.000000	0.816617
3658.000000	0.816754
3657.000000	0.816865
3656.000000	0.816952
3655.000000	0.817034
3654.000000	0.817135
3653.000000	0.817263
3652.000000	0.817405
3651.000000	0.817531
3650.000000	0.817626
3649.000000	0.817697
3648.000000	0.817768
3647.000000	0.817862
3646.000000	0.817987
3645.000000	0.818135
3644.000000	0.818289
3643.000000	0.818430
3642.000000	0.818545
3641.000000	0.818632
3640.000000	0.818703
3639.000000	0.818775
3638.000000	0.818859
3637.000000	0.818955
3636.000000	0.819052
3635.000000	0.819141
3634.000000	0.819223
3633.000000	0.819307
3632.000000	0.819401
3631.000000	0.819500
3630.000000	0.819584
3629.000000	0.819643
3628.000000	0.819690
3627.000000	0.819749
3626.000000	0.819836
3625.000000	0.819942
3624.000000	0.820049
3623.000000	0.820146
3622.000000	0.820233
3621.000000	0.820319
3620.000000	0.820408
3619.000000	0.820500
3618.000000	0.820589
3617.000000	0.820673
3616.000000	0.820751
3615.000000	0.820826
3614.000000	0.820899
3613.000000	0.820969
3612.000000	0.821033
3611.000000	0.821083
3610.000000	0.821124
3609.000000	0.821169
3608.000000	0.821230
3607.000000	0.821312
3606.000000	0.821406
3605.000000	0.821504
3604.000000	0.821613
3603.000000	0.821754
3602.000000	0.821933
3601.000000	0.822124
3600.000000	0.822283
3599.000000	0.822380
3598.000000	0.822416
3597.000000	0.822419
3596.000000	0.822417
3595.000000	0.822425
3594.000000	0.822444
3593.000000	0.822471
3592.000000	0.822510
3591.000000	0.822569
3590.000000	0.822646
3589.000000	0.822728
3588.000000	0.822796
3587.000000	0.822841
3586.000000	0.822874
3585.000000	0.822916
3584.000000	0.822973
3583.000000	0.823038
3582.000000	0.823098
3581.000000	0.823148
3580.000000	0.823196
3579.000000	0.823251
3578.000000	0.823316
3577.000000	0.823385
3576.000000	0.823450
3575.000000	0.823507
3574.000000	0.823559
3573.000000	0.823612
3572.000000	0.823669
3571.000000	0.823730
3570.000000	0.823790
3569.000000	0.823840
3568.000000	0.823870
3567.000000	0.823881
3566.000000	0.823890
3565.000000	0.823914
3564.000000	0.823965
3563.000000	0.824036
3562.000000	0.824108
3561.000000	0.824165
3560.000000	0.824205
3559.000000	0.824240
3558.000000	0.824286
3557.000000	0.824347
3556.000000	0.824418
3555.000000	0.824483
3554.000000	0.824538
3553.000000	0.824587
3552.000000	0.824643
3551.000000	0.824709
3550.000000	0.824776
3549.000000	0.824832
3548.000000	0.824874
3547.000000	0.824913
3546.000000	0.824965
3545.000000	0.825035
3544.000000	0.825116
3543.000000	0.825197
3542.000000	0.825265
3541.000000	0.825319
3540.000000	0.825367
3539.000000	0.825418
3538.000000	0.825476
3537.000000	0.825541
3536.000000	0.825607
3535.000000	0.825671
3534.000000	0.825733
3533.000000	0.825794
3532.000000	0.825857
3531.000000	0.825924
3530.000000	0.825997
3529.000000	0.826073
3528.000000	0.826146
3527.000000	0.826212
3526.000000	0.826277
3525.000000	0.826349
3524.000000	0.826435
3523.000000	0.826532
3522.000000	0.826633
3521.000000	0.826734
3520.000000	0.826837
3519.000000	0.826946
3518.000000	0.827056
3517.000000	0.827151
3516.000000	0.827219
3515.000000	0.827269
3514.000000	0.827331
3513.000000	0.827427
3512.000000	0.827558
3511.000000	0.827702
3510.000000	0.827839
3509.000000	0.827960
3508.000000	0.828070
3507.000000	0.828179
3506.000000	0.828292
3505.000000	0.828412
3504.000000	0.828531
3503.000000	0.828640
3502.000000	0.828739
3501.000000	0.828834
3500.000000	0.828936
3499.000000	0.829050
3498.000000	0.829173
3497.000000	0.829304
3496.000000	0.829437
3495.000000	0.829567
3494.000000	0.829690
3493.000000	0.829809
3492.000000	0.829932
3491.000000	0.830065
3490.000000	0.830209
3489.000000	0.830356
3488.000000	0.830497
3487.000000	0.830628
3486.000000	0.830753
3485.000000	0.830880
3484.000000	0.831013
3483.000000	0.831148
3482.000000	0.831282
3481.000000	0.831412
3480.000000	0.831543
3479.000000	0.831678
3478.000000	0.831817
3477.000000	0.831958
3476.000000	0.832095
3475.000000	0.832227
3474.000000	0.832350
3473.000000	0.832460
3472.000000	0.832565
3471.000000	0.832681
3470.000000	0.832819
3469.000000	0.832978
3468.000000	0.833138
3467.000000	0.833284
3466.000000	0.833413
3465.000000	0.833538
3464.000000	0.833670
3463.000000	0.833813
3462.000000	0.833962
3461.000000	0.834111
3460.000000	0.834256
3459.000000	0.834397
3458.000000	0.834536
3457.000000	0.834673
3456.000000	0.834806
3455.000000	0.834930
3454.000000	0.835048
3453.000000	0.835163
3452.000000	0.835283
3451.000000	0.835409
3450.000000	0.835540
3449.000000	0.835668
3448.000000	0.835790
3447.000000	0.835902
3446.000000	0.836006
3445.000000	0.836106
3444.000000	0.836208
3443.000000	0.836320
3442.000000	0.836442
3441.000000	0.836572
3440.000000	0.836699
3439.000000	0.836818
3438.000000	0.836931
3437.000000	0.837040
3436.000000	0.837144
3435.000000	0.837243
3434.000000	0.837342
3433.000000	0.837446
3432.000000	0.837557
3431.000000	0.837673
3430.000000	0.837789
3429.000000	0.837899
3428.000000	0.838001
3427.000000	0.838097
3426.000000	0.838197
3425.000000	0.838307
3424.000000	0.838423
3423.000000	0.838528
3422.000000	0.838614
3421.000000	0.838682
3420.000000	0.838748
3419.000000	0.838823
3418.000000	0.838909
3417.000000	0.838998
3416.000000	0.839081
3415.000000	0.839155
3414.000000	0.839224
3413.000000	0.839297
3412.000000	0.839371
3411.000000	0.839443
3410.000000	0.839507
3409.000000	0.839570
3408.000000	0.839641
3407.000000	0.839727
3406.000000	0.839818
3405.000000	0.839902
3404.000000	0.839962
3403.000000	0.839994
3402.000000	0.840007
3401.000000	0.840018
3400.000000	0.840047
3399.000000	0.840105
3398.000000	0.840186
3397.000000	0.840270
3396.000000	0.840334
3395.000000	0.840362
3394.000000	0.840360
3393.000000	0.840355
3392.000000	0.840371
3391.000000	0.840417
3390.000000	0.840483
3389.000000	0.840552
3388.000000	0.840610
3387.000000	0.840650
3386.000000	0.840679
3385.000000	0.840704
3384.000000	0.840736
3383.000000	0.840775
3382.000000	0.840817
3381.000000	0.840855
3380.000000	0.840890
3379.000000	0.840923
3378.000000	0.840953
3377.000000	0.840980
3376.000000	0.841005
3375.000000	0.841036
3374.000000	0.841077
3373.000000	0.841114
3372.000000	0.841137
3371.000000	0.841145
3370.000000	0.841156
3369.000000	0.841181
3368.000000	0.841212
3367.000000	0.841232
3366.000000	0.841237
3365.000000	0.841242
3364.000000	0.841260
3363.000000	0.841289
3362.000000	0.841320
3361.000000	0.841347
3360.000000	0.841377
3359.000000	0.841414
3358.000000	0.841455
3357.000000	0.841491
3356.000000	0.841518
3355.000000	0.841539
3354.000000	0.841556
3353.000000	0.841566
3352.000000	0.841564
3351.000000	0.841558
3350.000000	0.841562
3349.000000	0.841583
3348.000000	0.841617
3347.000000	0.841648
3346.000000	0.841672
3345.000000	0.841695
3344.000000	0.841723
3343.000000	0.841753
3342.000000	0.841778
3341.000000	0.841799
3340.000000	0.841816
3339.000000	0.841829
3338.000000	0.841837
3337.000000	0.841849
3336.000000	0.841873
3335.000000	0.841909
3334.000000	0.841946
3333.000000	0.841974
3332.000000	0.841991
3331.000000	0.842002
3330.000000	0.842009
3329.000000	0.842011
3328.000000	0.842015
3327.000000	0.842031
3326.000000	0.842064
3325.000000	0.842108
3324.000000	0.842150
3323.000000	0.842187
3322.000000	0.842219
3321.000000	0.842250
3320.000000	0.842280
3319.000000	0.842309
3318.000000	0.842340
3317.000000	0.842368
3316.000000	0.842385
3315.000000	0.842388
3314.000000	0.842387
3313.000000	0.842400
3312.000000	0.842432
3311.000000	0.842473
3310.000000	0.842507
3309.000000	0.842530
3308.000000	0.842544
3307.000000	0.842559
3306.000000	0.842579
3305.000000	0.842611
3304.000000	0.842656
3303.000000	0.842711
3302.000000	0.842765
3301.000000	0.842812
3300.000000	0.842851
3299.000000	0.842877
3298.000000	0.842885
3297.000000	0.842876
3296.000000	0.842861
3295.000000	0.842855
3294.000000	0.842864
3293.000000	0.842883
3292.000000	0.842906
3291.000000	0.842931
3290.000000	0.842961
3289.000000	0.842999
3288.000000	0.843043
3287.000000	0.843083
3286.000000	0.843113
3285.000000	0.843130
3284.000000	0.843137
3283.000000	0.843146
3282.000000	0.843166
3281.000000	0.843197
3280.000000	0.843230
3279.000000	0.843256
3278.000000	0.843273
3277.000000	0.843286
3276.000000	0.843308
3275.000000	0.843344
3274.000000	0.843385
3273.000000	0.843417
3272.000000	0.843429
3271.000000	0.843428
3270.000000	0.843433
3269.000000	0.843463
3268.000000	0.843509
3267.000000	0.843550
3266.000000	0.843566
3265.000000	0.843565
3264.000000	0.843569
3263.000000	0.843591
3262.000000	0.843625
3261.000000	0.843657
3260.000000	0.843680
3259.000000	0.843695
3258.000000	0.843707
3257.000000	0.843719
3256.000000	0.843734
3255.000000	0.843748
3254.000000	0.843754
3253.000000	0.843756
3252.000000	0.843763
3251.000000	0.843783
3250.000000	0.843812
3249.000000	0.843845
3248.000000	0.843874
3247.000000	0.843896
3246.000000	0.843905
3245.000000	0.843901
3244.000000	0.843896
3243.000000	0.843909
3242.000000	0.843945
3241.000000	0.843986
3240.000000	0.844008
3239.000000	0.843999
3238.000000	0.843968
3237.000000	0.843938
3236.000000	0.843929
3235.000000	0.843949
3234.000000	0.843992
3233.000000	0.844046
3232.000000	0.844096
3231.000000	0.844135
3230.000000	0.844160
3229.000000	0.844171
3228.000000	0.844173
3227.000000	0.844177
3226.000000	0.844189
3225.000000	0.844203
3224.000000	0.844215
3223.000000	0.844222
3222.000000	0.844231
3221.000000	0.844248
3220.000000	0.844276
3219.000000	0.844316
3218.000000	0.844362
3217.000000	0.844408
3216.000000	0.844450
3215.000000	0.844488
3214.000000	0.844528
3213.000000	0.844564
3212.000000	0.844584
3211.000000	0.844583
3210.000000	0.844571
3209.000000	0.844567
3208.000000	0.844579
3207.000000	0.844600
3206.000000	0.844621
3205.000000	0.844634
3204.000000	0.844643
3203.000000	0.844650
3202.000000	0.844657
3201.000000	0.844665
3200.000000	0.844676
3199.000000	0.844694
3198.000000	0.844721
3197.000000	0.844754
3196.000000	0.844784
3195.000000	0.844805
3194.000000	0.844820
3193.000000	0.844833
3192.000000	0.844842
3191.000000	0.844844
3190.000000	0.844841
3189.000000	0.844844
3188.000000	0.844860
3187.000000	0.844888
3186.000000	0.844919
3185.000000	0.844947
3184.000000	0.844968
3183.000000	0.844981
3182.000000	0.844984
3181.000000	0.844981
3180.000000	0.844977
3179.000000	0.844980
3178.000000	0.844992
3177.000000	0.845008
3176.000000	0.845021
3175.000000	0.845026
3174.000000	0.845024
3173.000000	0.845017
3172.000000	0.845012
3171.000000	0.845018
3170.000000	0.845044
3169.000000	0.845085
3168.000000	0.845128
3167.000000	0.845158
3166.000000	0.845175
3165.000000	0.845185
3164.000000	0.845197
3163.000000	0.845210
3162.000000	0.845221
3161.000000	0.845232
3160.000000	0.845248
3159.000000	0.845271
3158.000000	0.845296
3157.000000	0.845318
3156.000000	0.845327
3155.000000	0.845320
3154.000000	0.845300
3153.000000	0.845284
3152.000000	0.845287
3151.000000	0.845310
3150.000000	0.845342
3149.000000	0.845373
3148.000000	0.845401
3147.000000	0.845427
3146.000000	0.845451
3145.000000	0.845466
3144.000000	0.845471
3143.000000	0.845469
3142.000000	0.845466
3141.000000	0.845467
3140.000000	0.845476
3139.000000	0.845500
3138.000000	0.845536
3137.000000	0.845580
3136.000000	0.845619
3135.000000	0.845646
3134.000000	0.845658
3133.000000	0.845663
3132.000000	0.845668
3131.000000	0.845679
3130.000000	0.845693
3129.000000	0.845706
3128.000000	0.845717
3127.000000	0.845730
3126.000000	0.845747
3125.000000	0.845768
3124.000000	0.845792
3123.000000	0.845817
3122.000000	0.845841
3121.000000	0.845860
3120.000000	0.845875
3119.000000	0.845891
3118.000000	0.845914
3117.000000	0.845941
3116.000000	0.845970
3115.000000	0.845999
3114.000000	0.846025
3113.000000	0.846043
3112.000000	0.846051
3111.000000	0.846054
3110.000000	0.846058
3109.000000	0.846068
3108.000000	0.846080
3107.000000	0.846093
3106.000000	0.846107
3105.000000	0.846120
3104.000000	0.846132
3103.000000	0.846143
3102.000000	0.846156
3101.000000	0.846173
3100.000000	0.846186
3099.000000	0.846187
3098.000000	0.846177
3097.000000	0.846166
3096.000000	0.846159
3095.000000	0.846159
3094.000000	0.846170
3093.000000	0.846194
3092.000000	0.846222
3091.000000	0.846238
3090.000000	0.846232
3089.000000	0.846211
3088.000000	0.846189
3087.000000	0.846175
3086.000000	0.846165
3085.000000	0.846157
3084.000000	0.846153
3083.000000	0.846159
3082.000000	0.846174
3081.000000	0.846187
3080.000000	0.846190
3079.000000	0.846182
3078.000000	0.846169
3077.000000	0.846160
3076.000000	0.846157
3075.000000	0.846159
3074.000000	0.846169
3073.000000	0.846185
3072.000000	0.846199
3071.000000	0.846203
3070.000000	0.846199
3069.000000	0.846193
3068.000000	0.846187
3067.000000	0.846177
3066.000000	0.846155
3065.000000	0.846125
3064.000000	0.846098
3063.000000	0.846083
3062.000000	0.846080
3061.000000	0.846082
3060.000000	0.846081
3059.000000	0.846073
3058.000000	0.846054
3057.000000	0.846023
3056.000000	0.845983
3055.000000	0.845938
3054.000000	0.845896
3053.000000	0.845864
3052.000000	0.845845
3051.000000	0.845838
3050.000000	0.845840
3049.000000	0.845847
3048.000000	0.845851
3047.000000	0.845841
3046.000000	0.845809
3045.000000	0.845758
3044.000000	0.845700
3043.000000	0.845653
3042.000000	0.845633
3041.000000	0.845638
3040.000000	0.845652
3039.000000	0.845654
3038.000000	0.845634
3037.000000	0.845601
3036.000000	0.845569
3035.000000	0.845546
3034.000000	0.845530
3033.000000	0.845520
3032.000000	0.845519
3031.000000	0.845526
3030.000000	0.845537
3029.000000	0.845546
3028.000000	0.845544
3027.000000	0.845528
3026.000000	0.845498
3025.000000	0.845455
3024.000000	0.845408
3023.000000	0.845363
3022.000000	0.845327
3021.000000	0.845302
3020.000000	0.845280
3019.000000	0.845254
3018.000000	0.845222
3017.000000	0.845190
3016.000000	0.845162
3015.000000	0.845138
3014.000000	0.845116
3013.000000	0.845095
3012.000000	0.845075
3011.000000	0.845051
3010.000000	0.845016
3009.000000	0.844968
3008.000000	0.844914
3007.000000	0.844862
3006.000000	0.844816
3005.000000	0.844777
3004.000000	0.844747
3003.000000	0.844726
3002.000000	0.844710
3001.000000	0.844691
3000.000000	0.844664
2999.000000	0.844630
2998.000000	0.844600
2997.000000	0.844578
2996.000000	0.844556
2995.000000	0.844522
2994.000000	0.844471
2993.000000	0.844417
2992.000000	0.844376
2991.000000	0.844351
2990.000000	0.844328
2989.000000	0.844294
2988.000000	0.844247
2987.000000	0.844192
2986.000000	0.844139
2985.000000	0.844097
2984.000000	0.844071
2983.000000	0.844056
2982.000000	0.844040
2981.000000	0.844017
2980.000000	0.843986
2979.000000	0.843954
2978.000000	0.843926
2977.000000	0.843906
2976.000000	0.843898
2975.000000	0.843902
2974.000000	0.843908
2973.000000	0.843908
2972.000000	0.843897
2971.000000	0.843876
2970.000000	0.843845
2969.000000	0.843812
2968.000000	0.843784
2967.000000	0.843765
2966.000000	0.843746
2965.000000	0.843715
2964.000000	0.843670
2963.000000	0.843617
2962.000000	0.843563
2961.000000	0.843511
2960.000000	0.843458
2959.000000	0.843403
2958.000000	0.843345
2957.000000	0.843281
2956.000000	0.843210
2955.000000	0.843135
2954.000000	0.843063
2953.000000	0.842999
2952.000000	0.842952
2951.000000	0.842926
2950.000000	0.842918
2949.000000	0.842913
2948.000000	0.842898
2947.000000	0.842870
2946.000000	0.842832
2945.000000	0.842791
2944.000000	0.842751
2943.000000	0.842719
2942.000000	0.842698
2941.000000	0.842683
2940.000000	0.842663
2939.000000	0.842629
2938.000000	0.842585
2937.000000	0.842538
2936.000000	0.842492
2935.000000	0.842444
2934.000000	0.842392
2933.000000	0.842340
2932.000000	0.842296
2931.000000	0.842258
2930.000000	0.842219
2929.000000	0.842173
2928.000000	0.842122
2927.000000	0.842074
2926.000000	0.842029
2925.000000	0.841979
2924.000000	0.841914
2923.000000	0.841832
2922.000000	0.841741
2921.000000	0.841651
2920.000000	0.841570
2919.000000	0.841504
2918.000000	0.841452
2917.000000	0.841408
2916.000000	0.841364
2915.000000	0.841317
2914.000000	0.841274
2913.000000	0.841235
2912.000000	0.841195
2911.000000	0.841147
2910.000000	0.841091
2909.000000	0.841036
2908.000000	0.840991
2907.000000	0.840961
2906.000000	0.840941
2905.000000	0.840919
2904.000000	0.840885
2903.000000	0.840837
2902.000000	0.840784
2901.000000	0.840737
2900.000000	0.840702
2899.000000	0.840671
2898.000000	0.840632
2897.000000	0.840582
2896.000000	0.840528
2895.000000	0.840474
2894.000000	0.840420
2893.000000	0.840363
2892.000000	0.840306
2891.000000	0.840257
2890.000000	0.840216
2889.000000	0.840175
2888.000000	0.840126
2887.000000	0.840072
2886.000000	0.840023
2885.000000	0.839986
2884.000000	0.839959
2883.000000	0.839935
2882.000000	0.839906
2881.000000	0.839870
2880.000000	0.839824
2879.000000	0.839774
2878.000000	0.839725
2877.000000	0.839680
2876.000000	0.839636
2875.000000	0.839587
2874.000000	0.839538
2873.000000	0.839498
2872.000000	0.839473
2871.000000	0.839458
2870.000000	0.839442
2869.000000	0.839417
2868.000000	0.839381
2867.000000	0.839334
2866.000000	0.839277
2865.000000	0.839212
2864.000000	0.839143
2863.000000	0.839081
2862.000000	0.839027
2861.000000	0.838978
2860.000000	0.838925
2859.000000	0.838868
2858.000000	0.838816
2857.000000	0.838774
2856.000000	0.838742
2855.000000	0.838716
2854.000000	0.838693
2853.000000	0.838671
2852.000000	0.838647
2851.000000	0.838616
2850.000000	0.838580
2849.000000	0.838542
2848.000000	0.838510
2847.000000	0.838485
2846.000000	0.838463
2845.000000	0.838437
2844.000000	0.838404
2843.000000	0.838365
2842.000000	0.838328
2841.000000	0.838299
2840.000000	0.838279
2839.000000	0.838263
2838.000000	0.838242
2837.000000	0.838216
2836.000000	0.838187
2835.000000	0.838164
2834.000000	0.838148
2833.000000	0.838133
2832.000000	0.838116
2831.000000	0.838091
2830.000000	0.838063
2829.000000	0.838034
2828.000000	0.838004
2827.000000	0.837972
2826.000000	0.837939
2825.000000	0.837909
2824.000000	0.837886
2823.000000	0.837866
2822.000000	0.837844
2821.000000	0.837817
2820.000000	0.837784
2819.000000	0.837751
2818.000000	0.837723
2817.000000	0.837699
2816.000000	0.837672
2815.000000	0.837635
2814.000000	0.837584
2813.000000	0.837532
2812.000000	0.837497
2811.000000	0.837487
2810.000000	0.837491
2809.000000	0.837490
2808.000000	0.837475
2807.000000	0.837449
2806.000000	0.837419
2805.000000	0.837388
2804.000000	0.837356
2803.000000	0.837324
2802.000000	0.837296
2801.000000	0.837277
2800.000000	0.837264
2799.000000	0.837255
2798.000000	0.837246
2797.000000	0.837232
2796.000000	0.837210
2795.000000	0.837180
2794.000000	0.837146
2793.000000	0.837113
2792.000000	0.837082
2791.000000	0.837052
2790.000000	0.837021
2789.000000	0.836990
2788.000000	0.836964
2787.000000	0.836945
2786.000000	0.836934
2785.000000	0.836929
2784.000000	0.836925
2783.000000	0.836916
2782.000000	0.836900
2781.000000	0.836878
2780.000000	0.836856
2779.000000	0.836842
2778.000000	0.836839
2777.000000	0.836840
2776.000000	0.836835
2775.000000	0.836817
2774.000000	0.836788
2773.000000	0.836756
2772.000000	0.836732
2771.000000	0.836720
2770.000000	0.836710
2769.000000	0.836696
2768.000000	0.836676
2767.000000	0.836655
2766.000000	0.836634
2765.000000	0.836612
2764.000000	0.836592
2763.000000	0.836580
2762.000000	0.836575
2761.000000	0.836572
2760.000000	0.836561
2759.000000	0.836545
2758.000000	0.836529
2757.000000	0.836518
2756.000000	0.836508
2755.000000	0.836495
2754.000000	0.836475
2753.000000	0.836450
2752.000000	0.836423
2751.000000	0.836398
2750.000000	0.836384
2749.000000	0.836382
2748.000000	0.836393
2747.000000	0.836412
2746.000000	0.836430
2745.000000	0.836438
2744.000000	0.836429
2743.000000	0.836410
2742.000000	0.836396
2741.000000	0.836392
2740.000000	0.836396
2739.000000	0.836401
2738.000000	0.836404
2737.000000	0.836403
2736.000000	0.836397
2735.000000	0.836389
2734.000000	0.836384
2733.000000	0.836386
2732.000000	0.836389
2731.000000	0.836380
2730.000000	0.836354
2729.000000	0.836321
2728.000000	0.836294
2727.000000	0.836284
2726.000000	0.836291
2725.000000	0.836305
2724.000000	0.836314
2723.000000	0.836305
2722.000000	0.836277
2721.000000	0.836245
2720.000000	0.836223
2719.000000	0.836218
2718.000000	0.836220
2717.000000	0.836221
2716.000000	0.836217
2715.000000	0.836211
2714.000000	0.836207
2713.000000	0.836203
2712.000000	0.836198
2711.000000	0.836191
2710.000000	0.836181
2709.000000	0.836170
2708.000000	0.836164
2707.000000	0.836168
2706.000000	0.836181
2705.000000	0.836196
2704.000000	0.836204
2703.000000	0.836202
2702.000000	0.836194
2701.000000	0.836187
2700.000000	0.836185
2699.000000	0.836188
2698.000000	0.836193
2697.000000	0.836196
2696.000000	0.836195
2695.000000	0.836194
2694.000000	0.836197
2693.000000	0.836202
2692.000000	0.836204
2691.000000	0.836202
2690.000000	0.836199
2689.000000	0.836202
2688.000000	0.836210
2687.000000	0.836219
2686.000000	0.836226
2685.000000	0.836232
2684.000000	0.836245
2683.000000	0.836268
2682.000000	0.836294
2681.000000	0.836311
2680.000000	0.836308
2679.000000	0.836288
2678.000000	0.836267
2677.000000	0.836257
2676.000000	0.836258
2675.000000	0.836262
2674.000000	0.836261
2673.000000	0.836258
2672.000000	0.836261
2671.000000	0.836273
2670.000000	0.836294
2669.000000	0.836314
2668.000000	0.836324
2667.000000	0.836325
2666.000000	0.836321
2665.000000	0.836321
2664.000000	0.836331
2663.000000	0.836350
2662.000000	0.836374
2661.000000	0.836395
2660.000000	0.836411
2659.000000	0.836425
2658.000000	0.836445
2657.000000	0.836474
2656.000000	0.836504
2655.000000	0.836524
2654.000000	0.836535
2653.000000	0.836542
2652.000000	0.836552
2651.000000	0.836565
2650.000000	0.836580
2649.000000	0.836598
2648.000000	0.836616
2647.000000	0.836629
2646.000000	0.836631
2645.000000	0.836627
2644.000000	0.836623
2643.000000	0.836626
2642.000000	0.836639
2641.000000	0.836666
2640.000000	0.836704
2639.000000	0.836744
2638.000000	0.836774
2637.000000	0.836796
2636.000000	0.836814
2635.000000	0.836832
2634.000000	0.836847
2633.000000	0.836859
2632.000000	0.836869
2631.000000	0.836880
2630.000000	0.836892
2629.000000	0.836906
2628.000000	0.836920
2627.000000	0.836934
2626.000000	0.836942
2625.000000	0.836942
2624.000000	0.836937
2623.000000	0.836934
2622.000000	0.836940
2621.000000	0.836949
2620.000000	0.836954
2619.000000	0.836955
2618.000000	0.836960
2617.000000	0.836979
2616.000000	0.837012
2615.000000	0.837048
2614.000000	0.837080
2613.000000	0.837107
2612.000000	0.837130
2611.000000	0.837149
2610.000000	0.837160
2609.000000	0.837165
2608.000000	0.837168
2607.000000	0.837173
2606.000000	0.837183
2605.000000	0.837200
2604.000000	0.837226
2603.000000	0.837256
2602.000000	0.837286
2601.000000	0.837314
2600.000000	0.837340
2599.000000	0.837365
2598.000000	0.837389
2597.000000	0.837411
2596.000000	0.837431
2595.000000	0.837445
2594.000000	0.837452
2593.000000	0.837454
2592.000000	0.837459
2591.000000	0.837476
2590.000000	0.837502
2589.000000	0.837530
2588.000000	0.837553
2587.000000	0.837572
2586.000000	0.837589
2585.000000	0.837602
2584.000000	0.837607
2583.000000	0.837602
2582.000000	0.837600
2581.000000	0.837612
2580.000000	0.837640
2579.000000	0.837673
2578.000000	0.837699
2577.000000	0.837713
2576.000000	0.837721
2575.000000	0.837728
2574.000000	0.837742
2573.000000	0.837766
2572.000000	0.837793
2571.000000	0.837812
2570.000000	0.837820
2569.000000	0.837821
2568.000000	0.837824
2567.000000	0.837835
2566.000000	0.837856
2565.000000	0.837889
2564.000000	0.837931
2563.000000	0.837973
2562.000000	0.838011
2561.000000	0.838044
2560.000000	0.838077
2559.000000	0.838107
2558.000000	0.838128
2557.000000	0.838136
2556.000000	0.838134
2555.000000	0.838127
2554.000000	0.838122
2553.000000	0.838134
2552.000000	0.838170
2551.000000	0.838226
2550.000000	0.838281
2549.000000	0.838322
2548.000000	0.838349
2547.000000	0.838372
2546.000000	0.838394
2545.000000	0.838414
2544.000000	0.838429
2543.000000	0.838438
2542.000000	0.838444
2541.000000	0.838452
2540.000000	0.838467
2539.000000	0.838486
2538.000000	0.838506
2537.000000	0.838525
2536.000000	0.838546
2535.000000	0.838570
2534.000000	0.838593
2533.000000	0.838611
2532.000000	0.838624
2531.000000	0.838636
2530.000000	0.838649
2529.000000	0.838667
2528.000000	0.838692
2527.000000	0.838726
2526.000000	0.838765
2525.000000	0.838803
2524.000000	0.838833
2523.000000	0.838856
2522.000000	0.838870
2521.000000	0.838879
2520.000000	0.838891
2519.000000	0.838910
2518.000000	0.838933
2517.000000	0.838959
2516.000000	0.838988
2515.000000	0.839021
2514.000000	0.839050
2513.000000	0.839065
2512.000000	0.839060
2511.000000	0.839044
2510.000000	0.839031
2509.000000	0.839035
2508.000000	0.839061
2507.000000	0.839108
2506.000000	0.839165
2505.000000	0.839215
2504.000000	0.839247
2503.000000	0.839263
2502.000000	0.839276
2501.000000	0.839298
2500.000000	0.839331
2499.000000	0.839365
2498.000000	0.839387
2497.000000	0.839395
2496.000000	0.839403
2495.000000	0.839421
2494.000000	0.839451
2493.000000	0.839484
2492.000000	0.839508
2491.000000	0.839519
2490.000000	0.839518
2489.000000	0.839508
2488.000000	0.839499
2487.000000	0.839500
2486.000000	0.839516
2485.000000	0.839547
2484.000000	0.839590
2483.000000	0.839638
2482.000000	0.839680
2481.000000	0.839703
2480.000000	0.839706
2479.000000	0.839703
2478.000000	0.839710
2477.000000	0.839738
2476.000000	0.839781
2475.000000	0.839820
2474.000000	0.839843
2473.000000	0.839850
2472.000000	0.839858
2471.000000	0.839878
2470.000000	0.839910
2469.000000	0.839948
2468.000000	0.839988
2467.000000	0.840032
2466.000000	0.840078
2465.000000	0.840119
2464.000000	0.840153
2463.000000	0.840184
2462.000000	0.840213
2461.000000	0.840235
2460.000000	0.840247
2459.000000	0.840255
2458.000000	0.840267
2457.000000	0.840285
2456.000000	0.840307
2455.000000	0.840328
2454.000000	0.840346
2453.000000	0.840358
2452.000000	0.840358
2451.000000	0.840348
2450.000000	0.840334
2449.000000	0.840326
2448.000000	0.840327
2447.000000	0.840336
2446.000000	0.840350
2445.000000	0.840360
2444.000000	0.840364
2443.000000	0.840361
2442.000000	0.840352
2441.000000	0.840341
2440.000000	0.840329
2439.000000	0.840316
2438.000000	0.840304
2437.000000	0.840291
2436.000000	0.840277
2435.000000	0.840265
2434.000000	0.840258
2433.000000	0.840260
2432.000000	0.840269
2431.000000	0.840277
2430.000000	0.840274
2429.000000	0.840257
2428.000000	0.840231
2427.000000	0.840206
2426.000000	0.840186
2425.000000	0.840161
2424.000000	0.840126
2423.000000	0.840090
2422.000000	0.840069
2421.000000	0.840067
2420.000000	0.840068
2419.000000	0.840054
2418.000000	0.840021
2417.000000	0.839982
2416.000000	0.839948
2415.000000	0.839923
2414.000000	0.839904
2413.000000	0.839889
2412.000000	0.839876
2411.000000	0.839864
2410.000000	0.839850
2409.000000	0.839829
2408.000000	0.839801
2407.000000	0.839766
2406.000000	0.839730
2405.000000	0.839694
2404.000000	0.839659
2403.000000	0.839625
2402.000000	0.839596
2401.000000	0.839573
2400.000000	0.839553
2399.000000	0.839531
2398.000000	0.839503
2397.000000	0.839471
2396.000000	0.839433
2395.000000	0.839388
2394.000000	0.839341
2393.000000	0.839297
2392.000000	0.839252
2391.000000	0.839200
2390.000000	0.839138
2389.000000	0.839071
2388.000000	0.839009
2387.000000	0.838958
2386.000000	0.838920
2385.000000	0.838904
2384.000000	0.838922
2383.000000	0.838995
2382.000000	0.839145
2381.000000	0.839379
2380.000000	0.839687
2379.000000	0.840037
2378.000000	0.840392
2377.000000	0.840723
2376.000000	0.841015
2375.000000	0.841260
2374.000000	0.841453
2373.000000	0.841605
2372.000000	0.841737
2371.000000	0.841868
2370.000000	0.842005
2369.000000	0.842142
2368.000000	0.842266
2367.000000	0.842372
2366.000000	0.842460
2365.000000	0.842540
2364.000000	0.842626
2363.000000	0.842722
2362.000000	0.842822
2361.000000	0.842916
2360.000000	0.842998
2359.000000	0.843063
2358.000000	0.843105
2357.000000	0.843121
2356.000000	0.843113
2355.000000	0.843088
2354.000000	0.843048
2353.000000	0.842987
2352.000000	0.842912
2351.000000	0.842848
2350.000000	0.842827
2349.000000	0.842874
2348.000000	0.843000
2347.000000	0.843200
2346.000000	0.843464
2345.000000	0.843787
2344.000000	0.844175
2343.000000	0.844623
2342.000000	0.845101
2341.000000	0.845537
2340.000000	0.845846
2339.000000	0.845962
2338.000000	0.845874
2337.000000	0.845620
2336.000000	0.845273
2335.000000	0.844902
2334.000000	0.844555
2333.000000	0.844250
2332.000000	0.843990
2331.000000	0.843774
2330.000000	0.843595
2329.000000	0.843442
2328.000000	0.843307
2327.000000	0.843188
2326.000000	0.843080
2325.000000	0.842976
2324.000000	0.842872
2323.000000	0.842768
2322.000000	0.842669
2321.000000	0.842578
2320.000000	0.842496
2319.000000	0.842425
2318.000000	0.842367
2317.000000	0.842319
2316.000000	0.842275
2315.000000	0.842233
2314.000000	0.842194
2313.000000	0.842163
2312.000000	0.842139
2311.000000	0.842115
2310.000000	0.842093
2309.000000	0.842076
2308.000000	0.842067
2307.000000	0.842065
2306.000000	0.842063
2305.000000	0.842053
2304.000000	0.842042
2303.000000	0.842035
2302.000000	0.842034
2301.000000	0.842033
2300.000000	0.842025
2299.000000	0.842008
2298.000000	0.841989
2297.000000	0.841975
2296.000000	0.841968
2295.000000	0.841973
2294.000000	0.841986
2293.000000	0.842001
2292.000000	0.842010
2291.000000	0.842009
2290.000000	0.841997
2289.000000	0.841981
2288.000000	0.841971
2287.000000	0.841981
2286.000000	0.842020
2285.000000	0.842089
2284.000000	0.842174
2283.000000	0.842253
2282.000000	0.842302
2281.000000	0.842310
2280.000000	0.842288
2279.000000	0.842263
2278.000000	0.842250
2277.000000	0.842244
2276.000000	0.842232
2275.000000	0.842218
2274.000000	0.842213
2273.000000	0.842219
2272.000000	0.842223
2271.000000	0.842222
2270.000000	0.842221
2269.000000	0.842227
2268.000000	0.842236
2267.000000	0.842238
2266.000000	0.842235
2265.000000	0.842231
2264.000000	0.842230
2263.000000	0.842230
2262.000000	0.842231
2261.000000	0.842234
2260.000000	0.842242
2259.000000	0.842258
2258.000000	0.842282
2257.000000	0.842305
2256.000000	0.842315
2255.000000	0.842306
2254.000000	0.842288
2253.000000	0.842272
2252.000000	0.842268
2251.000000	0.842278
2250.000000	0.842299
2249.000000	0.842325
2248.000000	0.842342
2247.000000	0.842345
2246.000000	0.842340
2245.000000	0.842335
2244.000000	0.842334
2243.000000	0.842332
2242.000000	0.842327
2241.000000	0.842326
2240.000000	0.842330
2239.000000	0.842339
2238.000000	0.842345
2237.000000	0.842342
2236.000000	0.842332
2235.000000	0.842321
2234.000000	0.842316
2233.000000	0.842318
2232.000000	0.842322
2231.000000	0.842333
2230.000000	0.842354
2229.000000	0.842381
2228.000000	0.842398
2227.000000	0.842393
2226.000000	0.842374
2225.000000	0.842360
2224.000000	0.842357
2223.000000	0.842354
2222.000000	0.842340
2221.000000	0.842316
2220.000000	0.842291
2219.000000	0.842280
2218.000000	0.842286
2217.000000	0.842303
2216.000000	0.842321
2215.000000	0.842331
2214.000000	0.842333
2213.000000	0.842325
2212.000000	0.842303
2211.000000	0.842273
2210.000000	0.842251
2209.000000	0.842245
2208.000000	0.842249
2207.000000	0.842246
2206.000000	0.842231
2205.000000	0.842213
2204.000000	0.842198
2203.000000	0.842182
2202.000000	0.842167
2201.000000	0.842155
2200.000000	0.842149
2199.000000	0.842141
2198.000000	0.842132
2197.000000	0.842130
2196.000000	0.842136
2195.000000	0.842140
2194.000000	0.842130
2193.000000	0.842105
2192.000000	0.842077
2191.000000	0.842055
2190.000000	0.842038
2189.000000	0.842026
2188.000000	0.842021
2187.000000	0.842019
2186.000000	0.842009
2185.000000	0.841983
2184.000000	0.841946
2183.000000	0.841912
2182.000000	0.841891
2181.000000	0.841884
2180.000000	0.841881
2179.000000	0.841877
2178.000000	0.841868
2177.000000	0.841859
2176.000000	0.841849
2175.000000	0.841834
2174.000000	0.841806
2173.000000	0.841762
2172.000000	0.841707
2171.000000	0.841653
2170.000000	0.841613
2169.000000	0.841597
2168.000000	0.841597
2167.000000	0.841595
2166.000000	0.841579
2165.000000	0.841551
2164.000000	0.841524
2163.000000	0.841504
2162.000000	0.841490
2161.000000	0.841473
2160.000000	0.841452
2159.000000	0.841427
2158.000000	0.841402
2157.000000	0.841376
2156.000000	0.841354
2155.000000	0.841331
2154.000000	0.841305
2153.000000	0.841272
2152.000000	0.841235
2151.000000	0.841198
2150.000000	0.841162
2149.000000	0.841124
2148.000000	0.841086
2147.000000	0.841053
2146.000000	0.841030
2145.000000	0.841014
2144.000000	0.840994
2143.000000	0.840964
2142.000000	0.840921
2141.000000	0.840873
2140.000000	0.840827
2139.000000	0.840790
2138.000000	0.840761
2137.000000	0.840738
2136.000000	0.840717
2135.000000	0.840697
2134.000000	0.840676
2133.000000	0.840652
2132.000000	0.840625
2131.000000	0.840592
2130.000000	0.840556
2129.000000	0.840516
2128.000000	0.840472
2127.000000	0.840426
2126.000000	0.840384
2125.000000	0.840351
2124.000000	0.840323
2123.000000	0.840288
2122.000000	0.840241
2121.000000	0.840187
2120.000000	0.840141
2119.000000	0.840110
2118.000000	0.840094
2117.000000	0.840083
2116.000000	0.840066
2115.000000	0.840032
2114.000000	0.839980
2113.000000	0.839921
2112.000000	0.839868
2111.000000	0.839822
2110.000000	0.839779
2109.000000	0.839731
2108.000000	0.839681
2107.000000	0.839636
2106.000000	0.839603
2105.000000	0.839580
2104.000000	0.839561
2103.000000	0.839536
2102.000000	0.839500
2101.000000	0.839455
2100.000000	0.839408
2099.000000	0.839363
2098.000000	0.839322
2097.000000	0.839285
2096.000000	0.839254
2095.000000	0.839229
2094.000000	0.839209
2093.000000	0.839190
2092.000000	0.839169
2091.000000	0.839144
2090.000000	0.839113
2089.000000	0.839074
2088.000000	0.839024
2087.000000	0.838967
2086.000000	0.838908
2085.000000	0.838858
2084.000000	0.838817
2083.000000	0.838780
2082.000000	0.838740
2081.000000	0.838694
2080.000000	0.838647
2079.000000	0.838608
2078.000000	0.838577
2077.000000	0.838549
2076.000000	0.838510
2075.000000	0.838458
2074.000000	0.838400
2073.000000	0.838351
2072.000000	0.838315
2071.000000	0.838290
2070.000000	0.838271
2069.000000	0.838251
2068.000000	0.838220
2067.000000	0.838173
2066.000000	0.838111
2065.000000	0.838050
2064.000000	0.838001
2063.000000	0.837964
2062.000000	0.837928
2061.000000	0.837889
2060.000000	0.837849
2059.000000	0.837810
2058.000000	0.837777
2057.000000	0.837749
2056.000000	0.837725
2055.000000	0.837696
2054.000000	0.837651
2053.000000	0.837595
2052.000000	0.837547
2051.000000	0.837521
2050.000000	0.837507
2049.000000	0.837485
2048.000000	0.837442
2047.000000	0.837384
2046.000000	0.837327
2045.000000	0.837278
2044.000000	0.837238
2043.000000	0.837202
2042.000000	0.837166
2041.000000	0.837127
2040.000000	0.837085
2039.000000	0.837043
2038.000000	0.837002
2037.000000	0.836959
2036.000000	0.836915
2035.000000	0.836873
2034.000000	0.836837
2033.000000	0.836804
2032.000000	0.836765
2031.000000	0.836723
2030.000000	0.836689
2029.000000	0.836668
2028.000000	0.836650
2027.000000	0.836622
2026.000000	0.836583
2025.000000	0.836540
2024.000000	0.836500
2023.000000	0.836462
2022.000000	0.836424
2021.000000	0.836390
2020.000000	0.836357
2019.000000	0.836322
2018.000000	0.836279
2017.000000	0.836232
2016.000000	0.836186
2015.000000	0.836141
2014.000000	0.836095
2013.000000	0.836048
2012.000000	0.836006
2011.000000	0.835972
2010.000000	0.835942
2009.000000	0.835912
2008.000000	0.835881
2007.000000	0.835851
2006.000000	0.835827
2005.000000	0.835814
2004.000000	0.835809
2003.000000	0.835801
2002.000000	0.835779
2001.000000	0.835738
2000.000000	0.835684
1999.000000	0.835628
1998.000000	0.835582
1997.000000	0.835549
1996.000000	0.835521
1995.000000	0.835489
1994.000000	0.835447
1993.000000	0.835401
1992.000000	0.835360
1991.000000	0.835329
1990.000000	0.835310
1989.000000	0.835297
1988.000000	0.835287
1987.000000	0.835272
1986.000000	0.835250
1985.000000	0.835225
1984.000000	0.835203
1983.000000	0.835184
1982.000000	0.835162
1981.000000	0.835133
1980.000000	0.835102
1979.000000	0.835075
1978.000000	0.835057
1977.000000	0.835045
1976.000000	0.835034
1975.000000	0.835018
1974.000000	0.834995
1973.000000	0.834967
1972.000000	0.834935
1971.000000	0.834901
1970.000000	0.834870
1969.000000	0.834848
1968.000000	0.834838
1967.000000	0.834837
1966.000000	0.834834
1965.000000	0.834818
1964.000000	0.834788
1963.000000	0.834753
1962.000000	0.834724
1961.000000	0.834707
1960.000000	0.834700
1959.000000	0.834693
1958.000000	0.834679
1957.000000	0.834659
1956.000000	0.834638
1955.000000	0.834625
1954.000000	0.834622
1953.000000	0.834621
1952.000000	0.834615
1951.000000	0.834600
1950.000000	0.834583
1949.000000	0.834570
1948.000000	0.834561
1947.000000	0.834552
1946.000000	0.834540
1945.000000	0.834531
1944.000000	0.834527
1943.000000	0.834529
1942.000000	0.834527
1941.000000	0.834516
1940.000000	0.834497
1939.000000	0.834479
1938.000000	0.834470
1937.000000	0.834472
1936.000000	0.834476
1935.000000	0.834472
1934.000000	0.834455
1933.000000	0.834428
1932.000000	0.834403
1931.000000	0.834388
1930.000000	0.834389
1929.000000	0.834403
1928.000000	0.834419
1927.000000	0.834427
1926.000000	0.834428
1925.000000	0.834419
1924.000000	0.834400
1923.000000	0.834374
1922.000000	0.834354
1921.000000	0.834354
1920.000000	0.834370
1919.000000	0.834385
1918.000000	0.834387
1917.000000	0.834379
1916.000000	0.834374
1915.000000	0.834374
1914.000000	0.834377
1913.000000	0.834386
1912.000000	0.834404
1911.000000	0.834429
1910.000000	0.834448
1909.000000	0.834453
1908.000000	0.834447
1907.000000	0.834438
1906.000000	0.834434
1905.000000	0.834436
1904.000000	0.834439
1903.000000	0.834440
1902.000000	0.834440
1901.000000	0.834443
1900.000000	0.834445
1899.000000	0.834444
1898.000000	0.834439
1897.000000	0.834434
1896.000000	0.834432
1895.000000	0.834431
1894.000000	0.834431
1893.000000	0.834435
1892.000000	0.834444
1891.000000	0.834455
1890.000000	0.834465
1889.000000	0.834472
1888.000000	0.834479
1887.000000	0.834488
1886.000000	0.834499
1885.000000	0.834509
1884.000000	0.834514
1883.000000	0.834511
1882.000000	0.834504
1881.000000	0.834501
1880.000000	0.834508
1879.000000	0.834518
1878.000000	0.834524
1877.000000	0.834524
1876.000000	0.834524
1875.000000	0.834527
1874.000000	0.834528
1873.000000	0.834526
1872.000000	0.834525
1871.000000	0.834528
1870.000000	0.834531
1869.000000	0.834533
1868.000000	0.834536
1867.000000	0.834547
1866.000000	0.834564
1865.000000	0.834583
1864.000000	0.834598
1863.000000	0.834608
1862.000000	0.834612
1861.000000	0.834615
1860.000000	0.834622
1859.000000	0.834634
1858.000000	0.834651
1857.000000	0.834671
1856.000000	0.834688
1855.000000	0.834699
1854.000000	0.834701
1853.000000	0.834698
1852.000000	0.834697
1851.000000	0.834703
1850.000000	0.834714
1849.000000	0.834726
1848.000000	0.834737
1847.000000	0.834747
1846.000000	0.834751
1845.000000	0.834742
1844.000000	0.834723
1843.000000	0.834711
1842.000000	0.834729
1841.000000	0.834774
1840.000000	0.834825
1839.000000	0.834857
1838.000000	0.834868
1837.000000	0.834875
1836.000000	0.834889
1835.000000	0.834908
1834.000000	0.834924
1833.000000	0.834938
1832.000000	0.834950
1831.000000	0.834960
1830.000000	0.834967
1829.000000	0.834975
1828.000000	0.834995
1827.000000	0.835029
1826.000000	0.835070
1825.000000	0.835110
1824.000000	0.835148
1823.000000	0.835182
1822.000000	0.835210
1821.000000	0.835231
1820.000000	0.835249
1819.000000	0.835268
1818.000000	0.835288
1817.000000	0.835309
1816.000000	0.835335
1815.000000	0.835369
1814.000000	0.835410
1813.000000	0.835450
1812.000000	0.835481
1811.000000	0.835499
1810.000000	0.835505
1809.000000	0.835507
1808.000000	0.835514
1807.000000	0.835531
1806.000000	0.835557
1805.000000	0.835586
1804.000000	0.835613
1803.000000	0.835641
1802.000000	0.835670
1801.000000	0.835700
1800.000000	0.835723
1799.000000	0.835736
1798.000000	0.835740
1797.000000	0.835743
1796.000000	0.835748
1795.000000	0.835750
1794.000000	0.835746
1793.000000	0.835740
1792.000000	0.835747
1791.000000	0.835774
1790.000000	0.835817
1789.000000	0.835861
1788.000000	0.835896
1787.000000	0.835920
1786.000000	0.835939
1785.000000	0.835963
1784.000000	0.836002
1783.000000	0.836053
1782.000000	0.836105
1781.000000	0.836146
1780.000000	0.836173
1779.000000	0.836196
1778.000000	0.836225
1777.000000	0.836263
1776.000000	0.836312
1775.000000	0.836369
1774.000000	0.836422
1773.000000	0.836459
1772.000000	0.836476
1771.000000	0.836486
1770.000000	0.836504
1769.000000	0.836537
1768.000000	0.836578
1767.000000	0.836626
1766.000000	0.836686
1765.000000	0.836756
1764.000000	0.836823
1763.000000	0.836871
1762.000000	0.836899
1761.000000	0.836923
1760.000000	0.836958
1759.000000	0.837007
1758.000000	0.837058
1757.000000	0.837101
1756.000000	0.837140
1755.000000	0.837186
1754.000000	0.837240
1753.000000	0.837292
1752.000000	0.837327
1751.000000	0.837348
1750.000000	0.837369
1749.000000	0.837405
1748.000000	0.837458
1747.000000	0.837516
1746.000000	0.837569
1745.000000	0.837611
1744.000000	0.837646
1743.000000	0.837679
1742.000000	0.837721
1741.000000	0.837775
1740.000000	0.837833
1739.000000	0.837883
1738.000000	0.837927
1737.000000	0.837969
1736.000000	0.838007
1735.000000	0.838030
1734.000000	0.838047
1733.000000	0.838080
1732.000000	0.838145
1731.000000	0.838228
1730.000000	0.838305
1729.000000	0.838369
1728.000000	0.838427
1727.000000	0.838488
1726.000000	0.838550
1725.000000	0.838609
1724.000000	0.838661
1723.000000	0.838705
1722.000000	0.838747
1721.000000	0.838793
1720.000000	0.838843
1719.000000	0.838881
1718.000000	0.838894
1717.000000	0.838892
1716.000000	0.838901
1715.000000	0.838935
1714.000000	0.838993
1713.000000	0.839069
1712.000000	0.839158
1711.000000	0.839249
1710.000000	0.839323
1709.000000	0.839372
1708.000000	0.839400
1707.000000	0.839414
1706.000000	0.839414
1705.000000	0.839414
1704.000000	0.839440
1703.000000	0.839493
1702.000000	0.839536
1701.000000	0.839536
1700.000000	0.839507
1699.000000	0.839501
1698.000000	0.839540
1697.000000	0.839589
1696.000000	0.839609
1695.000000	0.839608
1694.000000	0.839630
1693.000000	0.839698
1692.000000	0.839785
1691.000000	0.839850
1690.000000	0.839884
1689.000000	0.839911
1688.000000	0.839956
1687.000000	0.840007
1686.000000	0.840028
1685.000000	0.840001
1684.000000	0.839958
1683.000000	0.839951
1682.000000	0.840006
1681.000000	0.840099
1680.000000	0.840188
1679.000000	0.840249
1678.000000	0.840287
1677.000000	0.840307
1676.000000	0.840308
1675.000000	0.840295
1674.000000	0.840287
1673.000000	0.840301
1672.000000	0.840331
1671.000000	0.840356
1670.000000	0.840368
1669.000000	0.840377
1668.000000	0.840399
1667.000000	0.840433
1666.000000	0.840466
1665.000000	0.840489
1664.000000	0.840504
1663.000000	0.840516
1662.000000	0.840532
1661.000000	0.840559
1660.000000	0.840595
1659.000000	0.840627
1658.000000	0.840643
1657.000000	0.840648
1656.000000	0.840651
1655.000000	0.840643
1654.000000	0.840605
1653.000000	0.840542
1652.000000	0.840496
1651.000000	0.840514
1650.000000	0.840593
1649.000000	0.840686
1648.000000	0.840747
1647.000000	0.840770
1646.000000	0.840779
1645.000000	0.840801
1644.000000	0.840843
1643.000000	0.840890
1642.000000	0.840922
1641.000000	0.840928
1640.000000	0.840921
1639.000000	0.840923
1638.000000	0.840940
1637.000000	0.840952
1636.000000	0.840939
1635.000000	0.840906
1634.000000	0.840881
1633.000000	0.840883
1632.000000	0.840907
1631.000000	0.840931
1630.000000	0.840942
1629.000000	0.840940
1628.000000	0.840938
1627.000000	0.840938
1626.000000	0.840936
1625.000000	0.840924
1624.000000	0.840898
1623.000000	0.840859
1622.000000	0.840820
1621.000000	0.840795
1620.000000	0.840797
1619.000000	0.840820
1618.000000	0.840845
1617.000000	0.840863
1616.000000	0.840888
1615.000000	0.840935
1614.000000	0.840999
1613.000000	0.841059
1612.000000	0.841097
1611.000000	0.841112
1610.000000	0.841116
1609.000000	0.841112
1608.000000	0.841100
1607.000000	0.841083
1606.000000	0.841066
1605.000000	0.841054
1604.000000	0.841046
1603.000000	0.841043
1602.000000	0.841049
1601.000000	0.841065
1600.000000	0.841086
1599.000000	0.841102
1598.000000	0.841107
1597.000000	0.841106
1596.000000	0.841111
1595.000000	0.841125
1594.000000	0.841142
1593.000000	0.841157
1592.000000	0.841169
1591.000000	0.841178
1590.000000	0.841181
1589.000000	0.841177
1588.000000	0.841174
1587.000000	0.841185
1586.000000	0.841214
1585.000000	0.841249
1584.000000	0.841275
1583.000000	0.841290
1582.000000	0.841299
1581.000000	0.841307
1580.000000	0.841315
1579.000000	0.841316
1578.000000	0.841300
1577.000000	0.841261
1576.000000	0.841210
1575.000000	0.841177
1574.000000	0.841183
1573.000000	0.841221
1572.000000	0.841265
1571.000000	0.841291
1570.000000	0.841296
1569.000000	0.841291
1568.000000	0.841287
1567.000000	0.841292
1566.000000	0.841302
1565.000000	0.841312
1564.000000	0.841321
1563.000000	0.841334
1562.000000	0.841348
1561.000000	0.841348
1560.000000	0.841326
1559.000000	0.841289
1558.000000	0.841261
1557.000000	0.841252
1556.000000	0.841259
1555.000000	0.841278
1554.000000	0.841313
1553.000000	0.841366
1552.000000	0.841426
1551.000000	0.841475
1550.000000	0.841501
1549.000000	0.841504
1548.000000	0.841494
1547.000000	0.841483
1546.000000	0.841477
1545.000000	0.841473
1544.000000	0.841461
1543.000000	0.841434
1542.000000	0.841397
1541.000000	0.841360
1540.000000	0.841331
1539.000000	0.841320
1538.000000	0.841335
1537.000000	0.841373
1536.000000	0.841414
1535.000000	0.841430
1534.000000	0.841418
1533.000000	0.841396
1532.000000	0.841388
1531.000000	0.841402
1530.000000	0.841428
1529.000000	0.841449
1528.000000	0.841457
1527.000000	0.841457
1526.000000	0.841459
1525.000000	0.841467
1524.000000	0.841473
1523.000000	0.841464
1522.000000	0.841440
1521.000000	0.841419
1520.000000	0.841422
1519.000000	0.841452
1518.000000	0.841492
1517.000000	0.841519
1516.000000	0.841523
1515.000000	0.841514
1514.000000	0.841501
1513.000000	0.841493
1512.000000	0.841486
1511.000000	0.841479
1510.000000	0.841470
1509.000000	0.841455
1508.000000	0.841430
1507.000000	0.841398
1506.000000	0.841372
1505.000000	0.841369
1504.000000	0.841398
1503.000000	0.841452
1502.000000	0.841519
1501.000000	0.841588
1500.000000	0.841656
