PE IR       SUBTECH     SPECTRUM    ASCII       PEDS        4.00        
   -1
TE108B2_016.ASC
20/02/27
14:14:33.00
20/02/27
14:14:33.00
Administrator
Sample 016 By Administrator Date Thursday, February 27 2020
1500.000000
#HDR
-1
-1
#GR
cm-1
A
1.0
0.0
4000.000000
-1.000000
2501
8
0.850228
0.814058
#DATA
4000.000000	0.821727
3999.000000	0.821725
3998.000000	0.821723
3997.000000	0.821719
3996.000000	0.821709
3995.000000	0.821695
3994.000000	0.821679
3993.000000	0.821668
3992.000000	0.821663
3991.000000	0.821662
3990.000000	0.821657
3989.000000	0.821642
3988.000000	0.821618
3987.000000	0.821594
3986.000000	0.821579
3985.000000	0.821573
3984.000000	0.821569
3983.000000	0.821557
3982.000000	0.821540
3981.000000	0.821522
3980.000000	0.821507
3979.000000	0.821495
3978.000000	0.821484
3977.000000	0.821474
3976.000000	0.821468
3975.000000	0.821466
3974.000000	0.821461
3973.000000	0.821444
3972.000000	0.821415
3971.000000	0.821381
3970.000000	0.821350
3969.000000	0.821322
3968.000000	0.821286
3967.000000	0.821237
3966.000000	0.821179
3965.000000	0.821128
3964.000000	0.821097
3963.000000	0.821087
3962.000000	0.821084
3961.000000	0.821068
3960.000000	0.821030
3959.000000	0.820971
3958.000000	0.820907
3957.000000	0.820849
3956.000000	0.820804
3955.000000	0.820773
3954.000000	0.820753
3953.000000	0.820743
3952.000000	0.820742
3951.000000	0.820742
3950.000000	0.820731
3949.000000	0.820701
3948.000000	0.820652
3947.000000	0.820596
3946.000000	0.820550
3945.000000	0.820518
3944.000000	0.820493
3943.000000	0.820462
3942.000000	0.820422
3941.000000	0.820380
3940.000000	0.820344
3939.000000	0.820315
3938.000000	0.820283
3937.000000	0.820236
3936.000000	0.820174
3935.000000	0.820105
3934.000000	0.820042
3933.000000	0.819990
3932.000000	0.819953
3931.000000	0.819931
3930.000000	0.819916
3929.000000	0.819892
3928.000000	0.819842
3927.000000	0.819766
3926.000000	0.819688
3925.000000	0.819636
3924.000000	0.819619
3923.000000	0.819621
3922.000000	0.819612
3921.000000	0.819568
3920.000000	0.819489
3919.000000	0.819392
3918.000000	0.819301
3917.000000	0.819233
3916.000000	0.819195
3915.000000	0.819177
3914.000000	0.819163
3913.000000	0.819138
3912.000000	0.819099
3911.000000	0.819050
3910.000000	0.819000
3909.000000	0.818950
3908.000000	0.818900
3907.000000	0.818847
3906.000000	0.818793
3905.000000	0.818736
3904.000000	0.818671
3903.000000	0.818600
3902.000000	0.818528
3901.000000	0.818468
3900.000000	0.818424
3899.000000	0.818396
3898.000000	0.818380
3897.000000	0.818377
3896.000000	0.818380
3895.000000	0.818380
3894.000000	0.818364
3893.000000	0.818322
3892.000000	0.818259
3891.000000	0.818191
3890.000000	0.818138
3889.000000	0.818106
3888.000000	0.818085
3887.000000	0.818060
3886.000000	0.818015
3885.000000	0.817955
3884.000000	0.817896
3883.000000	0.817854
3882.000000	0.817829
3881.000000	0.817806
3880.000000	0.817777
3879.000000	0.817744
3878.000000	0.817717
3877.000000	0.817698
3876.000000	0.817676
3875.000000	0.817641
3874.000000	0.817591
3873.000000	0.817530
3872.000000	0.817460
3871.000000	0.817382
3870.000000	0.817307
3869.000000	0.817253
3868.000000	0.817233
3867.000000	0.817237
3866.000000	0.817237
3865.000000	0.817209
3864.000000	0.817158
3863.000000	0.817106
3862.000000	0.817073
3861.000000	0.817059
3860.000000	0.817046
3859.000000	0.817020
3858.000000	0.816976
3857.000000	0.816907
3856.000000	0.816799
3855.000000	0.816644
3854.000000	0.816459
3853.000000	0.816296
3852.000000	0.816209
3851.000000	0.816224
3850.000000	0.816317
3849.000000	0.816435
3848.000000	0.816525
3847.000000	0.816564
3846.000000	0.816560
3845.000000	0.816531
3844.000000	0.816492
3843.000000	0.816445
3842.000000	0.816387
3841.000000	0.816314
3840.000000	0.816224
3839.000000	0.816123
3838.000000	0.816029
3837.000000	0.815965
3836.000000	0.815945
3835.000000	0.815961
3834.000000	0.815987
3833.000000	0.815996
3832.000000	0.815981
3831.000000	0.815955
3830.000000	0.815936
3829.000000	0.815928
3828.000000	0.815923
3827.000000	0.815906
3826.000000	0.815871
3825.000000	0.815820
3824.000000	0.815758
3823.000000	0.815691
3822.000000	0.815619
3821.000000	0.815551
3820.000000	0.815501
3819.000000	0.815476
3818.000000	0.815465
3817.000000	0.815441
3816.000000	0.815389
3815.000000	0.815326
3814.000000	0.815290
3813.000000	0.815307
3812.000000	0.815361
3811.000000	0.815414
3810.000000	0.815432
3809.000000	0.815409
3808.000000	0.815359
3807.000000	0.815300
3806.000000	0.815249
3805.000000	0.815217
3804.000000	0.815200
3803.000000	0.815178
3802.000000	0.815136
3801.000000	0.815075
3800.000000	0.815027
3799.000000	0.815018
3798.000000	0.815049
3797.000000	0.815092
3796.000000	0.815116
3795.000000	0.815113
3794.000000	0.815096
3793.000000	0.815087
3792.000000	0.815096
3791.000000	0.815120
3790.000000	0.815145
3789.000000	0.815156
3788.000000	0.815147
3787.000000	0.815119
3786.000000	0.815084
3785.000000	0.815049
3784.000000	0.815022
3783.000000	0.815004
3782.000000	0.814994
3781.000000	0.814983
3780.000000	0.814962
3779.000000	0.814930
3778.000000	0.814899
3777.000000	0.814884
3776.000000	0.814884
3775.000000	0.814889
3774.000000	0.814884
3773.000000	0.814866
3772.000000	0.814843
3771.000000	0.814821
3770.000000	0.814800
3769.000000	0.814778
3768.000000	0.814753
3767.000000	0.814725
3766.000000	0.814696
3765.000000	0.814668
3764.000000	0.814648
3763.000000	0.814638
3762.000000	0.814638
3761.000000	0.814644
3760.000000	0.814647
3759.000000	0.814642
3758.000000	0.814628
3757.000000	0.814608
3756.000000	0.814581
3755.000000	0.814546
3754.000000	0.814496
3753.000000	0.814428
3752.000000	0.814348
3751.000000	0.814270
3750.000000	0.814210
3749.000000	0.814180
3748.000000	0.814177
3747.000000	0.814180
3746.000000	0.814164
3745.000000	0.814119
3744.000000	0.814070
3743.000000	0.814058
3742.000000	0.814108
3741.000000	0.814204
3740.000000	0.814296
3739.000000	0.814340
3738.000000	0.814327
3737.000000	0.814280
3736.000000	0.814227
3735.000000	0.814188
3734.000000	0.814167
3733.000000	0.814162
3732.000000	0.814168
3731.000000	0.814183
3730.000000	0.814209
3729.000000	0.814242
3728.000000	0.814277
3727.000000	0.814301
3726.000000	0.814311
3725.000000	0.814311
3724.000000	0.814313
3723.000000	0.814324
3722.000000	0.814344
3721.000000	0.814373
3720.000000	0.814410
3719.000000	0.814451
3718.000000	0.814489
3717.000000	0.814512
3716.000000	0.814522
3715.000000	0.814528
3714.000000	0.814537
3713.000000	0.814550
3712.000000	0.814560
3711.000000	0.814567
3710.000000	0.814586
3709.000000	0.814633
3708.000000	0.814722
3707.000000	0.814849
3706.000000	0.814995
3705.000000	0.815130
3704.000000	0.815237
3703.000000	0.815318
3702.000000	0.815396
3701.000000	0.815497
3700.000000	0.815627
3699.000000	0.815778
3698.000000	0.815932
3697.000000	0.816073
3696.000000	0.816187
3695.000000	0.816270
3694.000000	0.816324
3693.000000	0.816358
3692.000000	0.816379
3691.000000	0.816388
3690.000000	0.816383
3689.000000	0.816377
3688.000000	0.816388
3687.000000	0.816436
3686.000000	0.816526
3685.000000	0.816645
3684.000000	0.816774
3683.000000	0.816899
3682.000000	0.817014
3681.000000	0.817122
3680.000000	0.817222
3679.000000	0.817313
3678.000000	0.817390
3677.000000	0.817450
3676.000000	0.817498
3675.000000	0.817552
3674.000000	0.817636
3673.000000	0.817765
3672.000000	0.817928
3671.000000	0.818096
3670.000000	0.818249
3669.000000	0.818393
3668.000000	0.818551
3667.000000	0.818733
3666.000000	0.818926
3665.000000	0.819103
3664.000000	0.819252
3663.000000	0.819377
3662.000000	0.819495
3661.000000	0.819617
3660.000000	0.819743
3659.000000	0.819865
3658.000000	0.819974
3657.000000	0.820066
3656.000000	0.820150
3655.000000	0.820241
3654.000000	0.820351
3653.000000	0.820477
3652.000000	0.820597
3651.000000	0.820690
3650.000000	0.820754
3649.000000	0.820811
3648.000000	0.820891
3647.000000	0.821015
3646.000000	0.821182
3645.000000	0.821372
3644.000000	0.821560
3643.000000	0.821725
3642.000000	0.821860
3641.000000	0.821972
3640.000000	0.822069
3639.000000	0.822156
3638.000000	0.822233
3637.000000	0.822297
3636.000000	0.822351
3635.000000	0.822401
3634.000000	0.822459
3633.000000	0.822530
3632.000000	0.822612
3631.000000	0.822691
3630.000000	0.822754
3629.000000	0.822802
3628.000000	0.822856
3627.000000	0.822938
3626.000000	0.823053
3625.000000	0.823183
3624.000000	0.823305
3623.000000	0.823407
3622.000000	0.823491
3621.000000	0.823566
3620.000000	0.823638
3619.000000	0.823706
3618.000000	0.823771
3617.000000	0.823835
3616.000000	0.823900
3615.000000	0.823966
3614.000000	0.824030
3613.000000	0.824093
3612.000000	0.824163
3611.000000	0.824248
3610.000000	0.824347
3609.000000	0.824451
3608.000000	0.824547
3607.000000	0.824633
3606.000000	0.824718
3605.000000	0.824811
3604.000000	0.824911
3603.000000	0.825010
3602.000000	0.825099
3601.000000	0.825176
3600.000000	0.825247
3599.000000	0.825320
3598.000000	0.825396
3597.000000	0.825468
3596.000000	0.825529
3595.000000	0.825576
3594.000000	0.825614
3593.000000	0.825653
3592.000000	0.825705
3591.000000	0.825775
3590.000000	0.825857
3589.000000	0.825936
3588.000000	0.825996
3587.000000	0.826035
3586.000000	0.826070
3585.000000	0.826122
3584.000000	0.826198
3583.000000	0.826287
3582.000000	0.826370
3581.000000	0.826442
3580.000000	0.826508
3579.000000	0.826580
3578.000000	0.826654
3577.000000	0.826715
3576.000000	0.826754
3575.000000	0.826775
3574.000000	0.826794
3573.000000	0.826821
3572.000000	0.826859
3571.000000	0.826903
3570.000000	0.826953
3569.000000	0.827006
3568.000000	0.827064
3567.000000	0.827131
3566.000000	0.827211
3565.000000	0.827297
3564.000000	0.827373
3563.000000	0.827425
3562.000000	0.827456
3561.000000	0.827483
3560.000000	0.827527
3559.000000	0.827597
3558.000000	0.827681
3557.000000	0.827761
3556.000000	0.827823
3555.000000	0.827868
3554.000000	0.827912
3553.000000	0.827967
3552.000000	0.828032
3551.000000	0.828094
3550.000000	0.828144
3549.000000	0.828186
3548.000000	0.828225
3547.000000	0.828260
3546.000000	0.828289
3545.000000	0.828318
3544.000000	0.828364
3543.000000	0.828441
3542.000000	0.828545
3541.000000	0.828657
3540.000000	0.828760
3539.000000	0.828849
3538.000000	0.828921
3537.000000	0.828982
3536.000000	0.829036
3535.000000	0.829090
3534.000000	0.829148
3533.000000	0.829213
3532.000000	0.829283
3531.000000	0.829356
3530.000000	0.829430
3529.000000	0.829507
3528.000000	0.829591
3527.000000	0.829688
3526.000000	0.829801
3525.000000	0.829923
3524.000000	0.830043
3523.000000	0.830152
3522.000000	0.830252
3521.000000	0.830350
3520.000000	0.830451
3519.000000	0.830553
3518.000000	0.830655
3517.000000	0.830756
3516.000000	0.830858
3515.000000	0.830960
3514.000000	0.831061
3513.000000	0.831162
3512.000000	0.831269
3511.000000	0.831389
3510.000000	0.831519
3509.000000	0.831652
3508.000000	0.831781
3507.000000	0.831901
3506.000000	0.832012
3505.000000	0.832115
3504.000000	0.832214
3503.000000	0.832317
3502.000000	0.832437
3501.000000	0.832578
3500.000000	0.832735
3499.000000	0.832894
3498.000000	0.833042
3497.000000	0.833176
3496.000000	0.833303
3495.000000	0.833432
3494.000000	0.833565
3493.000000	0.833699
3492.000000	0.833831
3491.000000	0.833960
3490.000000	0.834089
3489.000000	0.834220
3488.000000	0.834349
3487.000000	0.834472
3486.000000	0.834593
3485.000000	0.834720
3484.000000	0.834861
3483.000000	0.835011
3482.000000	0.835163
3481.000000	0.835312
3480.000000	0.835462
3479.000000	0.835618
3478.000000	0.835777
3477.000000	0.835926
3476.000000	0.836061
3475.000000	0.836189
3474.000000	0.836323
3473.000000	0.836469
3472.000000	0.836621
3471.000000	0.836769
3470.000000	0.836906
3469.000000	0.837034
3468.000000	0.837161
3467.000000	0.837298
3466.000000	0.837447
3465.000000	0.837603
3464.000000	0.837755
3463.000000	0.837894
3462.000000	0.838022
3461.000000	0.838150
3460.000000	0.838281
3459.000000	0.838416
3458.000000	0.838548
3457.000000	0.838676
3456.000000	0.838806
3455.000000	0.838944
3454.000000	0.839086
3453.000000	0.839222
3452.000000	0.839346
3451.000000	0.839460
3450.000000	0.839574
3449.000000	0.839694
3448.000000	0.839822
3447.000000	0.839956
3446.000000	0.840087
3445.000000	0.840211
3444.000000	0.840328
3443.000000	0.840443
3442.000000	0.840565
3441.000000	0.840693
3440.000000	0.840814
3439.000000	0.840918
3438.000000	0.841006
3437.000000	0.841092
3436.000000	0.841184
3435.000000	0.841283
3434.000000	0.841389
3433.000000	0.841499
3432.000000	0.841614
3431.000000	0.841728
3430.000000	0.841843
3429.000000	0.841963
3428.000000	0.842092
3427.000000	0.842221
3426.000000	0.842334
3425.000000	0.842429
3424.000000	0.842516
3423.000000	0.842607
3422.000000	0.842702
3421.000000	0.842791
3420.000000	0.842873
3419.000000	0.842954
3418.000000	0.843035
3417.000000	0.843109
3416.000000	0.843168
3415.000000	0.843214
3414.000000	0.843262
3413.000000	0.843328
3412.000000	0.843415
3411.000000	0.843515
3410.000000	0.843615
3409.000000	0.843706
3408.000000	0.843787
3407.000000	0.843862
3406.000000	0.843927
3405.000000	0.843976
3404.000000	0.844006
3403.000000	0.844021
3402.000000	0.844039
3401.000000	0.844073
3400.000000	0.844129
3399.000000	0.844198
3398.000000	0.844266
3397.000000	0.844322
3396.000000	0.844363
3395.000000	0.844397
3394.000000	0.844436
3393.000000	0.844484
3392.000000	0.844536
3391.000000	0.844582
3390.000000	0.844620
3389.000000	0.844656
3388.000000	0.844698
3387.000000	0.844750
3386.000000	0.844803
3385.000000	0.844846
3384.000000	0.844876
3383.000000	0.844898
3382.000000	0.844922
3381.000000	0.844946
3380.000000	0.844966
3379.000000	0.844979
3378.000000	0.844986
3377.000000	0.844995
3376.000000	0.845015
3375.000000	0.845052
3374.000000	0.845104
3373.000000	0.845161
3372.000000	0.845207
3371.000000	0.845234
3370.000000	0.845243
3369.000000	0.845245
3368.000000	0.845251
3367.000000	0.845271
3366.000000	0.845309
3365.000000	0.845358
3364.000000	0.845406
3363.000000	0.845437
3362.000000	0.845445
3361.000000	0.845437
3360.000000	0.845422
3359.000000	0.845408
3358.000000	0.845405
3357.000000	0.845422
3356.000000	0.845466
3355.000000	0.845531
3354.000000	0.845598
3353.000000	0.845649
3352.000000	0.845679
3351.000000	0.845697
3350.000000	0.845717
3349.000000	0.845742
3348.000000	0.845770
3347.000000	0.845797
3346.000000	0.845823
3345.000000	0.845847
3344.000000	0.845860
3343.000000	0.845854
3342.000000	0.845837
3341.000000	0.845827
3340.000000	0.845833
3339.000000	0.845856
3338.000000	0.845883
3337.000000	0.845907
3336.000000	0.845925
3335.000000	0.845935
3334.000000	0.845938
3333.000000	0.845940
3332.000000	0.845952
3331.000000	0.845979
3330.000000	0.846020
3329.000000	0.846065
3328.000000	0.846106
3327.000000	0.846142
3326.000000	0.846175
3325.000000	0.846203
3324.000000	0.846223
3323.000000	0.846229
3322.000000	0.846227
3321.000000	0.846229
3320.000000	0.846245
3319.000000	0.846270
3318.000000	0.846293
3317.000000	0.846312
3316.000000	0.846337
3315.000000	0.846379
3314.000000	0.846432
3313.000000	0.846485
3312.000000	0.846525
3311.000000	0.846549
3310.000000	0.846556
3309.000000	0.846554
3308.000000	0.846552
3307.000000	0.846561
3306.000000	0.846588
3305.000000	0.846628
3304.000000	0.846676
3303.000000	0.846724
3302.000000	0.846763
3301.000000	0.846787
3300.000000	0.846798
3299.000000	0.846806
3298.000000	0.846822
3297.000000	0.846850
3296.000000	0.846881
3295.000000	0.846912
3294.000000	0.846941
3293.000000	0.846969
3292.000000	0.846996
3291.000000	0.847018
3290.000000	0.847036
3289.000000	0.847051
3288.000000	0.847063
3287.000000	0.847076
3286.000000	0.847094
3285.000000	0.847119
3284.000000	0.847150
3283.000000	0.847181
3282.000000	0.847210
3281.000000	0.847236
3280.000000	0.847259
3279.000000	0.847280
3278.000000	0.847301
3277.000000	0.847325
3276.000000	0.847349
3275.000000	0.847368
3274.000000	0.847379
3273.000000	0.847388
3272.000000	0.847405
3271.000000	0.847431
3270.000000	0.847460
3269.000000	0.847488
3268.000000	0.847512
3267.000000	0.847534
3266.000000	0.847556
3265.000000	0.847576
3264.000000	0.847595
3263.000000	0.847613
3262.000000	0.847632
3261.000000	0.847651
3260.000000	0.847667
3259.000000	0.847680
3258.000000	0.847691
3257.000000	0.847699
3256.000000	0.847709
3255.000000	0.847728
3254.000000	0.847764
3253.000000	0.847811
3252.000000	0.847855
3251.000000	0.847884
3250.000000	0.847894
3249.000000	0.847896
3248.000000	0.847897
3247.000000	0.847898
3246.000000	0.847897
3245.000000	0.847899
3244.000000	0.847912
3243.000000	0.847937
3242.000000	0.847967
3241.000000	0.847995
3240.000000	0.848021
3239.000000	0.848047
3238.000000	0.848069
3237.000000	0.848078
3236.000000	0.848069
3235.000000	0.848050
3234.000000	0.848031
3233.000000	0.848023
3232.000000	0.848034
3231.000000	0.848061
3230.000000	0.848099
3229.000000	0.848142
3228.000000	0.848188
3227.000000	0.848238
3226.000000	0.848289
3225.000000	0.848334
3224.000000	0.848367
3223.000000	0.848392
3222.000000	0.848410
3221.000000	0.848422
3220.000000	0.848422
3219.000000	0.848411
3218.000000	0.848398
3217.000000	0.848394
3216.000000	0.848407
3215.000000	0.848430
3214.000000	0.848453
3213.000000	0.848468
3212.000000	0.848478
3211.000000	0.848490
3210.000000	0.848506
3209.000000	0.848522
3208.000000	0.848538
3207.000000	0.848560
3206.000000	0.848589
3205.000000	0.848618
3204.000000	0.848634
3203.000000	0.848640
3202.000000	0.848652
3201.000000	0.848680
3200.000000	0.848715
3199.000000	0.848741
3198.000000	0.848747
3197.000000	0.848741
3196.000000	0.848735
3195.000000	0.848737
3194.000000	0.848752
3193.000000	0.848775
3192.000000	0.848801
3191.000000	0.848823
3190.000000	0.848840
3189.000000	0.848853
3188.000000	0.848859
3187.000000	0.848853
3186.000000	0.848840
3185.000000	0.848834
3184.000000	0.848852
3183.000000	0.848894
3182.000000	0.848945
3181.000000	0.848989
3180.000000	0.849019
3179.000000	0.849038
3178.000000	0.849054
3177.000000	0.849064
3176.000000	0.849061
3175.000000	0.849042
3174.000000	0.849018
3173.000000	0.849005
3172.000000	0.849019
3171.000000	0.849061
3170.000000	0.849119
3169.000000	0.849176
3168.000000	0.849216
3167.000000	0.849232
3166.000000	0.849227
3165.000000	0.849215
3164.000000	0.849217
3163.000000	0.849241
3162.000000	0.849275
3161.000000	0.849297
3160.000000	0.849295
3159.000000	0.849280
3158.000000	0.849275
3157.000000	0.849287
3156.000000	0.849310
3155.000000	0.849331
3154.000000	0.849342
3153.000000	0.849349
3152.000000	0.849361
3151.000000	0.849384
3150.000000	0.849413
3149.000000	0.849441
3148.000000	0.849459
3147.000000	0.849472
3146.000000	0.849490
3145.000000	0.849519
3144.000000	0.849548
3143.000000	0.849560
3142.000000	0.849547
3141.000000	0.849515
3140.000000	0.849482
3139.000000	0.849461
3138.000000	0.849458
3137.000000	0.849471
3136.000000	0.849499
3135.000000	0.849539
3134.000000	0.849588
3133.000000	0.849634
3132.000000	0.849660
3131.000000	0.849659
3130.000000	0.849647
3129.000000	0.849651
3128.000000	0.849687
3127.000000	0.849745
3126.000000	0.849795
3125.000000	0.849823
3124.000000	0.849828
3123.000000	0.849820
3122.000000	0.849810
3121.000000	0.849805
3120.000000	0.849818
3119.000000	0.849852
3118.000000	0.849895
3117.000000	0.849932
3116.000000	0.849953
3115.000000	0.849969
3114.000000	0.849989
3113.000000	0.850016
3112.000000	0.850043
3111.000000	0.850061
3110.000000	0.850074
3109.000000	0.850087
3108.000000	0.850108
3107.000000	0.850132
3106.000000	0.850149
3105.000000	0.850150
3104.000000	0.850136
3103.000000	0.850120
3102.000000	0.850117
3101.000000	0.850132
3100.000000	0.850160
3099.000000	0.850185
3098.000000	0.850201
3097.000000	0.850211
3096.000000	0.850219
3095.000000	0.850227
3094.000000	0.850228
3093.000000	0.850219
3092.000000	0.850200
3091.000000	0.850180
3090.000000	0.850168
3089.000000	0.850169
3088.000000	0.850181
3087.000000	0.850191
3086.000000	0.850192
3085.000000	0.850184
3084.000000	0.850171
3083.000000	0.850157
3082.000000	0.850144
3081.000000	0.850136
3080.000000	0.850138
3079.000000	0.850151
3078.000000	0.850169
3077.000000	0.850185
3076.000000	0.850194
3075.000000	0.850191
3074.000000	0.850177
3073.000000	0.850159
3072.000000	0.850144
3071.000000	0.850133
3070.000000	0.850118
3069.000000	0.850096
3068.000000	0.850071
3067.000000	0.850058
3066.000000	0.850062
3065.000000	0.850078
3064.000000	0.850089
3063.000000	0.850079
3062.000000	0.850046
3061.000000	0.850011
3060.000000	0.849994
3059.000000	0.850005
3058.000000	0.850031
3057.000000	0.850048
3056.000000	0.850041
3055.000000	0.850008
3054.000000	0.849960
3053.000000	0.849915
3052.000000	0.849884
3051.000000	0.849867
3050.000000	0.849860
3049.000000	0.849859
3048.000000	0.849869
3047.000000	0.849886
3046.000000	0.849894
3045.000000	0.849881
3044.000000	0.849847
3043.000000	0.849807
3042.000000	0.849769
3041.000000	0.849735
3040.000000	0.849705
3039.000000	0.849682
3038.000000	0.849667
3037.000000	0.849657
3036.000000	0.849645
3035.000000	0.849629
3034.000000	0.849615
3033.000000	0.849610
3032.000000	0.849618
3031.000000	0.849634
3030.000000	0.849646
3029.000000	0.849641
3028.000000	0.849615
3027.000000	0.849574
3026.000000	0.849538
3025.000000	0.849521
3024.000000	0.849519
3023.000000	0.849516
3022.000000	0.849496
3021.000000	0.849463
3020.000000	0.849431
3019.000000	0.849406
3018.000000	0.849379
3017.000000	0.849341
3016.000000	0.849294
3015.000000	0.849250
3014.000000	0.849219
3013.000000	0.849195
3012.000000	0.849167
3011.000000	0.849131
3010.000000	0.849094
3009.000000	0.849065
3008.000000	0.849048
3007.000000	0.849039
3006.000000	0.849026
3005.000000	0.849002
3004.000000	0.848968
3003.000000	0.848926
3002.000000	0.848876
3001.000000	0.848815
3000.000000	0.848750
2999.000000	0.848697
2998.000000	0.848665
2997.000000	0.848648
2996.000000	0.848631
2995.000000	0.848601
2994.000000	0.848557
2993.000000	0.848507
2992.000000	0.848464
2991.000000	0.848435
2990.000000	0.848421
2989.000000	0.848413
2988.000000	0.848396
2987.000000	0.848361
2986.000000	0.848312
2985.000000	0.848260
2984.000000	0.848220
2983.000000	0.848200
2982.000000	0.848201
2981.000000	0.848209
2980.000000	0.848210
2979.000000	0.848196
2978.000000	0.848172
2977.000000	0.848148
2976.000000	0.848131
2975.000000	0.848117
2974.000000	0.848102
2973.000000	0.848081
2972.000000	0.848057
2971.000000	0.848036
2970.000000	0.848026
2969.000000	0.848028
2968.000000	0.848034
2967.000000	0.848028
2966.000000	0.848002
2965.000000	0.847959
2964.000000	0.847912
2963.000000	0.847866
2962.000000	0.847817
2961.000000	0.847766
2960.000000	0.847719
2959.000000	0.847685
2958.000000	0.847659
2957.000000	0.847632
2956.000000	0.847595
2955.000000	0.847548
2954.000000	0.847494
2953.000000	0.847439
2952.000000	0.847389
2951.000000	0.847347
2950.000000	0.847313
2949.000000	0.847278
2948.000000	0.847243
2947.000000	0.847214
2946.000000	0.847198
2945.000000	0.847193
2944.000000	0.847190
2943.000000	0.847180
2942.000000	0.847160
2941.000000	0.847131
2940.000000	0.847091
2939.000000	0.847041
2938.000000	0.846983
2937.000000	0.846926
2936.000000	0.846884
2935.000000	0.846860
2934.000000	0.846849
2933.000000	0.846838
2932.000000	0.846817
2931.000000	0.846778
2930.000000	0.846724
2929.000000	0.846663
2928.000000	0.846602
2927.000000	0.846548
2926.000000	0.846502
2925.000000	0.846459
2924.000000	0.846414
2923.000000	0.846364
2922.000000	0.846306
2921.000000	0.846244
2920.000000	0.846183
2919.000000	0.846122
2918.000000	0.846057
2917.000000	0.845989
2916.000000	0.845923
2915.000000	0.845866
2914.000000	0.845820
2913.000000	0.845783
2912.000000	0.845753
2911.000000	0.845727
2910.000000	0.845697
2909.000000	0.845658
2908.000000	0.845609
2907.000000	0.845557
2906.000000	0.845509
2905.000000	0.845465
2904.000000	0.845423
2903.000000	0.845380
2902.000000	0.845335
2901.000000	0.845289
2900.000000	0.845243
2899.000000	0.845197
2898.000000	0.845148
2897.000000	0.845097
2896.000000	0.845048
2895.000000	0.845006
2894.000000	0.844971
2893.000000	0.844936
2892.000000	0.844896
2891.000000	0.844853
2890.000000	0.844817
2889.000000	0.844791
2888.000000	0.844768
2887.000000	0.844736
2886.000000	0.844687
2885.000000	0.844618
2884.000000	0.844536
2883.000000	0.844454
2882.000000	0.844390
2881.000000	0.844350
2880.000000	0.844324
2879.000000	0.844291
2878.000000	0.844241
2877.000000	0.844181
2876.000000	0.844126
2875.000000	0.844084
2874.000000	0.844046
2873.000000	0.844006
2872.000000	0.843966
2871.000000	0.843931
2870.000000	0.843894
2869.000000	0.843845
2868.000000	0.843787
2867.000000	0.843740
2866.000000	0.843718
2865.000000	0.843715
2864.000000	0.843706
2863.000000	0.843672
2862.000000	0.843612
2861.000000	0.843538
2860.000000	0.843469
2859.000000	0.843410
2858.000000	0.843359
2857.000000	0.843307
2856.000000	0.843252
2855.000000	0.843201
2854.000000	0.843158
2853.000000	0.843121
2852.000000	0.843087
2851.000000	0.843057
2850.000000	0.843032
2849.000000	0.843011
2848.000000	0.842988
2847.000000	0.842954
2846.000000	0.842909
2845.000000	0.842856
2844.000000	0.842803
2843.000000	0.842761
2842.000000	0.842737
2841.000000	0.842725
2840.000000	0.842708
2839.000000	0.842679
2838.000000	0.842651
2837.000000	0.842636
2836.000000	0.842635
2835.000000	0.842635
2834.000000	0.842623
2833.000000	0.842597
2832.000000	0.842561
2831.000000	0.842523
2830.000000	0.842484
2829.000000	0.842444
2828.000000	0.842397
2827.000000	0.842345
2826.000000	0.842292
2825.000000	0.842251
2824.000000	0.842227
2823.000000	0.842212
2822.000000	0.842187
2821.000000	0.842147
2820.000000	0.842102
2819.000000	0.842067
2818.000000	0.842046
2817.000000	0.842026
2816.000000	0.841993
2815.000000	0.841949
2814.000000	0.841908
2813.000000	0.841879
2812.000000	0.841857
2811.000000	0.841828
2810.000000	0.841786
2809.000000	0.841737
2808.000000	0.841694
2807.000000	0.841667
2806.000000	0.841651
2805.000000	0.841634
2804.000000	0.841605
2803.000000	0.841567
2802.000000	0.841529
2801.000000	0.841497
2800.000000	0.841473
2799.000000	0.841459
2798.000000	0.841453
2797.000000	0.841450
2796.000000	0.841444
2795.000000	0.841432
2794.000000	0.841415
2793.000000	0.841387
2792.000000	0.841351
2791.000000	0.841312
2790.000000	0.841280
2789.000000	0.841256
2788.000000	0.841233
2787.000000	0.841207
2786.000000	0.841183
2785.000000	0.841167
2784.000000	0.841155
2783.000000	0.841139
2782.000000	0.841118
2781.000000	0.841101
2780.000000	0.841092
2779.000000	0.841082
2778.000000	0.841057
2777.000000	0.841015
2776.000000	0.840969
2775.000000	0.840932
2774.000000	0.840912
2773.000000	0.840904
2772.000000	0.840898
2771.000000	0.840889
2770.000000	0.840877
2769.000000	0.840865
2768.000000	0.840854
2767.000000	0.840846
2766.000000	0.840840
2765.000000	0.840832
2764.000000	0.840819
2763.000000	0.840797
2762.000000	0.840769
2761.000000	0.840745
2760.000000	0.840728
2759.000000	0.840718
2758.000000	0.840713
2757.000000	0.840710
2756.000000	0.840703
2755.000000	0.840689
2754.000000	0.840667
2753.000000	0.840644
2752.000000	0.840626
2751.000000	0.840617
2750.000000	0.840615
2749.000000	0.840615
2748.000000	0.840611
2747.000000	0.840596
2746.000000	0.840572
2745.000000	0.840544
2744.000000	0.840520
2743.000000	0.840506
2742.000000	0.840500
2741.000000	0.840495
2740.000000	0.840485
2739.000000	0.840469
2738.000000	0.840452
2737.000000	0.840446
2736.000000	0.840456
2735.000000	0.840475
2734.000000	0.840492
2733.000000	0.840500
2732.000000	0.840500
2731.000000	0.840494
2730.000000	0.840485
2729.000000	0.840474
2728.000000	0.840460
2727.000000	0.840442
2726.000000	0.840415
2725.000000	0.840380
2724.000000	0.840345
2723.000000	0.840322
2722.000000	0.840314
2721.000000	0.840318
2720.000000	0.840326
2719.000000	0.840327
2718.000000	0.840320
2717.000000	0.840307
2716.000000	0.840294
2715.000000	0.840284
2714.000000	0.840276
2713.000000	0.840270
2712.000000	0.840267
2711.000000	0.840268
2710.000000	0.840271
2709.000000	0.840271
2708.000000	0.840271
2707.000000	0.840273
2706.000000	0.840276
2705.000000	0.840277
2704.000000	0.840272
2703.000000	0.840265
2702.000000	0.840262
2701.000000	0.840266
2700.000000	0.840274
2699.000000	0.840274
2698.000000	0.840260
2697.000000	0.840239
2696.000000	0.840225
2695.000000	0.840227
2694.000000	0.840241
2693.000000	0.840255
2692.000000	0.840263
2691.000000	0.840264
2690.000000	0.840262
2689.000000	0.840260
2688.000000	0.840258
2687.000000	0.840261
2686.000000	0.840270
2685.000000	0.840282
2684.000000	0.840291
2683.000000	0.840291
2682.000000	0.840288
2681.000000	0.840288
2680.000000	0.840296
2679.000000	0.840311
2678.000000	0.840325
2677.000000	0.840333
2676.000000	0.840334
2675.000000	0.840334
2674.000000	0.840338
2673.000000	0.840344
2672.000000	0.840351
2671.000000	0.840354
2670.000000	0.840351
2669.000000	0.840343
2668.000000	0.840335
2667.000000	0.840336
2666.000000	0.840349
2665.000000	0.840365
2664.000000	0.840378
2663.000000	0.840385
2662.000000	0.840394
2661.000000	0.840410
2660.000000	0.840431
2659.000000	0.840447
2658.000000	0.840452
2657.000000	0.840449
2656.000000	0.840452
2655.000000	0.840470
2654.000000	0.840501
2653.000000	0.840531
2652.000000	0.840551
2651.000000	0.840564
2650.000000	0.840579
2649.000000	0.840595
2648.000000	0.840609
2647.000000	0.840621
2646.000000	0.840639
2645.000000	0.840667
2644.000000	0.840702
2643.000000	0.840734
2642.000000	0.840757
2641.000000	0.840770
2640.000000	0.840779
2639.000000	0.840786
2638.000000	0.840792
2637.000000	0.840798
2636.000000	0.840805
2635.000000	0.840817
2634.000000	0.840837
2633.000000	0.840861
2632.000000	0.840881
2631.000000	0.840892
2630.000000	0.840896
2629.000000	0.840903
2628.000000	0.840919
2627.000000	0.840943
2626.000000	0.840968
2625.000000	0.840987
2624.000000	0.840998
2623.000000	0.841012
2622.000000	0.841037
2621.000000	0.841069
2620.000000	0.841100
2619.000000	0.841121
2618.000000	0.841129
2617.000000	0.841126
2616.000000	0.841118
2615.000000	0.841114
2614.000000	0.841124
2613.000000	0.841147
2612.000000	0.841177
2611.000000	0.841204
2610.000000	0.841226
2609.000000	0.841247
2608.000000	0.841270
2607.000000	0.841294
2606.000000	0.841320
2605.000000	0.841344
2604.000000	0.841362
2603.000000	0.841371
2602.000000	0.841374
2601.000000	0.841377
2600.000000	0.841381
2599.000000	0.841388
2598.000000	0.841400
2597.000000	0.841415
2596.000000	0.841428
2595.000000	0.841435
2594.000000	0.841443
2593.000000	0.841463
2592.000000	0.841500
2591.000000	0.841542
2590.000000	0.841579
2589.000000	0.841605
2588.000000	0.841627
2587.000000	0.841652
2586.000000	0.841679
2585.000000	0.841700
2584.000000	0.841706
2583.000000	0.841695
2582.000000	0.841675
2581.000000	0.841661
2580.000000	0.841669
2579.000000	0.841700
2578.000000	0.841744
2577.000000	0.841783
2576.000000	0.841806
2575.000000	0.841817
2574.000000	0.841827
2573.000000	0.841844
2572.000000	0.841865
2571.000000	0.841884
2570.000000	0.841898
2569.000000	0.841913
2568.000000	0.841934
2567.000000	0.841959
2566.000000	0.841981
2565.000000	0.841998
2564.000000	0.842014
2563.000000	0.842035
2562.000000	0.842060
2561.000000	0.842084
2560.000000	0.842108
2559.000000	0.842137
2558.000000	0.842173
2557.000000	0.842211
2556.000000	0.842241
2555.000000	0.842261
2554.000000	0.842284
2553.000000	0.842320
2552.000000	0.842368
2551.000000	0.842417
2550.000000	0.842452
2549.000000	0.842473
2548.000000	0.842487
2547.000000	0.842498
2546.000000	0.842508
2545.000000	0.842516
2544.000000	0.842529
2543.000000	0.842548
2542.000000	0.842571
2541.000000	0.842584
2540.000000	0.842586
2539.000000	0.842589
2538.000000	0.842609
2537.000000	0.842646
2536.000000	0.842689
2535.000000	0.842730
2534.000000	0.842770
2533.000000	0.842815
2532.000000	0.842854
2531.000000	0.842879
2530.000000	0.842887
2529.000000	0.842891
2528.000000	0.842902
2527.000000	0.842920
2526.000000	0.842942
2525.000000	0.842962
2524.000000	0.842983
2523.000000	0.843000
2522.000000	0.843011
2521.000000	0.843017
2520.000000	0.843029
2519.000000	0.843061
2518.000000	0.843109
2517.000000	0.843153
2516.000000	0.843177
2515.000000	0.843182
2514.000000	0.843188
2513.000000	0.843209
2512.000000	0.843241
2511.000000	0.843272
2510.000000	0.843296
2509.000000	0.843319
2508.000000	0.843350
2507.000000	0.843384
2506.000000	0.843410
2505.000000	0.843419
2504.000000	0.843415
2503.000000	0.843411
2502.000000	0.843421
2501.000000	0.843450
2500.000000	0.843493
2499.000000	0.843543
2498.000000	0.843591
2497.000000	0.843631
2496.000000	0.843657
2495.000000	0.843672
2494.000000	0.843683
2493.000000	0.843695
2492.000000	0.843704
2491.000000	0.843709
2490.000000	0.843716
2489.000000	0.843736
2488.000000	0.843771
2487.000000	0.843809
2486.000000	0.843838
2485.000000	0.843863
2484.000000	0.843891
2483.000000	0.843919
2482.000000	0.843937
2481.000000	0.843940
2480.000000	0.843939
2479.000000	0.843948
2478.000000	0.843973
2477.000000	0.844006
2476.000000	0.844042
2475.000000	0.844078
2474.000000	0.844112
2473.000000	0.844138
2472.000000	0.844154
2471.000000	0.844167
2470.000000	0.844188
2469.000000	0.844220
2468.000000	0.844259
2467.000000	0.844304
2466.000000	0.844353
2465.000000	0.844400
2464.000000	0.844437
2463.000000	0.844462
2462.000000	0.844480
2461.000000	0.844498
2460.000000	0.844517
2459.000000	0.844536
2458.000000	0.844553
2457.000000	0.844567
2456.000000	0.844574
2455.000000	0.844578
2454.000000	0.844587
2453.000000	0.844609
2452.000000	0.844638
2451.000000	0.844662
2450.000000	0.844675
2449.000000	0.844681
2448.000000	0.844685
2447.000000	0.844688
2446.000000	0.844693
2445.000000	0.844700
2444.000000	0.844705
2443.000000	0.844706
2442.000000	0.844696
2441.000000	0.844676
2440.000000	0.844653
2439.000000	0.844634
2438.000000	0.844628
2437.000000	0.844631
2436.000000	0.844636
2435.000000	0.844638
2434.000000	0.844635
2433.000000	0.844629
2432.000000	0.844624
2431.000000	0.844621
2430.000000	0.844623
2429.000000	0.844630
2428.000000	0.844637
2427.000000	0.844634
2426.000000	0.844617
2425.000000	0.844585
2424.000000	0.844547
2423.000000	0.844516
2422.000000	0.844501
2421.000000	0.844498
2420.000000	0.844495
2419.000000	0.844485
2418.000000	0.844472
2417.000000	0.844464
2416.000000	0.844459
2415.000000	0.844449
2414.000000	0.844429
2413.000000	0.844402
2412.000000	0.844373
2411.000000	0.844345
2410.000000	0.844320
2409.000000	0.844302
2408.000000	0.844289
2407.000000	0.844273
2406.000000	0.844248
2405.000000	0.844221
2404.000000	0.844199
2403.000000	0.844186
2402.000000	0.844177
2401.000000	0.844164
2400.000000	0.844148
2399.000000	0.844132
2398.000000	0.844118
2397.000000	0.844106
2396.000000	0.844096
2395.000000	0.844092
2394.000000	0.844095
2393.000000	0.844102
2392.000000	0.844105
2391.000000	0.844097
2390.000000	0.844078
2389.000000	0.844052
2388.000000	0.844027
2387.000000	0.844008
2386.000000	0.844004
2385.000000	0.844011
2384.000000	0.844020
2383.000000	0.844020
2382.000000	0.844013
2381.000000	0.844012
2380.000000	0.844026
2379.000000	0.844052
2378.000000	0.844078
2377.000000	0.844097
2376.000000	0.844112
2375.000000	0.844126
2374.000000	0.844140
2373.000000	0.844155
2372.000000	0.844176
2371.000000	0.844207
2370.000000	0.844247
2369.000000	0.844291
2368.000000	0.844330
2367.000000	0.844364
2366.000000	0.844394
2365.000000	0.844414
2364.000000	0.844420
2363.000000	0.844417
2362.000000	0.844416
2361.000000	0.844427
2360.000000	0.844445
2359.000000	0.844452
2358.000000	0.844437
2357.000000	0.844399
2356.000000	0.844356
2355.000000	0.844321
2354.000000	0.844295
2353.000000	0.844267
2352.000000	0.844238
2351.000000	0.844235
2350.000000	0.844296
2349.000000	0.844440
2348.000000	0.844664
2347.000000	0.844958
2346.000000	0.845325
2345.000000	0.845778
2344.000000	0.846319
2343.000000	0.846927
2342.000000	0.847553
2341.000000	0.848113
2340.000000	0.848497
2339.000000	0.848613
2338.000000	0.848435
2337.000000	0.848028
2336.000000	0.847506
2335.000000	0.846984
2334.000000	0.846535
2333.000000	0.846189
2332.000000	0.845937
2331.000000	0.845755
2330.000000	0.845618
2329.000000	0.845516
2328.000000	0.845443
2327.000000	0.845391
2326.000000	0.845356
2325.000000	0.845331
2324.000000	0.845309
2323.000000	0.845284
2322.000000	0.845253
2321.000000	0.845226
2320.000000	0.845213
2319.000000	0.845214
2318.000000	0.845221
2317.000000	0.845221
2316.000000	0.845206
2315.000000	0.845179
2314.000000	0.845151
2313.000000	0.845136
2312.000000	0.845139
2311.000000	0.845152
2310.000000	0.845165
2309.000000	0.845174
2308.000000	0.845180
2307.000000	0.845186
2306.000000	0.845189
2305.000000	0.845190
2304.000000	0.845188
2303.000000	0.845188
2302.000000	0.845194
2301.000000	0.845209
2300.000000	0.845233
2299.000000	0.845255
2298.000000	0.845265
2297.000000	0.845262
2296.000000	0.845258
2295.000000	0.845264
2294.000000	0.845278
2293.000000	0.845294
2292.000000	0.845305
2291.000000	0.845314
2290.000000	0.845322
2289.000000	0.845332
2288.000000	0.845347
2287.000000	0.845365
2286.000000	0.845383
2285.000000	0.845396
2284.000000	0.845405
2283.000000	0.845416
2282.000000	0.845434
2281.000000	0.845463
2280.000000	0.845501
2279.000000	0.845548
2278.000000	0.845601
2277.000000	0.845655
2276.000000	0.845697
2275.000000	0.845717
2274.000000	0.845718
2273.000000	0.845712
2272.000000	0.845711
2271.000000	0.845713
2270.000000	0.845712
2269.000000	0.845708
2268.000000	0.845709
2267.000000	0.845716
2266.000000	0.845724
2265.000000	0.845728
2264.000000	0.845731
2263.000000	0.845741
2262.000000	0.845757
2261.000000	0.845772
2260.000000	0.845785
2259.000000	0.845797
2258.000000	0.845809
2257.000000	0.845819
2256.000000	0.845822
2255.000000	0.845821
2254.000000	0.845820
2253.000000	0.845827
2252.000000	0.845845
2251.000000	0.845874
2250.000000	0.845903
2249.000000	0.845920
2248.000000	0.845924
2247.000000	0.845920
2246.000000	0.845917
2245.000000	0.845919
2244.000000	0.845925
2243.000000	0.845938
2242.000000	0.845957
2241.000000	0.845981
2240.000000	0.846002
2239.000000	0.846018
2238.000000	0.846028
2237.000000	0.846031
2236.000000	0.846027
2235.000000	0.846022
2234.000000	0.846024
2233.000000	0.846031
2232.000000	0.846034
2231.000000	0.846029
2230.000000	0.846021
2229.000000	0.846016
2228.000000	0.846017
2227.000000	0.846021
2226.000000	0.846031
2225.000000	0.846045
2224.000000	0.846061
2223.000000	0.846067
2222.000000	0.846058
2221.000000	0.846043
2220.000000	0.846035
2219.000000	0.846038
2218.000000	0.846045
2217.000000	0.846041
2216.000000	0.846022
2215.000000	0.845997
2214.000000	0.845981
2213.000000	0.845985
2212.000000	0.846004
2211.000000	0.846025
2210.000000	0.846031
2209.000000	0.846017
2208.000000	0.845986
2207.000000	0.845954
2206.000000	0.845935
2205.000000	0.845935
2204.000000	0.845944
2203.000000	0.845944
2202.000000	0.845925
2201.000000	0.845892
2200.000000	0.845858
2199.000000	0.845834
2198.000000	0.845827
2197.000000	0.845830
2196.000000	0.845834
2195.000000	0.845831
2194.000000	0.845817
2193.000000	0.845796
2192.000000	0.845780
2191.000000	0.845774
2190.000000	0.845774
2189.000000	0.845770
2188.000000	0.845755
2187.000000	0.845732
2186.000000	0.845707
2185.000000	0.845686
2184.000000	0.845672
2183.000000	0.845663
2182.000000	0.845660
2181.000000	0.845658
2180.000000	0.845652
2179.000000	0.845638
2178.000000	0.845620
2177.000000	0.845598
2176.000000	0.845569
2175.000000	0.845536
2174.000000	0.845507
2173.000000	0.845490
2172.000000	0.845483
2171.000000	0.845478
2170.000000	0.845466
2169.000000	0.845446
2168.000000	0.845419
2167.000000	0.845385
2166.000000	0.845348
2165.000000	0.845312
2164.000000	0.845274
2163.000000	0.845228
2162.000000	0.845175
2161.000000	0.845124
2160.000000	0.845084
2159.000000	0.845060
2158.000000	0.845048
2157.000000	0.845039
2156.000000	0.845025
2155.000000	0.845006
2154.000000	0.844984
2153.000000	0.844960
2152.000000	0.844937
2151.000000	0.844915
2150.000000	0.844894
2149.000000	0.844874
2148.000000	0.844849
2147.000000	0.844810
2146.000000	0.844758
2145.000000	0.844706
2144.000000	0.844670
2143.000000	0.844649
2142.000000	0.844632
2141.000000	0.844604
2140.000000	0.844563
2139.000000	0.844516
2138.000000	0.844469
2137.000000	0.844426
2136.000000	0.844387
2135.000000	0.844353
2134.000000	0.844330
2133.000000	0.844325
2132.000000	0.844334
2131.000000	0.844340
2130.000000	0.844324
2129.000000	0.844278
2128.000000	0.844209
2127.000000	0.844135
2126.000000	0.844072
2125.000000	0.844024
2124.000000	0.843987
2123.000000	0.843956
2122.000000	0.843929
2121.000000	0.843908
2120.000000	0.843887
2119.000000	0.843855
2118.000000	0.843809
2117.000000	0.843755
2116.000000	0.843708
2115.000000	0.843666
2114.000000	0.843624
2113.000000	0.843581
2112.000000	0.843546
2111.000000	0.843523
2110.000000	0.843499
2109.000000	0.843464
2108.000000	0.843416
2107.000000	0.843360
2106.000000	0.843299
2105.000000	0.843238
2104.000000	0.843187
2103.000000	0.843156
2102.000000	0.843138
2101.000000	0.843117
2100.000000	0.843079
2099.000000	0.843030
2098.000000	0.842978
2097.000000	0.842929
2096.000000	0.842883
2095.000000	0.842847
2094.000000	0.842828
2093.000000	0.842826
2092.000000	0.842830
2091.000000	0.842830
2090.000000	0.842816
2089.000000	0.842786
2088.000000	0.842740
2087.000000	0.842687
2086.000000	0.842631
2085.000000	0.842576
2084.000000	0.842521
2083.000000	0.842468
2082.000000	0.842421
2081.000000	0.842378
2080.000000	0.842340
2079.000000	0.842308
2078.000000	0.842276
2077.000000	0.842238
2076.000000	0.842193
2075.000000	0.842150
2074.000000	0.842119
2073.000000	0.842090
2072.000000	0.842046
2071.000000	0.841979
2070.000000	0.841904
2069.000000	0.841841
2068.000000	0.841796
2067.000000	0.841763
2066.000000	0.841738
2065.000000	0.841712
2064.000000	0.841678
2063.000000	0.841636
2062.000000	0.841589
2061.000000	0.841547
2060.000000	0.841511
2059.000000	0.841478
2058.000000	0.841448
2057.000000	0.841418
2056.000000	0.841381
2055.000000	0.841333
2054.000000	0.841276
2053.000000	0.841220
2052.000000	0.841172
2051.000000	0.841135
2050.000000	0.841110
2049.000000	0.841094
2048.000000	0.841071
2047.000000	0.841022
2046.000000	0.840948
2045.000000	0.840873
2044.000000	0.840819
2043.000000	0.840785
2042.000000	0.840755
2041.000000	0.840725
2040.000000	0.840702
2039.000000	0.840689
2038.000000	0.840674
2037.000000	0.840644
2036.000000	0.840600
2035.000000	0.840550
2034.000000	0.840500
2033.000000	0.840446
2032.000000	0.840388
2031.000000	0.840333
2030.000000	0.840291
2029.000000	0.840262
2028.000000	0.840237
2027.000000	0.840210
2026.000000	0.840179
2025.000000	0.840146
2024.000000	0.840110
2023.000000	0.840074
2022.000000	0.840046
2021.000000	0.840028
2020.000000	0.840012
2019.000000	0.839982
2018.000000	0.839932
2017.000000	0.839876
2016.000000	0.839829
2015.000000	0.839798
2014.000000	0.839772
2013.000000	0.839739
2012.000000	0.839694
2011.000000	0.839644
2010.000000	0.839597
2009.000000	0.839557
2008.000000	0.839523
2007.000000	0.839489
2006.000000	0.839449
2005.000000	0.839404
2004.000000	0.839362
2003.000000	0.839330
2002.000000	0.839309
2001.000000	0.839294
2000.000000	0.839276
1999.000000	0.839252
1998.000000	0.839223
1997.000000	0.839190
1996.000000	0.839155
1995.000000	0.839115
1994.000000	0.839070
1993.000000	0.839024
1992.000000	0.838983
1991.000000	0.838954
1990.000000	0.838936
1989.000000	0.838922
1988.000000	0.838904
1987.000000	0.838881
1986.000000	0.838855
1985.000000	0.838833
1984.000000	0.838815
1983.000000	0.838798
1982.000000	0.838777
1981.000000	0.838755
1980.000000	0.838733
1979.000000	0.838711
1978.000000	0.838691
1977.000000	0.838674
1976.000000	0.838659
1975.000000	0.838638
1974.000000	0.838606
1973.000000	0.838568
1972.000000	0.838535
1971.000000	0.838513
1970.000000	0.838498
1969.000000	0.838481
1968.000000	0.838459
1967.000000	0.838432
1966.000000	0.838405
1965.000000	0.838380
1964.000000	0.838354
1963.000000	0.838330
1962.000000	0.838313
1961.000000	0.838304
1960.000000	0.838295
1959.000000	0.838277
1958.000000	0.838251
1957.000000	0.838229
1956.000000	0.838214
1955.000000	0.838200
1954.000000	0.838186
1953.000000	0.838180
1952.000000	0.838192
1951.000000	0.838211
1950.000000	0.838219
1949.000000	0.838205
1948.000000	0.838177
1947.000000	0.838150
1946.000000	0.838131
1945.000000	0.838119
1944.000000	0.838105
1943.000000	0.838090
1942.000000	0.838079
1941.000000	0.838073
1940.000000	0.838068
1939.000000	0.838053
1938.000000	0.838024
1937.000000	0.837986
1936.000000	0.837956
1935.000000	0.837943
1934.000000	0.837951
1933.000000	0.837968
1932.000000	0.837979
1931.000000	0.837975
1930.000000	0.837960
1929.000000	0.837946
1928.000000	0.837938
1927.000000	0.837928
1926.000000	0.837908
1925.000000	0.837883
1924.000000	0.837868
1923.000000	0.837874
1922.000000	0.837893
1921.000000	0.837909
1920.000000	0.837911
1919.000000	0.837903
1918.000000	0.837899
1917.000000	0.837910
1916.000000	0.837933
1915.000000	0.837950
1914.000000	0.837952
1913.000000	0.837946
1912.000000	0.837941
1911.000000	0.837943
1910.000000	0.837945
1909.000000	0.837946
1908.000000	0.837945
1907.000000	0.837943
1906.000000	0.837941
1905.000000	0.837943
1904.000000	0.837952
1903.000000	0.837963
1902.000000	0.837966
1901.000000	0.837959
1900.000000	0.837951
1899.000000	0.837957
1898.000000	0.837980
1897.000000	0.838014
1896.000000	0.838044
1895.000000	0.838056
1894.000000	0.838050
1893.000000	0.838033
1892.000000	0.838011
1891.000000	0.837994
1890.000000	0.837987
1889.000000	0.837994
1888.000000	0.838008
1887.000000	0.838015
1886.000000	0.838008
1885.000000	0.837999
1884.000000	0.838002
1883.000000	0.838017
1882.000000	0.838032
1881.000000	0.838038
1880.000000	0.838038
1879.000000	0.838042
1878.000000	0.838051
1877.000000	0.838057
1876.000000	0.838056
1875.000000	0.838050
1874.000000	0.838044
1873.000000	0.838039
1872.000000	0.838032
1871.000000	0.838020
1870.000000	0.838005
1869.000000	0.837996
1868.000000	0.838006
1867.000000	0.838033
1866.000000	0.838065
1865.000000	0.838090
1864.000000	0.838102
1863.000000	0.838109
1862.000000	0.838120
1861.000000	0.838141
1860.000000	0.838165
1859.000000	0.838181
1858.000000	0.838179
1857.000000	0.838164
1856.000000	0.838152
1855.000000	0.838153
1854.000000	0.838167
1853.000000	0.838190
1852.000000	0.838214
1851.000000	0.838232
1850.000000	0.838240
1849.000000	0.838242
1848.000000	0.838242
1847.000000	0.838236
1846.000000	0.838215
1845.000000	0.838185
1844.000000	0.838171
1843.000000	0.838194
1842.000000	0.838252
1841.000000	0.838314
1840.000000	0.838352
1839.000000	0.838361
1838.000000	0.838363
1837.000000	0.838378
1836.000000	0.838409
1835.000000	0.838443
1834.000000	0.838464
1833.000000	0.838463
1832.000000	0.838448
1831.000000	0.838431
1830.000000	0.838425
1829.000000	0.838435
1828.000000	0.838459
1827.000000	0.838491
1826.000000	0.838526
1825.000000	0.838566
1824.000000	0.838614
1823.000000	0.838669
1822.000000	0.838723
1821.000000	0.838765
1820.000000	0.838790
1819.000000	0.838798
1818.000000	0.838796
1817.000000	0.838800
1816.000000	0.838823
1815.000000	0.838860
1814.000000	0.838896
1813.000000	0.838918
1812.000000	0.838934
1811.000000	0.838956
1810.000000	0.838991
1809.000000	0.839029
1808.000000	0.839058
1807.000000	0.839072
1806.000000	0.839077
1805.000000	0.839083
1804.000000	0.839094
1803.000000	0.839111
1802.000000	0.839128
1801.000000	0.839140
1800.000000	0.839151
1799.000000	0.839167
1798.000000	0.839195
1797.000000	0.839230
1796.000000	0.839263
1795.000000	0.839278
1794.000000	0.839273
1793.000000	0.839256
1792.000000	0.839248
1791.000000	0.839273
1790.000000	0.839333
1789.000000	0.839411
1788.000000	0.839477
1787.000000	0.839509
1786.000000	0.839514
1785.000000	0.839514
1784.000000	0.839527
1783.000000	0.839559
1782.000000	0.839601
1781.000000	0.839646
1780.000000	0.839688
1779.000000	0.839721
1778.000000	0.839745
1777.000000	0.839770
1776.000000	0.839798
1775.000000	0.839820
1774.000000	0.839823
1773.000000	0.839817
1772.000000	0.839830
1771.000000	0.839878
1770.000000	0.839948
1769.000000	0.840017
1768.000000	0.840083
1767.000000	0.840155
1766.000000	0.840232
1765.000000	0.840297
1764.000000	0.840337
1763.000000	0.840359
1762.000000	0.840384
1761.000000	0.840426
1760.000000	0.840481
1759.000000	0.840532
1758.000000	0.840568
1757.000000	0.840598
1756.000000	0.840641
1755.000000	0.840702
1754.000000	0.840757
1753.000000	0.840782
1752.000000	0.840782
1751.000000	0.840792
1750.000000	0.840836
1749.000000	0.840911
1748.000000	0.840995
1747.000000	0.841076
1746.000000	0.841148
1745.000000	0.841204
1744.000000	0.841238
1743.000000	0.841256
1742.000000	0.841273
1741.000000	0.841303
1740.000000	0.841353
1739.000000	0.841419
1738.000000	0.841480
1737.000000	0.841502
1736.000000	0.841468
1735.000000	0.841403
1734.000000	0.841372
1733.000000	0.841425
1732.000000	0.841557
1731.000000	0.841717
1730.000000	0.841853
1729.000000	0.841950
1728.000000	0.842021
1727.000000	0.842085
1726.000000	0.842149
1725.000000	0.842207
1724.000000	0.842257
1723.000000	0.842299
1722.000000	0.842335
1721.000000	0.842353
1720.000000	0.842337
1719.000000	0.842286
1718.000000	0.842235
1717.000000	0.842230
1716.000000	0.842294
1715.000000	0.842407
1714.000000	0.842529
1713.000000	0.842631
1712.000000	0.842708
1711.000000	0.842766
1710.000000	0.842814
1709.000000	0.842850
1708.000000	0.842872
1707.000000	0.842879
1706.000000	0.842884
1705.000000	0.842905
1704.000000	0.842937
1703.000000	0.842947
1702.000000	0.842901
1701.000000	0.842819
1700.000000	0.842765
1699.000000	0.842782
1698.000000	0.842846
1697.000000	0.842904
1696.000000	0.842942
1695.000000	0.842999
1694.000000	0.843105
1693.000000	0.843240
1692.000000	0.843355
1691.000000	0.843420
1690.000000	0.843445
1689.000000	0.843448
1688.000000	0.843431
1687.000000	0.843380
1686.000000	0.843297
1685.000000	0.843223
1684.000000	0.843218
1683.000000	0.843306
1682.000000	0.843450
1681.000000	0.843589
1680.000000	0.843686
1679.000000	0.843743
1678.000000	0.843766
1677.000000	0.843755
1676.000000	0.843718
1675.000000	0.843691
1674.000000	0.843699
1673.000000	0.843733
1672.000000	0.843757
1671.000000	0.843765
1670.000000	0.843782
1669.000000	0.843838
1668.000000	0.843927
1667.000000	0.844017
1666.000000	0.844079
1665.000000	0.844100
1664.000000	0.844091
1663.000000	0.844078
1662.000000	0.844085
1661.000000	0.844116
1660.000000	0.844155
1659.000000	0.844188
1658.000000	0.844203
1657.000000	0.844179
1656.000000	0.844084
1655.000000	0.843909
1654.000000	0.843711
1653.000000	0.843596
1652.000000	0.843636
1651.000000	0.843805
1650.000000	0.843996
1649.000000	0.844119
1648.000000	0.844153
1647.000000	0.844146
1646.000000	0.844157
1645.000000	0.844206
1644.000000	0.844280
1643.000000	0.844350
1642.000000	0.844402
1641.000000	0.844433
1640.000000	0.844444
1639.000000	0.844428
1638.000000	0.844379
1637.000000	0.844306
1636.000000	0.844246
1635.000000	0.844242
1634.000000	0.844302
1633.000000	0.844394
1632.000000	0.844467
1631.000000	0.844497
1630.000000	0.844492
1629.000000	0.844473
1628.000000	0.844458
1627.000000	0.844450
1626.000000	0.844442
1625.000000	0.844419
1624.000000	0.844383
1623.000000	0.844355
1622.000000	0.844356
1621.000000	0.844374
1620.000000	0.844370
1619.000000	0.844313
1618.000000	0.844227
1617.000000	0.844172
1616.000000	0.844201
1615.000000	0.844315
1614.000000	0.844469
1613.000000	0.844601
1612.000000	0.844676
1611.000000	0.844694
1610.000000	0.844683
1609.000000	0.844666
1608.000000	0.844657
1607.000000	0.844657
1606.000000	0.844661
1605.000000	0.844658
1604.000000	0.844644
1603.000000	0.844626
1602.000000	0.844619
1601.000000	0.844631
1600.000000	0.844654
1599.000000	0.844676
1598.000000	0.844693
1597.000000	0.844707
1596.000000	0.844721
1595.000000	0.844738
1594.000000	0.844763
1593.000000	0.844792
1592.000000	0.844817
1591.000000	0.844833
1590.000000	0.844844
1589.000000	0.844858
1588.000000	0.844871
1587.000000	0.844876
1586.000000	0.844866
1585.000000	0.844849
1584.000000	0.844838
1583.000000	0.844842
1582.000000	0.844861
1581.000000	0.844878
1580.000000	0.844868
1579.000000	0.844812
1578.000000	0.844716
1577.000000	0.844618
1576.000000	0.844572
1575.000000	0.844607
1574.000000	0.844701
1573.000000	0.844796
1572.000000	0.844845
1571.000000	0.844846
1570.000000	0.844834
1569.000000	0.844838
1568.000000	0.844862
1567.000000	0.844888
1566.000000	0.844910
1565.000000	0.844929
1564.000000	0.844937
1563.000000	0.844908
1562.000000	0.844813
1561.000000	0.844654
1560.000000	0.844489
1559.000000	0.844401
1558.000000	0.844431
1557.000000	0.844542
1556.000000	0.844652
1555.000000	0.844718
1554.000000	0.844757
1553.000000	0.844808
1552.000000	0.844876
1551.000000	0.844937
1550.000000	0.844968
1549.000000	0.844970
1548.000000	0.844955
1547.000000	0.844926
1546.000000	0.844888
1545.000000	0.844846
1544.000000	0.844799
1543.000000	0.844733
1542.000000	0.844638
1541.000000	0.844531
1540.000000	0.844467
1539.000000	0.844501
1538.000000	0.844640
1537.000000	0.844817
1536.000000	0.844941
1535.000000	0.844973
1534.000000	0.844947
1533.000000	0.844930
1532.000000	0.844954
1531.000000	0.845004
1530.000000	0.845045
1529.000000	0.845056
1528.000000	0.845033
1527.000000	0.844987
1526.000000	0.844935
1525.000000	0.844890
1524.000000	0.844845
1523.000000	0.844792
1522.000000	0.844746
1521.000000	0.844739
1520.000000	0.844783
1519.000000	0.844849
1518.000000	0.844896
1517.000000	0.844915
1516.000000	0.844926
1515.000000	0.844947
1514.000000	0.844976
1513.000000	0.845000
1512.000000	0.845011
1511.000000	0.844999
1510.000000	0.844954
1509.000000	0.844863
1508.000000	0.844739
1507.000000	0.844632
1506.000000	0.844609
1505.000000	0.844698
1504.000000	0.844862
1503.000000	0.845025
1502.000000	0.845139
1501.000000	0.845208
1500.000000	0.845251
