PE IR       SUBTECH     SPECTRUM    ASCII       PEDS        4.00        
   -1
TE108B2_003.ASC
20/02/27
13:17:23.00
20/02/27
13:17:23.00
Administrator
Sample 003 By Administrator Date Thursday, February 27 2020
1500.000000
#HDR
-1
-1
#GR
cm-1
EGY
1.0
0.0
4000.000000
-1.000000
2501
8
37.942862
25.933658
#DATA
4000.000000	25.933658
3999.000000	25.944446
3998.000000	25.955515
3997.000000	25.967228
3996.000000	25.979387
3995.000000	25.991519
3994.000000	26.003420
3993.000000	26.015412
3992.000000	26.027972
3991.000000	26.041166
3990.000000	26.054594
3989.000000	26.067831
3988.000000	26.080687
3987.000000	26.093092
3986.000000	26.105016
3985.000000	26.116591
3984.000000	26.128107
3983.000000	26.139771
3982.000000	26.151630
3981.000000	26.163701
3980.000000	26.175893
3979.000000	26.187734
3978.000000	26.198512
3977.000000	26.207944
3976.000000	26.216639
3975.000000	26.225789
3974.000000	26.236415
3973.000000	26.248849
3972.000000	26.262687
3971.000000	26.277058
3970.000000	26.291065
3969.000000	26.304133
3968.000000	26.316011
3967.000000	26.326651
3966.000000	26.336291
3965.000000	26.345595
3964.000000	26.355419
3963.000000	26.366303
3962.000000	26.378291
3961.000000	26.391171
3960.000000	26.404664
3959.000000	26.418389
3958.000000	26.431925
3957.000000	26.444964
3956.000000	26.457230
3955.000000	26.468249
3954.000000	26.477491
3953.000000	26.484888
3952.000000	26.491157
3951.000000	26.497604
3950.000000	26.505726
3949.000000	26.516569
3948.000000	26.529851
3947.000000	26.543615
3946.000000	26.555452
3945.000000	26.564707
3944.000000	26.573396
3943.000000	26.584646
3942.000000	26.600089
3941.000000	26.618751
3940.000000	26.638058
3939.000000	26.655514
3938.000000	26.669527
3937.000000	26.679218
3936.000000	26.684272
3935.000000	26.685569
3934.000000	26.685980
3933.000000	26.689884
3932.000000	26.700816
3931.000000	26.718930
3930.000000	26.740595
3929.000000	26.760673
3928.000000	26.775703
3927.000000	26.785694
3926.000000	26.793623
3925.000000	26.803037
3924.000000	26.815285
3923.000000	26.828315
3922.000000	26.838286
3921.000000	26.842933
3920.000000	26.843976
3919.000000	26.846651
3918.000000	26.856731
3917.000000	26.877227
3916.000000	26.906650
3915.000000	26.939911
3914.000000	26.971125
3913.000000	26.996524
3912.000000	27.015316
3911.000000	27.028030
3910.000000	27.033957
3909.000000	27.030015
3908.000000	27.012484
3907.000000	26.980894
3906.000000	26.940930
3905.000000	26.903311
3904.000000	26.878781
3903.000000	26.873312
3902.000000	26.887462
3901.000000	26.918968
3900.000000	26.964820
3899.000000	27.020654
3898.000000	27.079086
3897.000000	27.129743
3896.000000	27.162008
3895.000000	27.170231
3894.000000	27.158651
3893.000000	27.141383
3892.000000	27.134379
3891.000000	27.143617
3890.000000	27.160171
3889.000000	27.168435
3888.000000	27.161363
3887.000000	27.147944
3886.000000	27.145194
3885.000000	27.162236
3884.000000	27.192674
3883.000000	27.222552
3882.000000	27.244916
3881.000000	27.265013
3880.000000	27.291382
3879.000000	27.324115
3878.000000	27.353735
3877.000000	27.370489
3876.000000	27.371629
3875.000000	27.359211
3874.000000	27.334503
3873.000000	27.298967
3872.000000	27.260894
3871.000000	27.236551
3870.000000	27.240322
3869.000000	27.271950
3868.000000	27.315422
3867.000000	27.351975
3866.000000	27.375125
3865.000000	27.392955
3864.000000	27.417470
3863.000000	27.453333
3862.000000	27.496146
3861.000000	27.536413
3860.000000	27.560367
3859.000000	27.547745
3858.000000	27.477272
3857.000000	27.343993
3856.000000	27.175986
3855.000000	27.031249
3854.000000	26.970328
3853.000000	27.022195
3852.000000	27.168374
3851.000000	27.356287
3850.000000	27.530016
3849.000000	27.655554
3848.000000	27.726336
3847.000000	27.753746
3846.000000	27.754606
3845.000000	27.743233
3844.000000	27.726833
3843.000000	27.703432
3842.000000	27.665225
3841.000000	27.608771
3840.000000	27.544866
3839.000000	27.497517
3838.000000	27.490387
3837.000000	27.530604
3836.000000	27.603889
3835.000000	27.684774
3834.000000	27.753444
3833.000000	27.805032
3832.000000	27.845663
3831.000000	27.881625
3830.000000	27.913456
3829.000000	27.938797
3828.000000	27.957097
3827.000000	27.968228
3826.000000	27.967437
3825.000000	27.946469
3824.000000	27.904004
3823.000000	27.854205
3822.000000	27.820166
3821.000000	27.814343
3820.000000	27.826388
3819.000000	27.833969
3818.000000	27.827966
3817.000000	27.825365
3816.000000	27.854459
3815.000000	27.927556
3814.000000	28.028016
3813.000000	28.121975
3812.000000	28.179677
3811.000000	28.188847
3810.000000	28.156745
3809.000000	28.106293
3808.000000	28.066208
3807.000000	28.053727
3806.000000	28.061064
3805.000000	28.061929
3804.000000	28.037874
3803.000000	27.999548
3802.000000	27.979974
3801.000000	28.005278
3800.000000	28.072413
3799.000000	28.154817
3798.000000	28.226556
3797.000000	28.279905
3796.000000	28.322177
3795.000000	28.361578
3794.000000	28.398771
3793.000000	28.429643
3792.000000	28.451748
3791.000000	28.466346
3790.000000	28.476034
3789.000000	28.482618
3788.000000	28.487384
3787.000000	28.492116
3786.000000	28.498717
3785.000000	28.507419
3784.000000	28.515577
3783.000000	28.519104
3782.000000	28.516420
3781.000000	28.511621
3780.000000	28.512923
3779.000000	28.526798
3778.000000	28.553094
3777.000000	28.585336
3776.000000	28.614602
3775.000000	28.632605
3774.000000	28.633740
3773.000000	28.617936
3772.000000	28.593117
3771.000000	28.572559
3770.000000	28.566834
3769.000000	28.577423
3768.000000	28.598507
3767.000000	28.624009
3766.000000	28.651263
3765.000000	28.678288
3764.000000	28.700054
3763.000000	28.710049
3762.000000	28.706160
3761.000000	28.694561
3760.000000	28.686803
3759.000000	28.691162
3758.000000	28.704039
3757.000000	28.708322
3756.000000	28.681861
3755.000000	28.611552
3754.000000	28.504640
3753.000000	28.389656
3752.000000	28.304842
3751.000000	28.278601
3750.000000	28.310032
3749.000000	28.364295
3748.000000	28.393399
3747.000000	28.373485
3746.000000	28.328842
3745.000000	28.316479
3744.000000	28.380487
3743.000000	28.515081
3742.000000	28.668735
3741.000000	28.782069
3740.000000	28.823797
3739.000000	28.801301
3738.000000	28.746658
3737.000000	28.694890
3736.000000	28.668618
3735.000000	28.673700
3734.000000	28.705465
3733.000000	28.757648
3732.000000	28.824866
3731.000000	28.898122
3730.000000	28.962696
3729.000000	29.005332
3728.000000	29.024006
3727.000000	29.028753
3726.000000	29.032516
3725.000000	29.042256
3724.000000	29.058329
3723.000000	29.079027
3722.000000	29.103369
3721.000000	29.130671
3720.000000	29.159629
3719.000000	29.187701
3718.000000	29.209401
3717.000000	29.215086
3716.000000	29.194468
3715.000000	29.145258
3714.000000	29.080051
3713.000000	29.023242
3712.000000	28.998198
3711.000000	29.014340
3710.000000	29.064094
3709.000000	29.130339
3708.000000	29.196157
3707.000000	29.249510
3706.000000	29.283306
3705.000000	29.295761
3704.000000	29.292353
3703.000000	29.285192
3702.000000	29.286993
3701.000000	29.303352
3700.000000	29.330256
3699.000000	29.358716
3698.000000	29.381113
3697.000000	29.393689
3696.000000	29.394579
3695.000000	29.381104
3694.000000	29.348918
3693.000000	29.294019
3692.000000	29.218054
3691.000000	29.135014
3690.000000	29.072468
3689.000000	29.060092
3688.000000	29.110749
3687.000000	29.209017
3686.000000	29.319357
3685.000000	29.407858
3684.000000	29.459054
3683.000000	29.476593
3682.000000	29.470813
3681.000000	29.445417
3680.000000	29.394136
3679.000000	29.310850
3678.000000	29.205894
3677.000000	29.111299
3676.000000	29.062649
3675.000000	29.070189
3674.000000	29.108188
3673.000000	29.138290
3672.000000	29.145567
3671.000000	29.150138
3670.000000	29.183720
3669.000000	29.258035
3668.000000	29.355764
3667.000000	29.447648
3666.000000	29.513834
3665.000000	29.551422
3664.000000	29.568521
3663.000000	29.574592
3662.000000	29.574004
3661.000000	29.564137
3660.000000	29.539347
3659.000000	29.499459
3658.000000	29.455922
3657.000000	29.427148
3656.000000	29.423226
3655.000000	29.433153
3654.000000	29.428935
3653.000000	29.386450
3652.000000	29.306676
3651.000000	29.218725
3650.000000	29.162199
3649.000000	29.163641
3648.000000	29.223566
3647.000000	29.320057
3646.000000	29.422582
3645.000000	29.506728
3644.000000	29.562013
3643.000000	29.591320
3642.000000	29.604336
3641.000000	29.610366
3640.000000	29.614397
3639.000000	29.616860
3638.000000	29.615727
3637.000000	29.609539
3636.000000	29.598929
3635.000000	29.583738
3634.000000	29.557513
3633.000000	29.507923
3632.000000	29.428686
3631.000000	29.334609
3630.000000	29.261946
3629.000000	29.246807
3628.000000	29.298886
3627.000000	29.393988
3626.000000	29.491698
3625.000000	29.559706
3624.000000	29.585529
3623.000000	29.572878
3622.000000	29.534619
3621.000000	29.489047
3620.000000	29.455991
3619.000000	29.448241
3618.000000	29.464037
3617.000000	29.488756
3616.000000	29.506255
3615.000000	29.509329
3614.000000	29.500814
3613.000000	29.486663
3612.000000	29.470512
3611.000000	29.455028
3610.000000	29.445925
3609.000000	29.451178
3608.000000	29.474868
3607.000000	29.512075
3606.000000	29.550925
3605.000000	29.579770
3604.000000	29.593175
3603.000000	29.592691
3602.000000	29.583988
3601.000000	29.573285
3600.000000	29.564625
3599.000000	29.558506
3598.000000	29.552964
3597.000000	29.546665
3596.000000	29.541226
3595.000000	29.539815
3594.000000	29.542704
3593.000000	29.544346
3592.000000	29.535727
3591.000000	29.511388
3590.000000	29.475551
3589.000000	29.441819
3588.000000	29.425472
3587.000000	29.434109
3586.000000	29.463358
3585.000000	29.500848
3584.000000	29.534082
3583.000000	29.556340
3582.000000	29.567323
3581.000000	29.570388
3580.000000	29.569485
3579.000000	29.567520
3578.000000	29.565963
3577.000000	29.565159
3576.000000	29.564875
3575.000000	29.564577
3574.000000	29.562904
3573.000000	29.556648
3572.000000	29.540959
3571.000000	29.512276
3570.000000	29.472903
3569.000000	29.432880
3568.000000	29.406060
3567.000000	29.401864
3566.000000	29.419482
3565.000000	29.449012
3564.000000	29.478315
3563.000000	29.499634
3562.000000	29.511658
3561.000000	29.517255
3560.000000	29.519928
3559.000000	29.521492
3558.000000	29.521687
3557.000000	29.519210
3556.000000	29.513281
3555.000000	29.504837
3554.000000	29.496477
3553.000000	29.490853
3552.000000	29.488382
3551.000000	29.486283
3550.000000	29.480317
3549.000000	29.468394
3548.000000	29.452920
3547.000000	29.439633
3546.000000	29.433738
3545.000000	29.436678
3544.000000	29.445782
3543.000000	29.456448
3542.000000	29.464599
3541.000000	29.468005
3540.000000	29.466425
3539.000000	29.461212
3538.000000	29.454689
3537.000000	29.449139
3536.000000	29.445624
3535.000000	29.443290
3534.000000	29.439858
3533.000000	29.433052
3532.000000	29.421973
3531.000000	29.407556
3530.000000	29.392016
3529.000000	29.377788
3528.000000	29.366393
3527.000000	29.357829
3526.000000	29.350929
3525.000000	29.344506
3524.000000	29.338324
3523.000000	29.332994
3522.000000	29.329006
3521.000000	29.325983
3520.000000	29.322847
3519.000000	29.318619
3518.000000	29.313011
3517.000000	29.306288
3516.000000	29.298646
3515.000000	29.289796
3514.000000	29.279273
3513.000000	29.267158
3512.000000	29.254429
3511.000000	29.242436
3510.000000	29.231942
3509.000000	29.222466
3508.000000	29.212403
3507.000000	29.199909
3506.000000	29.184214
3505.000000	29.166567
3504.000000	29.149821
3503.000000	29.136624
3502.000000	29.127586
3501.000000	29.121029
3500.000000	29.114431
3499.000000	29.106128
3498.000000	29.095932
3497.000000	29.084588
3496.000000	29.072924
3495.000000	29.061379
3494.000000	29.049986
3493.000000	29.038548
3492.000000	29.026772
3491.000000	29.014466
3490.000000	29.001873
3489.000000	28.989787
3488.000000	28.978981
3487.000000	28.969248
3486.000000	28.959278
3485.000000	28.947915
3484.000000	28.935595
3483.000000	28.924232
3482.000000	28.915604
3481.000000	28.910016
3480.000000	28.906471
3479.000000	28.903772
3478.000000	28.901228
3477.000000	28.898646
3476.000000	28.896062
3475.000000	28.893575
3474.000000	28.891321
3473.000000	28.889525
3472.000000	28.888526
3471.000000	28.888559
3470.000000	28.889420
3469.000000	28.890523
3468.000000	28.891458
3467.000000	28.892395
3466.000000	28.893796
3465.000000	28.895870
3464.000000	28.898497
3463.000000	28.901572
3462.000000	28.905118
3461.000000	28.909072
3460.000000	28.913246
3459.000000	28.917590
3458.000000	28.922255
3457.000000	28.927246
3456.000000	28.932164
3455.000000	28.936410
3454.000000	28.939560
3453.000000	28.941374
3452.000000	28.941568
3451.000000	28.939881
3450.000000	28.936587
3449.000000	28.932872
3448.000000	28.930486
3447.000000	28.930750
3446.000000	28.933800
3445.000000	28.938842
3444.000000	28.945220
3443.000000	28.953090
3442.000000	28.962918
3441.000000	28.974486
3440.000000	28.986760
3439.000000	28.998957
3438.000000	29.011519
3437.000000	29.025801
3436.000000	29.042842
3435.000000	29.062534
3434.000000	29.083890
3433.000000	29.105859
3432.000000	29.127863
3431.000000	29.149842
3430.000000	29.171993
3429.000000	29.194420
3428.000000	29.216936
3427.000000	29.239133
3426.000000	29.260627
3425.000000	29.281153
3424.000000	29.300499
3423.000000	29.318580
3422.000000	29.335727
3421.000000	29.352707
3420.000000	29.370180
3419.000000	29.388096
3418.000000	29.405782
3417.000000	29.422592
3416.000000	29.438292
3415.000000	29.452826
3414.000000	29.466056
3413.000000	29.477953
3412.000000	29.488869
3411.000000	29.499363
3410.000000	29.509748
3409.000000	29.519942
3408.000000	29.529650
3407.000000	29.538552
3406.000000	29.546450
3405.000000	29.553547
3404.000000	29.560609
3403.000000	29.568549
3402.000000	29.577752
3401.000000	29.587962
3400.000000	29.598856
3399.000000	29.610442
3398.000000	29.622723
3397.000000	29.635240
3396.000000	29.647292
3395.000000	29.658618
3394.000000	29.669733
3393.000000	29.681535
3392.000000	29.694577
3391.000000	29.708512
3390.000000	29.722126
3389.000000	29.734087
3388.000000	29.743996
3387.000000	29.752799
3386.000000	29.762079
3385.000000	29.772885
3384.000000	29.785163
3383.000000	29.798009
3382.000000	29.810246
3381.000000	29.820949
3380.000000	29.829863
3379.000000	29.837566
3378.000000	29.845105
3377.000000	29.853306
3376.000000	29.862301
3375.000000	29.871557
3374.000000	29.880236
3373.000000	29.887658
3372.000000	29.893699
3371.000000	29.898909
3370.000000	29.904199
3369.000000	29.910305
3368.000000	29.917444
3367.000000	29.925316
3366.000000	29.933358
3365.000000	29.941135
3364.000000	29.948675
3363.000000	29.956345
3362.000000	29.964348
3361.000000	29.972469
3360.000000	29.980492
3359.000000	29.988629
3358.000000	29.997204
3357.000000	30.005981
3356.000000	30.014147
3355.000000	30.021033
3354.000000	30.026687
3353.000000	30.031782
3352.000000	30.037226
3351.000000	30.043790
3350.000000	30.051670
3349.000000	30.060232
3348.000000	30.068424
3347.000000	30.075650
3346.000000	30.082115
3345.000000	30.088304
3344.000000	30.094421
3343.000000	30.100461
3342.000000	30.106571
3341.000000	30.113051
3340.000000	30.120082
3339.000000	30.127586
3338.000000	30.135269
3337.000000	30.142723
3336.000000	30.149639
3335.000000	30.156053
3334.000000	30.162359
3333.000000	30.169067
3332.000000	30.176622
3331.000000	30.185243
3330.000000	30.194535
3329.000000	30.203238
3328.000000	30.209909
3327.000000	30.214261
3326.000000	30.217602
3325.000000	30.221673
3324.000000	30.227160
3323.000000	30.233501
3322.000000	30.239845
3321.000000	30.245841
3320.000000	30.251714
3319.000000	30.257989
3318.000000	30.265080
3317.000000	30.272775
3316.000000	30.280107
3315.000000	30.286083
3314.000000	30.290640
3313.000000	30.294675
3312.000000	30.299118
3311.000000	30.304154
3310.000000	30.309342
3309.000000	30.314214
3308.000000	30.318664
3307.000000	30.322971
3306.000000	30.327651
3305.000000	30.333191
3304.000000	30.339810
3303.000000	30.347377
3302.000000	30.355491
3301.000000	30.363579
3300.000000	30.371067
3299.000000	30.377687
3298.000000	30.383640
3297.000000	30.389324
3296.000000	30.394840
3295.000000	30.399892
3294.000000	30.404221
3293.000000	30.408100
3292.000000	30.412384
3291.000000	30.418048
3290.000000	30.425521
3289.000000	30.434296
3288.000000	30.443209
3287.000000	30.451219
3286.000000	30.457982
3285.000000	30.463722
3284.000000	30.468801
3283.000000	30.473628
3282.000000	30.478847
3281.000000	30.485177
3280.000000	30.492764
3279.000000	30.500771
3278.000000	30.507856
3277.000000	30.513266
3276.000000	30.517541
3275.000000	30.522106
3274.000000	30.528040
3273.000000	30.535202
3272.000000	30.542614
3271.000000	30.549666
3270.000000	30.556755
3269.000000	30.564671
3268.000000	30.573619
3267.000000	30.583051
3266.000000	30.592285
3265.000000	30.600944
3264.000000	30.608821
3263.000000	30.615728
3262.000000	30.621713
3261.000000	30.627280
3260.000000	30.633122
3259.000000	30.639574
3258.000000	30.646414
3257.000000	30.653242
3256.000000	30.660024
3255.000000	30.667215
3254.000000	30.675323
3253.000000	30.684387
3252.000000	30.693895
3251.000000	30.703157
3250.000000	30.711682
3249.000000	30.719298
3248.000000	30.726170
3247.000000	30.732796
3246.000000	30.739842
3245.000000	30.747781
3244.000000	30.756668
3243.000000	30.766262
3242.000000	30.776229
3241.000000	30.786181
3240.000000	30.795777
3239.000000	30.804969
3238.000000	30.814032
3237.000000	30.823140
3236.000000	30.831994
3235.000000	30.840092
3234.000000	30.847354
3233.000000	30.854292
3232.000000	30.861572
3231.000000	30.869581
3230.000000	30.878351
3229.000000	30.887640
3228.000000	30.896966
3227.000000	30.905819
3226.000000	30.914068
3225.000000	30.922116
3224.000000	30.930460
3223.000000	30.939065
3222.000000	30.947300
3221.000000	30.954590
3220.000000	30.961094
3219.000000	30.967654
3218.000000	30.975066
3217.000000	30.983466
3216.000000	30.992475
3215.000000	31.001780
3214.000000	31.011396
3213.000000	31.021356
3212.000000	31.031366
3211.000000	31.040925
3210.000000	31.049803
3209.000000	31.058354
3208.000000	31.067377
3207.000000	31.077619
3206.000000	31.089278
3205.000000	31.101921
3204.000000	31.114855
3203.000000	31.127520
3202.000000	31.139570
3201.000000	31.150887
3200.000000	31.161880
3199.000000	31.173629
3198.000000	31.187155
3197.000000	31.202274
3196.000000	31.217501
3195.000000	31.231408
3194.000000	31.243929
3193.000000	31.256084
3192.000000	31.268642
3191.000000	31.281439
3190.000000	31.293956
3189.000000	31.306129
3188.000000	31.318400
3187.000000	31.331191
3186.000000	31.344541
3185.000000	31.358215
3184.000000	31.371978
3183.000000	31.385676
3182.000000	31.399052
3181.000000	31.411698
3180.000000	31.423432
3179.000000	31.434776
3178.000000	31.446777
3177.000000	31.460080
3176.000000	31.474216
3175.000000	31.487961
3174.000000	31.500398
3173.000000	31.511578
3172.000000	31.522302
3171.000000	31.533480
3170.000000	31.545639
3169.000000	31.558794
3168.000000	31.572618
3167.000000	31.586709
3166.000000	31.600696
3165.000000	31.614215
3164.000000	31.627104
3163.000000	31.639811
3162.000000	31.653350
3161.000000	31.668422
3160.000000	31.684505
3159.000000	31.700089
3158.000000	31.713957
3157.000000	31.726105
3156.000000	31.737389
3155.000000	31.748580
3154.000000	31.760037
3153.000000	31.772134
3152.000000	31.785527
3151.000000	31.800642
3150.000000	31.816972
3149.000000	31.833177
3148.000000	31.848094
3147.000000	31.861655
3146.000000	31.874748
3145.000000	31.888214
3144.000000	31.902029
3143.000000	31.915409
3142.000000	31.927636
3141.000000	31.938825
3140.000000	31.949999
3139.000000	31.962297
3138.000000	31.975913
3137.000000	31.989818
3136.000000	32.002709
3135.000000	32.014241
3134.000000	32.025195
3133.000000	32.036533
3132.000000	32.048600
3131.000000	32.061208
3130.000000	32.074014
3129.000000	32.086527
3128.000000	32.098113
3127.000000	32.108387
3126.000000	32.117531
3125.000000	32.125977
3124.000000	32.133999
3123.000000	32.141906
3122.000000	32.150352
3121.000000	32.159927
3120.000000	32.170371
3119.000000	32.180674
3118.000000	32.190127
3117.000000	32.198996
3116.000000	32.208066
3115.000000	32.217868
3114.000000	32.228484
3113.000000	32.239697
3112.000000	32.250947
3111.000000	32.261392
3110.000000	32.270518
3109.000000	32.278721
3108.000000	32.286968
3107.000000	32.295845
3106.000000	32.305231
3105.000000	32.314919
3104.000000	32.325172
3103.000000	32.336440
3102.000000	32.348734
3101.000000	32.361531
3100.000000	32.374157
3099.000000	32.386167
3098.000000	32.397591
3097.000000	32.409033
3096.000000	32.421248
3095.000000	32.434260
3094.000000	32.447031
3093.000000	32.458430
3092.000000	32.468510
3091.000000	32.478340
3090.000000	32.488605
3089.000000	32.498931
3088.000000	32.508765
3087.000000	32.518315
3086.000000	32.528130
3085.000000	32.538138
3084.000000	32.547654
3083.000000	32.556169
3082.000000	32.563714
3081.000000	32.570590
3080.000000	32.577221
3079.000000	32.584194
3078.000000	32.591915
3077.000000	32.600130
3076.000000	32.608100
3075.000000	32.615253
3074.000000	32.621364
3073.000000	32.626170
3072.000000	32.629340
3071.000000	32.631014
3070.000000	32.632009
3069.000000	32.633281
3068.000000	32.635384
3067.000000	32.638544
3066.000000	32.642930
3065.000000	32.648646
3064.000000	32.655662
3063.000000	32.663943
3062.000000	32.673473
3061.000000	32.683973
3060.000000	32.694749
3059.000000	32.705054
3058.000000	32.714666
3057.000000	32.724103
3056.000000	32.734227
3055.000000	32.745488
3054.000000	32.757402
3053.000000	32.768861
3052.000000	32.779156
3051.000000	32.788567
3050.000000	32.797786
3049.000000	32.806961
3048.000000	32.815707
3047.000000	32.823885
3046.000000	32.831769
3045.000000	32.839327
3044.000000	32.845906
3043.000000	32.850982
3042.000000	32.854941
3041.000000	32.858737
3040.000000	32.862905
3039.000000	32.867101
3038.000000	32.870482
3037.000000	32.872372
3036.000000	32.872683
3035.000000	32.871829
3034.000000	32.870214
3033.000000	32.867749
3032.000000	32.863932
3031.000000	32.858287
3030.000000	32.850441
3029.000000	32.839808
3028.000000	32.825588
3027.000000	32.807365
3026.000000	32.785607
3025.000000	32.761605
3024.000000	32.737123
3023.000000	32.714133
3022.000000	32.694492
3021.000000	32.679600
3020.000000	32.670519
3019.000000	32.668547
3018.000000	32.675435
3017.000000	32.692723
3016.000000	32.720718
3015.000000	32.757994
3014.000000	32.801699
3013.000000	32.848457
3012.000000	32.895428
3011.000000	32.940880
3010.000000	32.983777
3009.000000	33.022904
3008.000000	33.056709
3007.000000	33.084153
3006.000000	33.105526
3005.000000	33.122216
3004.000000	33.135659
3003.000000	33.146538
3002.000000	33.154921
3001.000000	33.161081
3000.000000	33.166005
2999.000000	33.170834
2998.000000	33.175771
2997.000000	33.179935
2996.000000	33.182515
2995.000000	33.183710
2994.000000	33.184120
2993.000000	33.183632
2992.000000	33.181600
2991.000000	33.177982
2990.000000	33.173567
2989.000000	33.168975
2988.000000	33.163994
2987.000000	33.157922
2986.000000	33.149899
2985.000000	33.138802
2984.000000	33.123743
2983.000000	33.105307
2982.000000	33.085867
2981.000000	33.067997
2980.000000	33.052440
2979.000000	33.037613
2978.000000	33.020641
2977.000000	32.998637
2976.000000	32.969530
2975.000000	32.932408
2974.000000	32.887349
2973.000000	32.835027
2972.000000	32.776629
2971.000000	32.714040
2970.000000	32.649509
2969.000000	32.584855
2968.000000	32.521264
2967.000000	32.460072
2966.000000	32.403512
2965.000000	32.354400
2964.000000	32.315175
2963.000000	32.287104
2962.000000	32.269952
2961.000000	32.262288
2960.000000	32.262442
2959.000000	32.269300
2958.000000	32.281913
2957.000000	32.298599
2956.000000	32.317195
2955.000000	32.336348
2954.000000	32.355703
2953.000000	32.374341
2952.000000	32.389773
2951.000000	32.399065
2950.000000	32.400527
2949.000000	32.393628
2948.000000	32.377732
2947.000000	32.351717
2946.000000	32.314675
2945.000000	32.266264
2944.000000	32.206407
2943.000000	32.135409
2942.000000	32.054709
2941.000000	31.967208
2940.000000	31.876553
2939.000000	31.786044
2938.000000	31.697939
2937.000000	31.613378
2936.000000	31.532714
2935.000000	31.455838
2934.000000	31.382130
2933.000000	31.310326
2932.000000	31.239061
2931.000000	31.168126
2930.000000	31.099316
2929.000000	31.036196
2928.000000	30.983349
2927.000000	30.945850
2926.000000	30.928661
2925.000000	30.935756
2924.000000	30.969555
2923.000000	31.031009
2922.000000	31.119569
2921.000000	31.232582
2920.000000	31.365038
2919.000000	31.510633
2918.000000	31.663323
2917.000000	31.818134
2916.000000	31.971016
2915.000000	32.118691
2914.000000	32.258582
2913.000000	32.388663
2912.000000	32.507374
2911.000000	32.613891
2910.000000	32.708343
2909.000000	32.791600
2908.000000	32.865040
2907.000000	32.930583
2906.000000	32.990382
2905.000000	33.045912
2904.000000	33.097529
2903.000000	33.145370
2902.000000	33.190545
2901.000000	33.234990
2900.000000	33.280148
2899.000000	33.326050
2898.000000	33.371543
2897.000000	33.415070
2896.000000	33.455514
2895.000000	33.492903
2894.000000	33.528510
2893.000000	33.563946
2892.000000	33.599914
2891.000000	33.635798
2890.000000	33.670262
2889.000000	33.702004
2888.000000	33.730180
2887.000000	33.754588
2886.000000	33.775596
2885.000000	33.793674
2884.000000	33.808940
2883.000000	33.821253
2882.000000	33.830611
2881.000000	33.837094
2880.000000	33.840322
2879.000000	33.839206
2878.000000	33.832413
2877.000000	33.819052
2876.000000	33.798949
2875.000000	33.772392
2874.000000	33.739636
2873.000000	33.700458
2872.000000	33.653917
2871.000000	33.598400
2870.000000	33.532067
2869.000000	33.453764
2868.000000	33.364142
2867.000000	33.266251
2866.000000	33.165180
2865.000000	33.067192
2864.000000	32.979086
2863.000000	32.907603
2862.000000	32.858428
2861.000000	32.834833
2860.000000	32.837010
2859.000000	32.862232
2858.000000	32.905472
2857.000000	32.960488
2856.000000	33.021690
2855.000000	33.086131
2854.000000	33.154014
2853.000000	33.227391
2852.000000	33.308469
2851.000000	33.398690
2850.000000	33.498278
2849.000000	33.605760
2848.000000	33.718012
2847.000000	33.831078
2846.000000	33.941131
2845.000000	34.044841
2844.000000	34.139642
2843.000000	34.224263
2842.000000	34.298964
2841.000000	34.364929
2840.000000	34.423419
2839.000000	34.475488
2838.000000	34.522084
2837.000000	34.564042
2836.000000	34.602089
2835.000000	34.637062
2834.000000	34.669907
2833.000000	34.701195
2832.000000	34.730762
2831.000000	34.758087
2830.000000	34.782973
2829.000000	34.805787
2828.000000	34.827184
2827.000000	34.847740
2826.000000	34.867713
2825.000000	34.887058
2824.000000	34.905788
2823.000000	34.924268
2822.000000	34.942917
2821.000000	34.961559
2820.000000	34.979386
2819.000000	34.995656
2818.000000	35.010156
2817.000000	35.023046
2816.000000	35.034704
2815.000000	35.045902
2814.000000	35.057572
2813.000000	35.070007
2812.000000	35.082501
2811.000000	35.094145
2810.000000	35.104786
2809.000000	35.114993
2808.000000	35.125274
2807.000000	35.135586
2806.000000	35.145480
2805.000000	35.154510
2804.000000	35.162578
2803.000000	35.170005
2802.000000	35.177196
2801.000000	35.184293
2800.000000	35.191382
2799.000000	35.198944
2798.000000	35.207628
2797.000000	35.217433
2796.000000	35.227525
2795.000000	35.237080
2794.000000	35.246039
2793.000000	35.254872
2792.000000	35.263965
2791.000000	35.273493
2790.000000	35.283638
2789.000000	35.294651
2788.000000	35.306827
2787.000000	35.320491
2786.000000	35.335732
2785.000000	35.352030
2784.000000	35.368373
2783.000000	35.383900
2782.000000	35.398292
2781.000000	35.411660
2780.000000	35.424449
2779.000000	35.437387
2778.000000	35.450938
2777.000000	35.464585
2776.000000	35.477127
2775.000000	35.487945
2774.000000	35.497653
2773.000000	35.507305
2772.000000	35.517384
2771.000000	35.527726
2770.000000	35.537958
2769.000000	35.547659
2768.000000	35.556466
2767.000000	35.564424
2766.000000	35.572089
2765.000000	35.580083
2764.000000	35.588718
2763.000000	35.598085
2762.000000	35.608114
2761.000000	35.618364
2760.000000	35.628120
2759.000000	35.636972
2758.000000	35.645117
2757.000000	35.653023
2756.000000	35.661064
2755.000000	35.669408
2754.000000	35.677823
2753.000000	35.685589
2752.000000	35.692165
2751.000000	35.698042
2750.000000	35.704339
2749.000000	35.711403
2748.000000	35.718436
2747.000000	35.724732
2746.000000	35.730613
2745.000000	35.736789
2744.000000	35.743381
2743.000000	35.750062
2742.000000	35.756682
2741.000000	35.763289
2740.000000	35.769896
2739.000000	35.776613
2738.000000	35.783655
2737.000000	35.790912
2736.000000	35.797871
2735.000000	35.804249
2734.000000	35.810302
2733.000000	35.816293
2732.000000	35.822188
2731.000000	35.828167
2730.000000	35.834784
2729.000000	35.842156
2728.000000	35.849515
2727.000000	35.856092
2726.000000	35.861974
2725.000000	35.867607
2724.000000	35.873054
2723.000000	35.878382
2722.000000	35.884281
2721.000000	35.891354
2720.000000	35.898955
2719.000000	35.905541
2718.000000	35.910310
2717.000000	35.913976
2716.000000	35.917852
2715.000000	35.922568
2714.000000	35.927792
2713.000000	35.932881
2712.000000	35.937640
2711.000000	35.942419
2710.000000	35.947463
2709.000000	35.952370
2708.000000	35.956566
2707.000000	35.960270
2706.000000	35.964443
2705.000000	35.969657
2704.000000	35.975575
2703.000000	35.981789
2702.000000	35.988515
2701.000000	35.996072
2700.000000	36.004216
2699.000000	36.012543
2698.000000	36.021143
2697.000000	36.030294
2696.000000	36.039800
2695.000000	36.049091
2694.000000	36.057708
2693.000000	36.065352
2692.000000	36.071809
2691.000000	36.077322
2690.000000	36.082770
2689.000000	36.089005
2688.000000	36.096167
2687.000000	36.103927
2686.000000	36.112023
2685.000000	36.120173
2684.000000	36.127820
2683.000000	36.134508
2682.000000	36.140342
2681.000000	36.145703
2680.000000	36.150761
2679.000000	36.155653
2678.000000	36.160835
2677.000000	36.166781
2676.000000	36.173456
2675.000000	36.180425
2674.000000	36.187270
2673.000000	36.193628
2672.000000	36.199152
2671.000000	36.203885
2670.000000	36.208425
2669.000000	36.213319
2668.000000	36.218481
2667.000000	36.223523
2666.000000	36.228364
2665.000000	36.233111
2664.000000	36.237681
2663.000000	36.242033
2662.000000	36.246554
2661.000000	36.251653
2660.000000	36.257092
2659.000000	36.262227
2658.000000	36.266890
2657.000000	36.271660
2656.000000	36.277226
2655.000000	36.283788
2654.000000	36.290996
2653.000000	36.298176
2652.000000	36.304681
2651.000000	36.310382
2650.000000	36.315886
2649.000000	36.322107
2648.000000	36.329501
2647.000000	36.337706
2646.000000	36.345825
2645.000000	36.353041
2644.000000	36.359181
2643.000000	36.364778
2642.000000	36.370467
2641.000000	36.376347
2640.000000	36.382129
2639.000000	36.387799
2638.000000	36.393697
2637.000000	36.399911
2636.000000	36.406008
2635.000000	36.411546
2634.000000	36.416520
2633.000000	36.421210
2632.000000	36.425892
2631.000000	36.430771
2630.000000	36.435826
2629.000000	36.440700
2628.000000	36.445095
2627.000000	36.449287
2626.000000	36.453835
2625.000000	36.458842
2624.000000	36.464031
2623.000000	36.469473
2622.000000	36.475518
2621.000000	36.481923
2620.000000	36.487773
2619.000000	36.492494
2618.000000	36.496289
2617.000000	36.499427
2616.000000	36.501878
2615.000000	36.503975
2614.000000	36.506642
2613.000000	36.510438
2612.000000	36.514938
2611.000000	36.519410
2610.000000	36.523548
2609.000000	36.527218
2608.000000	36.530222
2607.000000	36.532812
2606.000000	36.535799
2605.000000	36.539504
2604.000000	36.543081
2603.000000	36.545421
2602.000000	36.546362
2601.000000	36.546556
2600.000000	36.546613
2599.000000	36.546883
2598.000000	36.547708
2597.000000	36.549341
2596.000000	36.551763
2595.000000	36.554814
2594.000000	36.558234
2593.000000	36.561570
2592.000000	36.564645
2591.000000	36.568253
2590.000000	36.573604
2589.000000	36.580780
2588.000000	36.588543
2587.000000	36.596108
2586.000000	36.604248
2585.000000	36.614029
2584.000000	36.625179
2583.000000	36.636478
2582.000000	36.647172
2581.000000	36.657267
2580.000000	36.666928
2579.000000	36.676367
2578.000000	36.685975
2577.000000	36.695875
2576.000000	36.705587
2575.000000	36.714610
2574.000000	36.722920
2573.000000	36.730453
2572.000000	36.736690
2571.000000	36.741476
2570.000000	36.745801
2569.000000	36.750988
2568.000000	36.757353
2567.000000	36.764278
2566.000000	36.771219
2565.000000	36.777971
2564.000000	36.784205
2563.000000	36.789534
2562.000000	36.794015
2561.000000	36.798088
2560.000000	36.802073
2559.000000	36.806105
2558.000000	36.810383
2557.000000	36.815061
2556.000000	36.820011
2555.000000	36.824940
2554.000000	36.829556
2553.000000	36.833495
2552.000000	36.836543
2551.000000	36.839169
2550.000000	36.842352
2549.000000	36.846545
2548.000000	36.851261
2547.000000	36.855913
2546.000000	36.860465
2545.000000	36.864923
2544.000000	36.868919
2543.000000	36.872343
2542.000000	36.875802
2541.000000	36.879884
2540.000000	36.884462
2539.000000	36.889175
2538.000000	36.893991
2537.000000	36.898734
2536.000000	36.902745
2535.000000	36.905739
2534.000000	36.908509
2533.000000	36.912043
2532.000000	36.916357
2531.000000	36.920842
2530.000000	36.925339
2529.000000	36.930153
2528.000000	36.935316
2527.000000	36.940465
2526.000000	36.945219
2525.000000	36.949207
2524.000000	36.952106
2523.000000	36.954150
2522.000000	36.956180
2521.000000	36.958815
2520.000000	36.962037
2519.000000	36.965930
2518.000000	36.970957
2517.000000	36.976853
2516.000000	36.982041
2515.000000	36.985151
2514.000000	36.986653
2513.000000	36.988188
2512.000000	36.990750
2511.000000	36.994341
2510.000000	36.998795
2509.000000	37.003833
2508.000000	37.008654
2507.000000	37.012507
2506.000000	37.015622
2505.000000	37.018739
2504.000000	37.021930
2503.000000	37.024695
2502.000000	37.027010
2501.000000	37.029399
2500.000000	37.032066
2499.000000	37.034783
2498.000000	37.037609
2497.000000	37.040991
2496.000000	37.045142
2495.000000	37.049874
2494.000000	37.054930
2493.000000	37.059924
2492.000000	37.064232
2491.000000	37.067626
2490.000000	37.070788
2489.000000	37.074464
2488.000000	37.078348
2487.000000	37.081625
2486.000000	37.084464
2485.000000	37.088025
2484.000000	37.092891
2483.000000	37.098306
2482.000000	37.103189
2481.000000	37.107204
2480.000000	37.110592
2479.000000	37.113531
2478.000000	37.116059
2477.000000	37.118300
2476.000000	37.120451
2475.000000	37.122659
2474.000000	37.125012
2473.000000	37.127604
2472.000000	37.130606
2471.000000	37.134217
2470.000000	37.138282
2469.000000	37.142006
2468.000000	37.144531
2467.000000	37.146001
2466.000000	37.147558
2465.000000	37.149968
2464.000000	37.152742
2463.000000	37.154965
2462.000000	37.156505
2461.000000	37.157954
2460.000000	37.159856
2459.000000	37.162477
2458.000000	37.165858
2457.000000	37.169542
2456.000000	37.172669
2455.000000	37.174906
2454.000000	37.176910
2453.000000	37.179336
2452.000000	37.181860
2451.000000	37.183838
2450.000000	37.185515
2449.000000	37.187791
2448.000000	37.190952
2447.000000	37.194319
2446.000000	37.197064
2445.000000	37.198931
2444.000000	37.200343
2443.000000	37.202261
2442.000000	37.205590
2441.000000	37.210147
2440.000000	37.214465
2439.000000	37.217201
2438.000000	37.218566
2437.000000	37.219929
2436.000000	37.222322
2435.000000	37.225828
2434.000000	37.230073
2433.000000	37.234522
2432.000000	37.238393
2431.000000	37.240951
2430.000000	37.242038
2429.000000	37.242109
2428.000000	37.241936
2427.000000	37.242489
2426.000000	37.244681
2425.000000	37.248662
2424.000000	37.253553
2423.000000	37.258271
2422.000000	37.262403
2421.000000	37.266051
2420.000000	37.269288
2419.000000	37.272195
2418.000000	37.275010
2417.000000	37.277692
2416.000000	37.279741
2415.000000	37.280965
2414.000000	37.282123
2413.000000	37.284260
2412.000000	37.287678
2411.000000	37.291964
2410.000000	37.296632
2409.000000	37.301207
2408.000000	37.305102
2407.000000	37.308051
2406.000000	37.310482
2405.000000	37.313013
2404.000000	37.315836
2403.000000	37.318953
2402.000000	37.322531
2401.000000	37.326502
2400.000000	37.330259
2399.000000	37.333364
2398.000000	37.336240
2397.000000	37.339624
2396.000000	37.343644
2395.000000	37.347949
2394.000000	37.352348
2393.000000	37.356783
2392.000000	37.361054
2391.000000	37.365108
2390.000000	37.369203
2389.000000	37.373150
2388.000000	37.375774
2387.000000	37.375738
2386.000000	37.372489
2385.000000	37.365714
2384.000000	37.354169
2383.000000	37.335719
2382.000000	37.308324
2381.000000	37.270499
2380.000000	37.221297
2379.000000	37.160695
2378.000000	37.089735
2377.000000	37.009550
2376.000000	36.920343
2375.000000	36.821906
2374.000000	36.714873
2373.000000	36.600913
2372.000000	36.482058
2371.000000	36.360665
2370.000000	36.239779
2369.000000	36.122630
2368.000000	36.011814
2367.000000	35.909670
2366.000000	35.819373
2365.000000	35.744732
2364.000000	35.688706
2363.000000	35.652793
2362.000000	35.638014
2361.000000	35.645696
2360.000000	35.676865
2359.000000	35.731349
2358.000000	35.807987
2357.000000	35.905495
2356.000000	36.022758
2355.000000	36.158407
2354.000000	36.310143
2353.000000	36.473173
2352.000000	36.636845
2351.000000	36.781294
2350.000000	36.879622
2349.000000	36.908709
2348.000000	36.863106
2347.000000	36.759933
2346.000000	36.628917
2345.000000	36.496289
2344.000000	36.376072
2343.000000	36.272853
2342.000000	36.188024
2341.000000	36.122236
2340.000000	36.075111
2339.000000	36.045728
2338.000000	36.033213
2337.000000	36.035670
2336.000000	36.049245
2335.000000	36.069750
2334.000000	36.095116
2333.000000	36.125545
2332.000000	36.161762
2331.000000	36.203901
2330.000000	36.251469
2329.000000	36.303223
2328.000000	36.357252
2327.000000	36.412069
2326.000000	36.467555
2325.000000	36.524226
2324.000000	36.581815
2323.000000	36.639163
2322.000000	36.695219
2321.000000	36.749587
2320.000000	36.802292
2319.000000	36.853478
2318.000000	36.903021
2317.000000	36.950098
2316.000000	36.993561
2315.000000	37.033145
2314.000000	37.069781
2313.000000	37.104262
2312.000000	37.136184
2311.000000	37.164669
2310.000000	37.189575
2309.000000	37.211466
2308.000000	37.231042
2307.000000	37.249206
2306.000000	37.266939
2305.000000	37.284289
2304.000000	37.300000
2303.000000	37.312940
2302.000000	37.323519
2301.000000	37.333020
2300.000000	37.342022
2299.000000	37.350239
2298.000000	37.357493
2297.000000	37.363978
2296.000000	37.369766
2295.000000	37.374794
2294.000000	37.379254
2293.000000	37.383500
2292.000000	37.387693
2291.000000	37.391861
2290.000000	37.396047
2289.000000	37.400114
2288.000000	37.403770
2287.000000	37.406957
2286.000000	37.409658
2285.000000	37.411222
2284.000000	37.410762
2283.000000	37.408621
2282.000000	37.406564
2281.000000	37.405852
2280.000000	37.405897
2279.000000	37.405426
2278.000000	37.404175
2277.000000	37.402698
2276.000000	37.401310
2275.000000	37.400096
2274.000000	37.399360
2273.000000	37.399178
2272.000000	37.398985
2271.000000	37.398350
2270.000000	37.397653
2269.000000	37.397272
2268.000000	37.396688
2267.000000	37.395214
2266.000000	37.393106
2265.000000	37.391140
2264.000000	37.389542
2263.000000	37.388146
2262.000000	37.387163
2261.000000	37.386969
2260.000000	37.387421
2259.000000	37.388096
2258.000000	37.388903
2257.000000	37.389870
2256.000000	37.390696
2255.000000	37.391132
2254.000000	37.391430
2253.000000	37.391897
2252.000000	37.392463
2251.000000	37.393212
2250.000000	37.394729
2249.000000	37.397243
2248.000000	37.399938
2247.000000	37.401857
2246.000000	37.403093
2245.000000	37.404449
2244.000000	37.406354
2243.000000	37.408705
2242.000000	37.411322
2241.000000	37.413960
2240.000000	37.416249
2239.000000	37.418196
2238.000000	37.420341
2237.000000	37.422979
2236.000000	37.425723
2235.000000	37.428269
2234.000000	37.430966
2233.000000	37.434152
2232.000000	37.437491
2231.000000	37.440447
2230.000000	37.442798
2229.000000	37.444299
2228.000000	37.444664
2227.000000	37.444433
2226.000000	37.445012
2225.000000	37.447171
2224.000000	37.450204
2223.000000	37.453142
2222.000000	37.455959
2221.000000	37.458890
2220.000000	37.461456
2219.000000	37.463061
2218.000000	37.463912
2217.000000	37.464586
2216.000000	37.465326
2215.000000	37.466437
2214.000000	37.468555
2213.000000	37.471654
2212.000000	37.474429
2211.000000	37.475555
2210.000000	37.475023
2209.000000	37.473661
2208.000000	37.472101
2207.000000	37.470950
2206.000000	37.471089
2205.000000	37.472754
2204.000000	37.474874
2203.000000	37.476237
2202.000000	37.476823
2201.000000	37.477289
2200.000000	37.477771
2199.000000	37.477998
2198.000000	37.478049
2197.000000	37.478213
2196.000000	37.478578
2195.000000	37.479331
2194.000000	37.480833
2193.000000	37.482824
2192.000000	37.484285
2191.000000	37.484750
2190.000000	37.484965
2189.000000	37.485614
2188.000000	37.486289
2187.000000	37.486430
2186.000000	37.486379
2185.000000	37.486587
2184.000000	37.486644
2183.000000	37.486057
2182.000000	37.485299
2181.000000	37.485154
2180.000000	37.485586
2179.000000	37.486030
2178.000000	37.486251
2177.000000	37.486279
2176.000000	37.486118
2175.000000	37.485918
2174.000000	37.485537
2173.000000	37.483691
2172.000000	37.479002
2171.000000	37.472661
2170.000000	37.468521
2169.000000	37.469242
2168.000000	37.473424
2167.000000	37.477663
2166.000000	37.480286
2165.000000	37.481791
2164.000000	37.482882
2163.000000	37.483824
2162.000000	37.485039
2161.000000	37.486683
2160.000000	37.488023
2159.000000	37.488425
2158.000000	37.488539
2157.000000	37.489416
2156.000000	37.490996
2155.000000	37.492485
2154.000000	37.493561
2153.000000	37.494191
2152.000000	37.494040
2151.000000	37.493246
2150.000000	37.493045
2149.000000	37.494347
2148.000000	37.496308
2147.000000	37.497489
2146.000000	37.497835
2145.000000	37.498275
2144.000000	37.499003
2143.000000	37.499491
2142.000000	37.499708
2141.000000	37.500024
2140.000000	37.500235
2139.000000	37.499853
2138.000000	37.499123
2137.000000	37.498730
2136.000000	37.498810
2135.000000	37.499148
2134.000000	37.499911
2133.000000	37.501257
2132.000000	37.502643
2131.000000	37.503438
2130.000000	37.503875
2129.000000	37.504615
2128.000000	37.505823
2127.000000	37.507351
2126.000000	37.509258
2125.000000	37.511416
2124.000000	37.513189
2123.000000	37.514218
2122.000000	37.514927
2121.000000	37.515688
2120.000000	37.516269
2119.000000	37.516695
2118.000000	37.517693
2117.000000	37.519522
2116.000000	37.521309
2115.000000	37.522350
2114.000000	37.523142
2113.000000	37.524390
2112.000000	37.526047
2111.000000	37.528158
2110.000000	37.531444
2109.000000	37.536050
2108.000000	37.540764
2107.000000	37.544552
2106.000000	37.547841
2105.000000	37.551327
2104.000000	37.554669
2103.000000	37.557412
2102.000000	37.560049
2101.000000	37.563009
2100.000000	37.565697
2099.000000	37.567692
2098.000000	37.569782
2097.000000	37.572665
2096.000000	37.575728
2095.000000	37.578316
2094.000000	37.581010
2093.000000	37.584421
2092.000000	37.587916
2091.000000	37.590825
2090.000000	37.593728
2089.000000	37.597248
2088.000000	37.600834
2087.000000	37.604120
2086.000000	37.608123
2085.000000	37.613508
2084.000000	37.618953
2083.000000	37.622962
2082.000000	37.626170
2081.000000	37.630086
2080.000000	37.634644
2079.000000	37.638797
2078.000000	37.642567
2077.000000	37.646694
2076.000000	37.651064
2075.000000	37.655197
2074.000000	37.659480
2073.000000	37.664282
2072.000000	37.668739
2071.000000	37.672056
2070.000000	37.675067
2069.000000	37.678819
2068.000000	37.682631
2067.000000	37.685424
2066.000000	37.688033
2065.000000	37.692176
2064.000000	37.697838
2063.000000	37.703689
2062.000000	37.709465
2061.000000	37.715909
2060.000000	37.722762
2059.000000	37.728738
2058.000000	37.733337
2057.000000	37.737195
2056.000000	37.740933
2055.000000	37.744976
2054.000000	37.749909
2053.000000	37.755612
2052.000000	37.760701
2051.000000	37.764181
2050.000000	37.766954
2049.000000	37.770398
2048.000000	37.774423
2047.000000	37.778309
2046.000000	37.782329
2045.000000	37.786828
2044.000000	37.790865
2043.000000	37.793664
2042.000000	37.796441
2041.000000	37.800796
2040.000000	37.806184
2039.000000	37.810967
2038.000000	37.815089
2037.000000	37.819562
2036.000000	37.824083
2035.000000	37.827351
2034.000000	37.829108
2033.000000	37.829774
2032.000000	37.828806
2031.000000	37.825824
2030.000000	37.822961
2029.000000	37.823601
2028.000000	37.828673
2027.000000	37.836021
2026.000000	37.843223
2025.000000	37.849197
2024.000000	37.853458
2023.000000	37.855948
2022.000000	37.857584
2021.000000	37.859179
2020.000000	37.860060
2019.000000	37.859523
2018.000000	37.859230
2017.000000	37.862017
2016.000000	37.868379
2015.000000	37.876066
2014.000000	37.883075
2013.000000	37.889107
2012.000000	37.894183
2011.000000	37.897927
2010.000000	37.900628
2009.000000	37.903332
2008.000000	37.906537
2007.000000	37.910001
2006.000000	37.913759
2005.000000	37.917915
2004.000000	37.921662
2003.000000	37.924009
2002.000000	37.925278
2001.000000	37.926470
2000.000000	37.927588
1999.000000	37.928242
1998.000000	37.929275
1997.000000	37.931471
1996.000000	37.932784
1995.000000	37.929482
1994.000000	37.920989
1993.000000	37.911766
1992.000000	37.907332
1991.000000	37.909439
1990.000000	37.915714
1989.000000	37.922689
1988.000000	37.928274
1987.000000	37.932239
1986.000000	37.935415
1985.000000	37.938485
1984.000000	37.941224
1983.000000	37.942856
1982.000000	37.942862
1981.000000	37.941166
1980.000000	37.937953
1979.000000	37.933831
1978.000000	37.929819
1977.000000	37.926643
1976.000000	37.924257
1975.000000	37.922362
1974.000000	37.920863
1973.000000	37.919336
1972.000000	37.916503
1971.000000	37.910864
1970.000000	37.901927
1969.000000	37.890991
1968.000000	37.881100
1967.000000	37.875680
1966.000000	37.875948
1965.000000	37.879291
1964.000000	37.880682
1963.000000	37.875674
1962.000000	37.862202
1961.000000	37.841703
1960.000000	37.820478
1959.000000	37.808052
1958.000000	37.810162
1957.000000	37.822837
1956.000000	37.836030
1955.000000	37.843350
1954.000000	37.845664
1953.000000	37.845792
1952.000000	37.843967
1951.000000	37.839767
1950.000000	37.834555
1949.000000	37.829604
1948.000000	37.824048
1947.000000	37.816221
1946.000000	37.805017
1945.000000	37.789751
1944.000000	37.772107
1943.000000	37.758814
1942.000000	37.757748
1941.000000	37.768917
1940.000000	37.782833
1939.000000	37.790258
1938.000000	37.790317
1937.000000	37.787057
1936.000000	37.782348
1935.000000	37.775926
1934.000000	37.769078
1933.000000	37.763803
1932.000000	37.759825
1931.000000	37.755679
1930.000000	37.751431
1929.000000	37.747621
1928.000000	37.742719
1927.000000	37.733829
1926.000000	37.719325
1925.000000	37.700372
1924.000000	37.681440
1923.000000	37.668166
1922.000000	37.660513
1921.000000	37.648923
1920.000000	37.624222
1919.000000	37.593094
1918.000000	37.576019
1917.000000	37.585088
1916.000000	37.609792
1915.000000	37.629532
1914.000000	37.634217
1913.000000	37.626894
1912.000000	37.612828
1911.000000	37.595372
1910.000000	37.579523
1909.000000	37.570169
1908.000000	37.566235
1907.000000	37.562361
1906.000000	37.556031
1905.000000	37.548401
1904.000000	37.539698
1903.000000	37.529253
1902.000000	37.518941
1901.000000	37.511288
1900.000000	37.504737
1899.000000	37.495294
1898.000000	37.482167
1897.000000	37.468130
1896.000000	37.455801
1895.000000	37.446730
1894.000000	37.441224
1893.000000	37.435228
1892.000000	37.421585
1891.000000	37.400193
1890.000000	37.383254
1889.000000	37.383206
1888.000000	37.397549
1887.000000	37.412327
1886.000000	37.418586
1885.000000	37.418287
1884.000000	37.415905
1883.000000	37.412600
1882.000000	37.409009
1881.000000	37.406493
1880.000000	37.404180
1879.000000	37.399955
1878.000000	37.394675
1877.000000	37.390857
1876.000000	37.387953
1875.000000	37.383149
1874.000000	37.374235
1873.000000	37.356370
1872.000000	37.320775
1871.000000	37.266554
1870.000000	37.212367
1869.000000	37.185414
1868.000000	37.196099
1867.000000	37.230290
1866.000000	37.266668
1865.000000	37.293444
1864.000000	37.307782
1863.000000	37.309950
1862.000000	37.303638
1861.000000	37.295460
1860.000000	37.289149
1859.000000	37.283719
1858.000000	37.278575
1857.000000	37.275096
1856.000000	37.272117
1855.000000	37.266051
1854.000000	37.256967
1853.000000	37.248404
1852.000000	37.240218
1851.000000	37.228476
1850.000000	37.212580
1849.000000	37.192751
1848.000000	37.158707
1847.000000	37.094551
1846.000000	37.005091
1845.000000	36.928718
1844.000000	36.909917
1843.000000	36.957293
1842.000000	37.035272
1841.000000	37.097331
1840.000000	37.122120
1839.000000	37.118529
1838.000000	37.105381
1837.000000	37.093468
1836.000000	37.083934
1835.000000	37.073595
1834.000000	37.055299
1833.000000	37.018359
1832.000000	36.960024
1831.000000	36.898565
1830.000000	36.863759
1829.000000	36.866102
1828.000000	36.882719
1827.000000	36.883697
1826.000000	36.867126
1825.000000	36.856635
1824.000000	36.867833
1823.000000	36.891068
1822.000000	36.907900
1821.000000	36.910819
1820.000000	36.902261
1819.000000	36.886000
1818.000000	36.866950
1817.000000	36.851574
1816.000000	36.841019
1815.000000	36.828007
1814.000000	36.805392
1813.000000	36.774518
1812.000000	36.742823
1811.000000	36.717576
1810.000000	36.703425
1809.000000	36.700244
1808.000000	36.700724
1807.000000	36.694699
1806.000000	36.677436
1805.000000	36.649668
1804.000000	36.611133
1803.000000	36.562175
1802.000000	36.511962
1801.000000	36.475657
1800.000000	36.460298
1799.000000	36.459584
1798.000000	36.461805
1797.000000	36.453120
1796.000000	36.414619
1795.000000	36.333689
1794.000000	36.227551
1793.000000	36.143512
1792.000000	36.122659
1791.000000	36.164863
1790.000000	36.232643
1789.000000	36.282624
1788.000000	36.290771
1787.000000	36.259880
1786.000000	36.213836
1785.000000	36.178983
1784.000000	36.162206
1783.000000	36.149596
1782.000000	36.129042
1781.000000	36.105615
1780.000000	36.089964
1779.000000	36.081441
1778.000000	36.068927
1777.000000	36.037478
1776.000000	35.968101
1775.000000	35.848666
1774.000000	35.702114
1773.000000	35.590596
1772.000000	35.566257
1771.000000	35.618067
1770.000000	35.685872
1769.000000	35.727549
1768.000000	35.752614
1767.000000	35.785585
1766.000000	35.818217
1765.000000	35.815588
1764.000000	35.762057
1763.000000	35.685651
1762.000000	35.633387
1761.000000	35.626580
1760.000000	35.642806
1759.000000	35.642715
1758.000000	35.613676
1757.000000	35.579860
1756.000000	35.563718
1755.000000	35.547103
1754.000000	35.487688
1753.000000	35.374991
1752.000000	35.253225
1751.000000	35.179819
1750.000000	35.172032
1749.000000	35.202580
1748.000000	35.235856
1747.000000	35.253904
1746.000000	35.253528
1745.000000	35.235741
1744.000000	35.201777
1743.000000	35.150828
1742.000000	35.082467
1741.000000	35.010029
1740.000000	34.963936
1739.000000	34.958071
1738.000000	34.948583
1737.000000	34.856627
1736.000000	34.660064
1735.000000	34.449917
1734.000000	34.362526
1733.000000	34.449352
1732.000000	34.634220
1731.000000	34.800877
1730.000000	34.896176
1729.000000	34.938344
1728.000000	34.957276
1727.000000	34.960555
1726.000000	34.948239
1725.000000	34.928981
1724.000000	34.912168
1723.000000	34.894200
1722.000000	34.852817
1721.000000	34.752446
1720.000000	34.572881
1719.000000	34.351872
1718.000000	34.185240
1717.000000	34.154970
1716.000000	34.255011
1715.000000	34.405973
1714.000000	34.535937
1713.000000	34.623190
1712.000000	34.670143
1711.000000	34.676477
1710.000000	34.647736
1709.000000	34.598665
1708.000000	34.535845
1707.000000	34.462076
1706.000000	34.399503
1705.000000	34.367148
1704.000000	34.324373
1703.000000	34.191151
1702.000000	33.962284
1701.000000	33.756188
1700.000000	33.692477
1699.000000	33.746424
1698.000000	33.788907
1697.000000	33.763905
1696.000000	33.757899
1695.000000	33.873532
1694.000000	34.090122
1693.000000	34.288252
1692.000000	34.382116
1691.000000	34.386168
1690.000000	34.359185
1689.000000	34.315484
1688.000000	34.206653
1687.000000	33.990650
1686.000000	33.716381
1685.000000	33.523071
1684.000000	33.529831
1683.000000	33.722294
1682.000000	33.967871
1681.000000	34.142603
1680.000000	34.216401
1679.000000	34.215910
1678.000000	34.156450
1677.000000	34.049339
1676.000000	33.944329
1675.000000	33.906128
1674.000000	33.940387
1673.000000	33.979413
1672.000000	33.957977
1671.000000	33.884236
1670.000000	33.823907
1669.000000	33.829786
1668.000000	33.897550
1667.000000	33.976623
1666.000000	34.010579
1665.000000	33.976841
1664.000000	33.904014
1663.000000	33.849733
1662.000000	33.850099
1661.000000	33.889865
1660.000000	33.926581
1659.000000	33.932120
1658.000000	33.889766
1657.000000	33.757891
1656.000000	33.482793
1655.000000	33.086614
1654.000000	32.724791
1653.000000	32.598303
1652.000000	32.774731
1651.000000	33.110085
1650.000000	33.369880
1649.000000	33.425194
1648.000000	33.327763
1647.000000	33.221039
1646.000000	33.208926
1645.000000	33.298864
1644.000000	33.428611
1643.000000	33.526416
1642.000000	33.559345
1641.000000	33.538651
1640.000000	33.480209
1639.000000	33.370826
1638.000000	33.195015
1637.000000	32.993369
1636.000000	32.862238
1635.000000	32.872754
1634.000000	33.000258
1633.000000	33.147806
1632.000000	33.230679
1631.000000	33.228273
1630.000000	33.170015
1629.000000	33.095452
1628.000000	33.027327
1627.000000	32.963150
1626.000000	32.884094
1625.000000	32.780301
1624.000000	32.671308
1623.000000	32.592870
1622.000000	32.555682
1621.000000	32.520240
1620.000000	32.423242
1619.000000	32.239624
1618.000000	32.021541
1617.000000	31.866809
1616.000000	31.835135
1615.000000	31.892150
1614.000000	31.942125
1613.000000	31.915336
1612.000000	31.816549
1611.000000	31.694887
1610.000000	31.589283
1609.000000	31.512923
1608.000000	31.470036
1607.000000	31.463014
1606.000000	31.484515
1605.000000	31.519425
1604.000000	31.558367
1603.000000	31.601152
1602.000000	31.647376
1601.000000	31.692537
1600.000000	31.733892
1599.000000	31.772228
1598.000000	31.806755
1597.000000	31.834766
1596.000000	31.857189
1595.000000	31.878494
1594.000000	31.899853
1593.000000	31.917208
1592.000000	31.927083
1591.000000	31.930167
1590.000000	31.928347
1589.000000	31.921988
1588.000000	31.911407
1587.000000	31.898400
1586.000000	31.884981
1585.000000	31.871827
1584.000000	31.859030
1583.000000	31.848308
1582.000000	31.841454
1581.000000	31.829660
1580.000000	31.782807
1579.000000	31.665133
1578.000000	31.483251
1577.000000	31.316540
1576.000000	31.269942
1575.000000	31.374252
1574.000000	31.542993
1573.000000	31.646821
1572.000000	31.629328
1571.000000	31.540693
1570.000000	31.468680
1569.000000	31.456649
1568.000000	31.485487
1567.000000	31.511350
1566.000000	31.507032
1565.000000	31.470266
1564.000000	31.395889
1563.000000	31.247261
1562.000000	30.980743
1561.000000	30.622910
1560.000000	30.307708
1559.000000	30.192027
1558.000000	30.315458
1557.000000	30.565663
1556.000000	30.794814
1555.000000	30.947115
1554.000000	31.058160
1553.000000	31.164959
1552.000000	31.260693
1551.000000	31.329184
1550.000000	31.377816
1549.000000	31.418884
1548.000000	31.443624
1547.000000	31.434746
1546.000000	31.392374
1545.000000	31.329982
1544.000000	31.249101
1543.000000	31.135413
1542.000000	30.990373
1541.000000	30.865087
1540.000000	30.848873
1539.000000	31.001087
1538.000000	31.280534
1537.000000	31.555577
1536.000000	31.707915
1535.000000	31.731031
1534.000000	31.715953
1533.000000	31.745979
1532.000000	31.824640
1531.000000	31.901549
1530.000000	31.935958
1529.000000	31.921108
1528.000000	31.872425
1527.000000	31.815113
1526.000000	31.768262
1525.000000	31.720333
1524.000000	31.634752
1523.000000	31.504330
1522.000000	31.387899
1521.000000	31.360349
1520.000000	31.426204
1519.000000	31.512540
1518.000000	31.553358
1517.000000	31.552019
1516.000000	31.548097
1515.000000	31.553035
1514.000000	31.546397
1513.000000	31.517805
1512.000000	31.475375
1511.000000	31.408602
1510.000000	31.274559
1509.000000	31.046836
1508.000000	30.773914
1507.000000	30.567580
1506.000000	30.515513
1505.000000	30.598526
1504.000000	30.695144
1503.000000	30.670070
1502.000000	30.459240
1501.000000	30.077337
1500.000000	29.567868
