PE IR       SUBTECH     SPECTRUM    ASCII       PEDS        4.00        
   -1
TE108B2_005.ASC
20/02/27
13:25:49.00
20/02/27
13:25:49.00
Administrator
Sample 005 By Administrator Date Thursday, February 27 2020
1500.000000
#HDR
-1
-1
#GR
cm-1
EGY
1.0
0.0
4000.000000
-1.000000
2501
8
15.339657
10.802499
#DATA
4000.000000	10.802499
3999.000000	10.807759
3998.000000	10.812725
3997.000000	10.817548
3996.000000	10.822454
3995.000000	10.827505
3994.000000	10.832536
3993.000000	10.837372
3992.000000	10.842088
3991.000000	10.846977
3990.000000	10.852291
3989.000000	10.858007
3988.000000	10.863810
3987.000000	10.869286
3986.000000	10.874230
3985.000000	10.878829
3984.000000	10.883514
3983.000000	10.888604
3982.000000	10.894093
3981.000000	10.899716
3980.000000	10.905134
3979.000000	10.910082
3978.000000	10.914496
3977.000000	10.918611
3976.000000	10.922849
3975.000000	10.927546
3974.000000	10.932773
3973.000000	10.938423
3972.000000	10.944347
3971.000000	10.950372
3970.000000	10.956276
3969.000000	10.961866
3968.000000	10.967094
3967.000000	10.972069
3966.000000	10.976979
3965.000000	10.981977
3964.000000	10.987092
3963.000000	10.992217
3962.000000	10.997266
3961.000000	11.002340
3960.000000	11.007666
3959.000000	11.013349
3958.000000	11.019250
3957.000000	11.025125
3956.000000	11.030786
3955.000000	11.036069
3954.000000	11.040756
3953.000000	11.044671
3952.000000	11.047911
3951.000000	11.050980
3950.000000	11.054672
3949.000000	11.059624
3948.000000	11.065792
3947.000000	11.072319
3946.000000	11.078139
3945.000000	11.082952
3944.000000	11.087599
3943.000000	11.093419
3942.000000	11.101136
3941.000000	11.110308
3940.000000	11.119678
3939.000000	11.127936
3938.000000	11.134234
3937.000000	11.138261
3936.000000	11.140183
3935.000000	11.140761
3934.000000	11.141462
3933.000000	11.144113
3932.000000	11.149942
3931.000000	11.158718
3930.000000	11.168784
3929.000000	11.178064
3928.000000	11.185279
3927.000000	11.190490
3926.000000	11.194785
3925.000000	11.199373
3924.000000	11.204701
3923.000000	11.210151
3922.000000	11.214611
3921.000000	11.217514
3920.000000	11.219556
3919.000000	11.222529
3918.000000	11.228368
3917.000000	11.238005
3916.000000	11.250701
3915.000000	11.264395
3914.000000	11.276916
3913.000000	11.287198
3912.000000	11.295433
3911.000000	11.302051
3910.000000	11.306506
3909.000000	11.307109
3908.000000	11.302210
3907.000000	11.291935
3906.000000	11.278979
3905.000000	11.267621
3904.000000	11.261535
3903.000000	11.262217
3902.000000	11.269222
3901.000000	11.281506
3900.000000	11.298240
3899.000000	11.318361
3898.000000	11.339641
3897.000000	11.358490
3896.000000	11.370991
3895.000000	11.374982
3894.000000	11.372026
3893.000000	11.367376
3892.000000	11.366856
3891.000000	11.372387
3890.000000	11.380251
3889.000000	11.384388
3888.000000	11.382300
3887.000000	11.377830
3886.000000	11.377873
3885.000000	11.386025
3884.000000	11.399563
3883.000000	11.412688
3882.000000	11.422437
3881.000000	11.430839
3880.000000	11.441384
3879.000000	11.454305
3878.000000	11.466092
3877.000000	11.473162
3876.000000	11.474701
3875.000000	11.471692
3874.000000	11.464569
3873.000000	11.453549
3872.000000	11.441336
3871.000000	11.433809
3870.000000	11.436386
3869.000000	11.449140
3868.000000	11.466239
3867.000000	11.480768
3866.000000	11.490368
3865.000000	11.498102
3864.000000	11.508434
3863.000000	11.523017
3862.000000	11.540126
3861.000000	11.556231
3860.000000	11.566315
3859.000000	11.562968
3858.000000	11.538433
3857.000000	11.491168
3856.000000	11.432035
3855.000000	11.382742
3854.000000	11.365145
3853.000000	11.388548
3852.000000	11.444598
3851.000000	11.513310
3850.000000	11.574890
3849.000000	11.618437
3848.000000	11.642841
3847.000000	11.652601
3846.000000	11.653476
3845.000000	11.650305
3844.000000	11.645705
3843.000000	11.639066
3842.000000	11.627359
3841.000000	11.608912
3840.000000	11.587458
3839.000000	11.572023
3838.000000	11.571638
3837.000000	11.588846
3836.000000	11.617810
3835.000000	11.648546
3834.000000	11.673703
3833.000000	11.692060
3832.000000	11.706624
3831.000000	11.720133
3830.000000	11.732768
3829.000000	11.743413
3828.000000	11.751624
3827.000000	11.757175
3826.000000	11.758212
3825.000000	11.751767
3824.000000	11.737691
3823.000000	11.721580
3822.000000	11.711905
3821.000000	11.712594
3820.000000	11.718991
3819.000000	11.722622
3818.000000	11.720748
3817.000000	11.720477
3816.000000	11.732393
3815.000000	11.760308
3814.000000	11.797266
3813.000000	11.830753
3812.000000	11.850652
3811.000000	11.853469
3810.000000	11.842422
3809.000000	11.825897
3808.000000	11.814023
3807.000000	11.812450
3806.000000	11.817496
3805.000000	11.818971
3804.000000	11.810371
3803.000000	11.796635
3802.000000	11.790800
3801.000000	11.802349
3800.000000	11.829034
3799.000000	11.859959
3798.000000	11.885442
3797.000000	11.903533
3796.000000	11.918042
3795.000000	11.932499
3794.000000	11.946917
3793.000000	11.959275
3792.000000	11.968357
3791.000000	11.974578
3790.000000	11.978918
3789.000000	11.982008
3788.000000	11.984276
3787.000000	11.986396
3786.000000	11.989128
3785.000000	11.992590
3784.000000	11.995828
3783.000000	11.997412
3782.000000	11.996928
3781.000000	11.996081
3780.000000	11.997964
3779.000000	12.004765
3778.000000	12.015979
3777.000000	12.028766
3776.000000	12.039741
3775.000000	12.046230
3774.000000	12.046745
3773.000000	12.041583
3772.000000	12.033564
3771.000000	12.027290
3770.000000	12.026446
3769.000000	12.031477
3768.000000	12.040143
3767.000000	12.050150
3766.000000	12.060643
3765.000000	12.071190
3764.000000	12.080171
3763.000000	12.085167
3762.000000	12.085206
3761.000000	12.082385
3760.000000	12.080843
3759.000000	12.083463
3758.000000	12.088717
3757.000000	12.090304
3756.000000	12.080526
3755.000000	12.055406
3754.000000	12.018369
3753.000000	11.980023
3752.000000	11.953668
3751.000000	11.948415
3750.000000	11.962743
3749.000000	11.983433
3748.000000	11.993438
3747.000000	11.985278
3746.000000	11.969122
3745.000000	11.966268
3744.000000	11.991988
3743.000000	12.042476
3742.000000	12.097658
3741.000000	12.136190
3740.000000	12.148493
3739.000000	12.139209
3738.000000	12.120648
3737.000000	12.104571
3736.000000	12.097616
3735.000000	12.100951
3734.000000	12.112961
3733.000000	12.131980
3732.000000	12.156431
3731.000000	12.182904
3730.000000	12.205743
3729.000000	12.220206
3728.000000	12.226157
3727.000000	12.227898
3726.000000	12.230230
3725.000000	12.235113
3724.000000	12.241933
3723.000000	12.249718
3722.000000	12.258230
3721.000000	12.267497
3720.000000	12.277237
3719.000000	12.286654
3718.000000	12.293907
3717.000000	12.295616
3716.000000	12.288099
3715.000000	12.270576
3714.000000	12.247621
3713.000000	12.227744
3712.000000	12.218540
3711.000000	12.222469
3710.000000	12.236674
3709.000000	12.256119
3708.000000	12.276398
3707.000000	12.294118
3706.000000	12.306281
3705.000000	12.311043
3704.000000	12.309564
3703.000000	12.306293
3702.000000	12.306328
3701.000000	12.311868
3700.000000	12.321066
3699.000000	12.330154
3698.000000	12.336308
3697.000000	12.338675
3696.000000	12.337264
3695.000000	12.331462
3694.000000	12.319597
3693.000000	12.299967
3692.000000	12.273066
3691.000000	12.243991
3690.000000	12.222595
3689.000000	12.219136
3688.000000	12.237580
3687.000000	12.271865
3686.000000	12.309209
3685.000000	12.337986
3684.000000	12.353429
3683.000000	12.357356
3682.000000	12.353457
3681.000000	12.342699
3680.000000	12.322556
3679.000000	12.290917
3678.000000	12.251873
3677.000000	12.217269
3676.000000	12.199777
3675.000000	12.202348
3674.000000	12.214767
3673.000000	12.222803
3672.000000	12.221655
3671.000000	12.219681
3670.000000	12.228923
3669.000000	12.253212
3668.000000	12.285464
3667.000000	12.314786
3666.000000	12.334455
3665.000000	12.344095
3664.000000	12.346929
3663.000000	12.346239
3662.000000	12.343329
3661.000000	12.337064
3660.000000	12.325371
3659.000000	12.308360
3658.000000	12.290514
3657.000000	12.278739
3656.000000	12.276514
3655.000000	12.279272
3654.000000	12.276327
3653.000000	12.258893
3652.000000	12.227831
3651.000000	12.194319
3650.000000	12.172898
3649.000000	12.172715
3648.000000	12.193104
3647.000000	12.225480
3646.000000	12.258803
3645.000000	12.284909
3644.000000	12.300883
3643.000000	12.308272
3642.000000	12.310474
3641.000000	12.310383
3640.000000	12.309458
3639.000000	12.307918
3638.000000	12.305344
3637.000000	12.301401
3636.000000	12.296231
3635.000000	12.289575
3634.000000	12.279008
3633.000000	12.260112
3632.000000	12.230683
3631.000000	12.196084
3630.000000	12.169366
3629.000000	12.163409
3628.000000	12.181398
3627.000000	12.214255
3626.000000	12.247262
3625.000000	12.268958
3624.000000	12.275234
3623.000000	12.267811
3622.000000	12.251607
3621.000000	12.233396
3620.000000	12.220368
3619.000000	12.216953
3618.000000	12.222126
3617.000000	12.230185
3616.000000	12.235075
3615.000000	12.234267
3614.000000	12.229039
3613.000000	12.221789
3612.000000	12.213986
3611.000000	12.206716
3610.000000	12.202150
3609.000000	12.203102
3608.000000	12.210667
3607.000000	12.222549
3606.000000	12.234194
3605.000000	12.241547
3604.000000	12.242950
3603.000000	12.239107
3602.000000	12.232103
3601.000000	12.224431
3600.000000	12.218074
3599.000000	12.213676
3598.000000	12.210593
3597.000000	12.208016
3596.000000	12.206124
3595.000000	12.205798
3594.000000	12.206975
3593.000000	12.207434
3592.000000	12.203647
3591.000000	12.193577
3590.000000	12.179122
3589.000000	12.165837
3588.000000	12.159569
3587.000000	12.162646
3586.000000	12.172599
3585.000000	12.184355
3584.000000	12.193574
3583.000000	12.198527
3582.000000	12.199736
3581.000000	12.198661
3580.000000	12.196711
3579.000000	12.194840
3578.000000	12.193426
3577.000000	12.192361
3576.000000	12.191340
3575.000000	12.190116
3574.000000	12.188339
3573.000000	12.185038
3572.000000	12.178505
3571.000000	12.167295
3570.000000	12.152051
3569.000000	12.136427
3568.000000	12.125681
3567.000000	12.123415
3566.000000	12.129191
3565.000000	12.138983
3564.000000	12.148036
3563.000000	12.153583
3562.000000	12.155588
3561.000000	12.155637
3560.000000	12.155351
3559.000000	12.155361
3558.000000	12.155203
3557.000000	12.153933
3556.000000	12.150967
3555.000000	12.146647
3554.000000	12.142108
3553.000000	12.138534
3552.000000	12.136266
3551.000000	12.134465
3550.000000	12.131699
3549.000000	12.127125
3548.000000	12.121295
3547.000000	12.115864
3546.000000	12.112431
3545.000000	12.111518
3544.000000	12.112423
3543.000000	12.113846
3542.000000	12.114610
3541.000000	12.114046
3540.000000	12.112060
3539.000000	12.109030
3538.000000	12.105629
3537.000000	12.102502
3536.000000	12.099866
3535.000000	12.097312
3534.000000	12.094047
3533.000000	12.089465
3532.000000	12.083593
3531.000000	12.077055
3530.000000	12.070642
3529.000000	12.064863
3528.000000	12.059743
3527.000000	12.054942
3526.000000	12.050135
3525.000000	12.045400
3524.000000	12.041216
3523.000000	12.037977
3522.000000	12.035437
3521.000000	12.032753
3520.000000	12.029127
3519.000000	12.024402
3518.000000	12.019028
3517.000000	12.013524
3516.000000	12.008042
3515.000000	12.002356
3514.000000	11.996138
3513.000000	11.989225
3512.000000	11.981776
3511.000000	11.974267
3510.000000	11.967278
3509.000000	11.961085
3508.000000	11.955349
3507.000000	11.949262
3506.000000	11.942156
3505.000000	11.934118
3504.000000	11.925988
3503.000000	11.918712
3502.000000	11.912620
3501.000000	11.907268
3500.000000	11.901884
3499.000000	11.895920
3498.000000	11.889282
3497.000000	11.882193
3496.000000	11.874946
3495.000000	11.867708
3494.000000	11.860465
3493.000000	11.853084
3492.000000	11.845478
3491.000000	11.837754
3490.000000	11.830216
3489.000000	11.823155
3488.000000	11.816608
3487.000000	11.810318
3486.000000	11.803959
3485.000000	11.797409
3484.000000	11.790817
3483.000000	11.784455
3482.000000	11.778573
3481.000000	11.773344
3480.000000	11.768824
3479.000000	11.764865
3478.000000	11.761131
3477.000000	11.757334
3476.000000	11.753474
3475.000000	11.749800
3474.000000	11.746516
3473.000000	11.743560
3472.000000	11.740679
3471.000000	11.737661
3470.000000	11.734504
3469.000000	11.731416
3468.000000	11.728701
3467.000000	11.726592
3466.000000	11.725113
3465.000000	11.724077
3464.000000	11.723217
3463.000000	11.722354
3462.000000	11.721449
3461.000000	11.720520
3460.000000	11.719522
3459.000000	11.718314
3458.000000	11.716775
3457.000000	11.714962
3456.000000	11.713136
3455.000000	11.711560
3454.000000	11.710241
3453.000000	11.708874
3452.000000	11.707058
3451.000000	11.704598
3450.000000	11.701671
3449.000000	11.698756
3448.000000	11.696412
3447.000000	11.695018
3446.000000	11.694624
3445.000000	11.694995
3444.000000	11.695801
3443.000000	11.696815
3442.000000	11.697998
3441.000000	11.699500
3440.000000	11.701566
3439.000000	11.704381
3438.000000	11.707951
3437.000000	11.712135
3436.000000	11.716850
3435.000000	11.722201
3434.000000	11.728344
3433.000000	11.735209
3432.000000	11.742432
3431.000000	11.749612
3430.000000	11.756605
3429.000000	11.763504
3428.000000	11.770374
3427.000000	11.777095
3426.000000	11.783502
3425.000000	11.789601
3424.000000	11.795547
3423.000000	11.801461
3422.000000	11.807336
3421.000000	11.813122
3420.000000	11.818783
3419.000000	11.824219
3418.000000	11.829236
3417.000000	11.833698
3416.000000	11.837688
3415.000000	11.841405
3414.000000	11.844926
3413.000000	11.848146
3412.000000	11.850977
3411.000000	11.853514
3410.000000	11.855938
3409.000000	11.858345
3408.000000	11.860738
3407.000000	11.863127
3406.000000	11.865531
3405.000000	11.867888
3404.000000	11.870055
3403.000000	11.871988
3402.000000	11.873904
3401.000000	11.876219
3400.000000	11.879263
3399.000000	11.883040
3398.000000	11.887247
3397.000000	11.891530
3396.000000	11.895710
3395.000000	11.899785
3394.000000	11.903795
3393.000000	11.907764
3392.000000	11.911770
3391.000000	11.915932
3390.000000	11.920243
3389.000000	11.924481
3388.000000	11.928381
3387.000000	11.931901
3386.000000	11.935220
3385.000000	11.938493
3384.000000	11.941695
3383.000000	11.944755
3382.000000	11.947758
3381.000000	11.950914
3380.000000	11.954320
3379.000000	11.957822
3378.000000	11.961132
3377.000000	11.964091
3376.000000	11.966807
3375.000000	11.969512
3374.000000	11.972255
3373.000000	11.974775
3372.000000	11.976772
3371.000000	11.978300
3370.000000	11.979828
3369.000000	11.981839
3368.000000	11.984420
3367.000000	11.987293
3366.000000	11.990153
3365.000000	11.992877
3364.000000	11.995447
3363.000000	11.997869
3362.000000	12.000251
3361.000000	12.002832
3360.000000	12.005781
3359.000000	12.008962
3358.000000	12.012018
3357.000000	12.014706
3356.000000	12.017081
3355.000000	12.019313
3354.000000	12.021438
3353.000000	12.023379
3352.000000	12.025191
3351.000000	12.027145
3350.000000	12.029513
3349.000000	12.032292
3348.000000	12.035208
3347.000000	12.037979
3346.000000	12.040560
3345.000000	12.043123
3344.000000	12.045832
3343.000000	12.048660
3342.000000	12.051421
3341.000000	12.053953
3340.000000	12.056240
3339.000000	12.058377
3338.000000	12.060433
3337.000000	12.062417
3336.000000	12.064349
3335.000000	12.066315
3334.000000	12.068397
3333.000000	12.070575
3332.000000	12.072749
3331.000000	12.074869
3330.000000	12.077008
3329.000000	12.079296
3328.000000	12.081782
3327.000000	12.084358
3326.000000	12.086798
3325.000000	12.088905
3324.000000	12.090679
3323.000000	12.092354
3322.000000	12.094211
3321.000000	12.096336
3320.000000	12.098554
3319.000000	12.100614
3318.000000	12.102383
3317.000000	12.103865
3316.000000	12.105097
3315.000000	12.106147
3314.000000	12.107169
3313.000000	12.108374
3312.000000	12.109862
3311.000000	12.111527
3310.000000	12.113172
3309.000000	12.114748
3308.000000	12.116419
3307.000000	12.118404
3306.000000	12.120752
3305.000000	12.123291
3304.000000	12.125787
3303.000000	12.128129
3302.000000	12.130365
3301.000000	12.132587
3300.000000	12.134781
3299.000000	12.136800
3298.000000	12.138462
3297.000000	12.139695
3296.000000	12.140649
3295.000000	12.141653
3294.000000	12.143025
3293.000000	12.144867
3292.000000	12.146999
3291.000000	12.149130
3290.000000	12.151102
3289.000000	12.153011
3288.000000	12.155091
3287.000000	12.157472
3286.000000	12.160053
3285.000000	12.162585
3284.000000	12.164884
3283.000000	12.166936
3282.000000	12.168825
3281.000000	12.170596
3280.000000	12.172274
3279.000000	12.173968
3278.000000	12.175875
3277.000000	12.178096
3276.000000	12.180487
3275.000000	12.182762
3274.000000	12.184771
3273.000000	12.186656
3272.000000	12.188708
3271.000000	12.191079
3270.000000	12.193664
3269.000000	12.196243
3268.000000	12.198723
3267.000000	12.201200
3266.000000	12.203803
3265.000000	12.206511
3264.000000	12.209157
3263.000000	12.211610
3262.000000	12.213939
3261.000000	12.216398
3260.000000	12.219235
3259.000000	12.222480
3258.000000	12.225896
3257.000000	12.229156
3256.000000	12.232097
3255.000000	12.234802
3254.000000	12.237438
3253.000000	12.240083
3252.000000	12.242740
3251.000000	12.245454
3250.000000	12.248292
3249.000000	12.251199
3248.000000	12.253980
3247.000000	12.256522
3246.000000	12.258988
3245.000000	12.261728
3244.000000	12.264966
3243.000000	12.268583
3242.000000	12.272188
3241.000000	12.275415
3240.000000	12.278210
3239.000000	12.280851
3238.000000	12.283689
3237.000000	12.286836
3236.000000	12.290112
3235.000000	12.293266
3234.000000	12.296182
3233.000000	12.298871
3232.000000	12.301382
3231.000000	12.303835
3230.000000	12.306455
3229.000000	12.309414
3228.000000	12.312617
3227.000000	12.315728
3226.000000	12.318504
3225.000000	12.321053
3224.000000	12.323717
3223.000000	12.326712
3222.000000	12.329937
3221.000000	12.333109
3220.000000	12.336044
3219.000000	12.338800
3218.000000	12.341604
3217.000000	12.344659
3216.000000	12.347950
3215.000000	12.351226
3214.000000	12.354202
3213.000000	12.356845
3212.000000	12.359424
3211.000000	12.362252
3210.000000	12.365402
3209.000000	12.368762
3208.000000	12.372304
3207.000000	12.376176
3206.000000	12.380469
3205.000000	12.385029
3204.000000	12.389605
3203.000000	12.394104
3202.000000	12.398611
3201.000000	12.403217
3200.000000	12.407953
3199.000000	12.412901
3198.000000	12.418169
3197.000000	12.423684
3196.000000	12.429111
3195.000000	12.434111
3194.000000	12.438651
3193.000000	12.443016
3192.000000	12.447507
3191.000000	12.452187
3190.000000	12.456920
3189.000000	12.461597
3188.000000	12.466299
3187.000000	12.471235
3186.000000	12.476506
3185.000000	12.481939
3184.000000	12.487163
3183.000000	12.491898
3182.000000	12.496179
3181.000000	12.500294
3180.000000	12.504540
3179.000000	12.509035
3178.000000	12.513722
3177.000000	12.518498
3176.000000	12.523275
3175.000000	12.527961
3174.000000	12.532484
3173.000000	12.536916
3172.000000	12.541544
3171.000000	12.546670
3170.000000	12.552253
3169.000000	12.557814
3168.000000	12.562821
3167.000000	12.567189
3166.000000	12.571370
3165.000000	12.575948
3164.000000	12.581175
3163.000000	12.586835
3162.000000	12.592483
3161.000000	12.597774
3160.000000	12.602680
3159.000000	12.607467
3158.000000	12.612473
3157.000000	12.617890
3156.000000	12.623673
3155.000000	12.629552
3154.000000	12.635130
3153.000000	12.640121
3152.000000	12.644652
3151.000000	12.649272
3150.000000	12.654487
3149.000000	12.660257
3148.000000	12.666049
3147.000000	12.671403
3146.000000	12.676318
3145.000000	12.681095
3144.000000	12.685969
3143.000000	12.690973
3142.000000	12.696015
3141.000000	12.700969
3140.000000	12.705748
3139.000000	12.710385
3138.000000	12.714981
3137.000000	12.719532
3136.000000	12.723891
3135.000000	12.727978
3134.000000	12.731948
3133.000000	12.736032
3132.000000	12.740280
3131.000000	12.744548
3130.000000	12.748711
3129.000000	12.752781
3128.000000	12.756817
3127.000000	12.760819
3126.000000	12.764723
3125.000000	12.768465
3124.000000	12.772057
3123.000000	12.775616
3122.000000	12.779245
3121.000000	12.782866
3120.000000	12.786239
3119.000000	12.789248
3118.000000	12.792105
3117.000000	12.795170
3116.000000	12.798598
3115.000000	12.802239
3114.000000	12.805855
3113.000000	12.809345
3112.000000	12.812758
3111.000000	12.816211
3110.000000	12.819807
3109.000000	12.823575
3108.000000	12.827451
3107.000000	12.831341
3106.000000	12.835180
3105.000000	12.838907
3104.000000	12.842450
3103.000000	12.845862
3102.000000	12.849429
3101.000000	12.853480
3100.000000	12.858060
3099.000000	12.862847
3098.000000	12.867454
3097.000000	12.871752
3096.000000	12.875906
3095.000000	12.880185
3094.000000	12.884766
3093.000000	12.889638
3092.000000	12.894590
3091.000000	12.899329
3090.000000	12.903672
3089.000000	12.907617
3088.000000	12.911248
3087.000000	12.914664
3086.000000	12.918038
3085.000000	12.921623
3084.000000	12.925571
3083.000000	12.929715
3082.000000	12.933649
3081.000000	12.937063
3080.000000	12.939954
3079.000000	12.942532
3078.000000	12.945003
3077.000000	12.947490
3076.000000	12.950100
3075.000000	12.952914
3074.000000	12.955874
3073.000000	12.958678
3072.000000	12.960890
3071.000000	12.962235
3070.000000	12.962874
3069.000000	12.963373
3068.000000	12.964315
3067.000000	12.965908
3066.000000	12.967996
3065.000000	12.970434
3064.000000	12.973335
3063.000000	12.976856
3062.000000	12.980848
3061.000000	12.984916
3060.000000	12.988861
3059.000000	12.992915
3058.000000	12.997484
3057.000000	13.002759
3056.000000	13.008596
3055.000000	13.014627
3054.000000	13.020348
3053.000000	13.025293
3052.000000	13.029383
3051.000000	13.033117
3050.000000	13.037204
3049.000000	13.041880
3048.000000	13.046664
3047.000000	13.050827
3046.000000	13.054022
3045.000000	13.056448
3044.000000	13.058563
3043.000000	13.060746
3042.000000	13.063133
3041.000000	13.065608
3040.000000	13.067897
3039.000000	13.069743
3038.000000	13.071052
3037.000000	13.071930
3036.000000	13.072584
3035.000000	13.073163
3034.000000	13.073614
3033.000000	13.073647
3032.000000	13.072898
3031.000000	13.071147
3030.000000	13.068349
3029.000000	13.064455
3028.000000	13.059267
3027.000000	13.052558
3026.000000	13.044347
3025.000000	13.035044
3024.000000	13.025373
3023.000000	13.016171
3022.000000	13.008259
3021.000000	13.002411
3020.000000	12.999370
3019.000000	12.999787
3018.000000	13.004083
3017.000000	13.012361
3016.000000	13.024446
3015.000000	13.039942
3014.000000	13.058203
3013.000000	13.078298
3012.000000	13.099102
3011.000000	13.119508
3010.000000	13.138570
3009.000000	13.155547
3008.000000	13.169984
3007.000000	13.181805
3006.000000	13.191294
3005.000000	13.198941
3004.000000	13.205258
3003.000000	13.210647
3002.000000	13.215317
3001.000000	13.219310
3000.000000	13.222663
2999.000000	13.225546
2998.000000	13.228185
2997.000000	13.230698
2996.000000	13.233062
2995.000000	13.235208
2994.000000	13.237008
2993.000000	13.238195
2992.000000	13.238471
2991.000000	13.237801
2990.000000	13.236548
2989.000000	13.235220
2988.000000	13.234053
2987.000000	13.232765
2986.000000	13.230636
2985.000000	13.226900
2984.000000	13.221323
2983.000000	13.214534
2982.000000	13.207689
2981.000000	13.201598
2980.000000	13.196089
2979.000000	13.190199
2978.000000	13.182927
2977.000000	13.173754
2976.000000	13.162534
2975.000000	13.149036
2974.000000	13.132768
2973.000000	13.113324
2972.000000	13.090911
2971.000000	13.066414
2970.000000	13.040885
2969.000000	13.015046
2968.000000	12.989366
2967.000000	12.964535
2966.000000	12.941663
2965.000000	12.921975
2964.000000	12.906416
2963.000000	12.895498
2962.000000	12.889274
2961.000000	12.887322
2960.000000	12.888871
2959.000000	12.893110
2958.000000	12.899379
2957.000000	12.907107
2956.000000	12.915692
2955.000000	12.924534
2954.000000	12.933103
2953.000000	12.940858
2952.000000	12.947174
2951.000000	12.951409
2950.000000	12.952997
2949.000000	12.951405
2948.000000	12.946066
2947.000000	12.936428
2946.000000	12.922106
2945.000000	12.903018
2944.000000	12.879447
2943.000000	12.851981
2942.000000	12.821313
2941.000000	12.788075
2940.000000	12.752951
2939.000000	12.716958
2938.000000	12.681417
2937.000000	12.647485
2936.000000	12.615680
2935.000000	12.585810
2934.000000	12.557236
2933.000000	12.529221
2932.000000	12.501308
2931.000000	12.473662
2930.000000	12.447131
2929.000000	12.423000
2928.000000	12.402776
2927.000000	12.388259
2926.000000	12.381578
2925.000000	12.384841
2924.000000	12.399519
2923.000000	12.426056
2922.000000	12.463797
2921.000000	12.511107
2920.000000	12.565628
2919.000000	12.624840
2918.000000	12.686646
2917.000000	12.749551
2916.000000	12.812290
2915.000000	12.873427
2914.000000	12.931383
2913.000000	12.984883
2912.000000	13.033321
2911.000000	13.076712
2910.000000	13.115347
2909.000000	13.149561
2908.000000	13.179816
2907.000000	13.206854
2906.000000	13.231593
2905.000000	13.254782
2904.000000	13.276781
2903.000000	13.297694
2902.000000	13.317668
2901.000000	13.337050
2900.000000	13.356244
2899.000000	13.375417
2898.000000	13.394316
2897.000000	13.412437
2896.000000	13.429498
2895.000000	13.445720
2894.000000	13.461583
2893.000000	13.477305
2892.000000	13.492662
2891.000000	13.507321
2890.000000	13.521184
2889.000000	13.534322
2888.000000	13.546687
2887.000000	13.558011
2886.000000	13.567966
2885.000000	13.576392
2884.000000	13.583368
2883.000000	13.589103
2882.000000	13.593719
2881.000000	13.597112
2880.000000	13.599005
2879.000000	13.599097
2878.000000	13.597120
2877.000000	13.592831
2876.000000	13.586033
2875.000000	13.576588
2874.000000	13.564334
2873.000000	13.549028
2872.000000	13.530441
2871.000000	13.508378
2870.000000	13.482472
2869.000000	13.452117
2868.000000	13.417053
2867.000000	13.378217
2866.000000	13.337932
2865.000000	13.299193
2864.000000	13.264852
2863.000000	13.237334
2862.000000	13.218629
2861.000000	13.210005
2860.000000	13.211657
2859.000000	13.222622
2858.000000	13.240985
2857.000000	13.264272
2856.000000	13.290122
2855.000000	13.317142
2854.000000	13.345298
2853.000000	13.375452
2852.000000	13.408539
2851.000000	13.445153
2850.000000	13.485532
2849.000000	13.529411
2848.000000	13.575692
2847.000000	13.622398
2846.000000	13.667267
2845.000000	13.708600
2844.000000	13.745797
2843.000000	13.779224
2842.000000	13.809571
2841.000000	13.837212
2840.000000	13.862101
2839.000000	13.884176
2838.000000	13.903693
2837.000000	13.921136
2836.000000	13.936952
2835.000000	13.951487
2834.000000	13.965027
2833.000000	13.977739
2832.000000	13.989608
2831.000000	14.000603
2830.000000	14.010847
2829.000000	14.020553
2828.000000	14.029826
2827.000000	14.038689
2826.000000	14.047271
2825.000000	14.055825
2824.000000	14.064496
2823.000000	14.073160
2822.000000	14.081505
2821.000000	14.089259
2820.000000	14.096364
2819.000000	14.103009
2818.000000	14.109465
2817.000000	14.115851
2816.000000	14.122051
2815.000000	14.127907
2814.000000	14.133417
2813.000000	14.138682
2812.000000	14.143734
2811.000000	14.148529
2810.000000	14.153108
2809.000000	14.157631
2808.000000	14.162231
2807.000000	14.166892
2806.000000	14.171511
2805.000000	14.176043
2804.000000	14.180524
2803.000000	14.184959
2802.000000	14.189220
2801.000000	14.193112
2800.000000	14.196596
2799.000000	14.199897
2798.000000	14.203337
2797.000000	14.207045
2796.000000	14.210922
2795.000000	14.214841
2794.000000	14.218780
2793.000000	14.222750
2792.000000	14.226761
2791.000000	14.230943
2790.000000	14.235577
2789.000000	14.240886
2788.000000	14.246847
2787.000000	14.253280
2786.000000	14.260037
2785.000000	14.267028
2784.000000	14.274156
2783.000000	14.281301
2782.000000	14.288322
2781.000000	14.294978
2780.000000	14.300970
2779.000000	14.306184
2778.000000	14.310842
2777.000000	14.315300
2776.000000	14.319749
2775.000000	14.324227
2774.000000	14.328780
2773.000000	14.333428
2772.000000	14.337993
2771.000000	14.342221
2770.000000	14.346147
2769.000000	14.350141
2768.000000	14.354457
2767.000000	14.358908
2766.000000	14.363153
2765.000000	14.367228
2764.000000	14.371547
2763.000000	14.376318
2762.000000	14.381155
2761.000000	14.385422
2760.000000	14.388887
2759.000000	14.391896
2758.000000	14.394926
2757.000000	14.398143
2756.000000	14.401431
2755.000000	14.404671
2754.000000	14.407865
2753.000000	14.411063
2752.000000	14.414322
2751.000000	14.417695
2750.000000	14.421160
2749.000000	14.424562
2748.000000	14.427720
2747.000000	14.430584
2746.000000	14.433212
2745.000000	14.435662
2744.000000	14.438025
2743.000000	14.440511
2742.000000	14.443312
2741.000000	14.446339
2740.000000	14.449239
2739.000000	14.451769
2738.000000	14.454077
2737.000000	14.456555
2736.000000	14.459451
2735.000000	14.462664
2734.000000	14.465876
2733.000000	14.468856
2732.000000	14.471654
2731.000000	14.474492
2730.000000	14.477434
2729.000000	14.480272
2728.000000	14.482816
2727.000000	14.485206
2726.000000	14.487734
2725.000000	14.490394
2724.000000	14.492833
2723.000000	14.494822
2722.000000	14.496577
2721.000000	14.498530
2720.000000	14.500897
2719.000000	14.503591
2718.000000	14.506426
2717.000000	14.509266
2716.000000	14.512010
2715.000000	14.514531
2714.000000	14.516677
2713.000000	14.518344
2712.000000	14.519625
2711.000000	14.520867
2710.000000	14.522477
2709.000000	14.524598
2708.000000	14.527016
2707.000000	14.529427
2706.000000	14.531721
2705.000000	14.534020
2704.000000	14.536522
2703.000000	14.539332
2702.000000	14.542379
2701.000000	14.545471
2700.000000	14.548462
2699.000000	14.551378
2698.000000	14.554349
2697.000000	14.557457
2696.000000	14.560737
2695.000000	14.564229
2694.000000	14.567895
2693.000000	14.571517
2692.000000	14.574846
2691.000000	14.577842
2690.000000	14.580663
2689.000000	14.583440
2688.000000	14.586214
2687.000000	14.589051
2686.000000	14.591973
2685.000000	14.594802
2684.000000	14.597298
2683.000000	14.599515
2682.000000	14.601803
2681.000000	14.604352
2680.000000	14.606939
2679.000000	14.609270
2678.000000	14.611395
2677.000000	14.613630
2676.000000	14.616142
2675.000000	14.618737
2674.000000	14.621028
2673.000000	14.622760
2672.000000	14.624040
2671.000000	14.625289
2670.000000	14.626887
2669.000000	14.628838
2668.000000	14.630873
2667.000000	14.632860
2666.000000	14.634924
2665.000000	14.637132
2664.000000	14.639261
2663.000000	14.641028
2662.000000	14.642419
2661.000000	14.643684
2660.000000	14.645086
2659.000000	14.646748
2658.000000	14.648652
2657.000000	14.650689
2656.000000	14.652769
2655.000000	14.654924
2654.000000	14.657262
2653.000000	14.659793
2652.000000	14.662403
2651.000000	14.664980
2650.000000	14.667457
2649.000000	14.669697
2648.000000	14.671527
2647.000000	14.673003
2646.000000	14.674524
2645.000000	14.676553
2644.000000	14.679224
2643.000000	14.682229
2642.000000	14.685056
2641.000000	14.687348
2640.000000	14.689175
2639.000000	14.690941
2638.000000	14.692960
2637.000000	14.695131
2636.000000	14.697161
2635.000000	14.699019
2634.000000	14.700944
2633.000000	14.703030
2632.000000	14.705054
2631.000000	14.706796
2630.000000	14.708295
2629.000000	14.709702
2628.000000	14.711091
2627.000000	14.712517
2626.000000	14.714072
2625.000000	14.715750
2624.000000	14.717402
2623.000000	14.718931
2622.000000	14.720397
2621.000000	14.721819
2620.000000	14.723058
2619.000000	14.724040
2618.000000	14.724969
2617.000000	14.726159
2616.000000	14.727707
2615.000000	14.729422
2614.000000	14.730972
2613.000000	14.732077
2612.000000	14.732699
2611.000000	14.733140
2610.000000	14.733832
2609.000000	14.734929
2608.000000	14.736192
2607.000000	14.737308
2606.000000	14.738165
2605.000000	14.738757
2604.000000	14.739021
2603.000000	14.738952
2602.000000	14.738754
2601.000000	14.738701
2600.000000	14.738896
2599.000000	14.739246
2598.000000	14.739597
2597.000000	14.739833
2596.000000	14.739959
2595.000000	14.740190
2594.000000	14.740876
2593.000000	14.742226
2592.000000	14.744129
2591.000000	14.746284
2590.000000	14.748431
2589.000000	14.750455
2588.000000	14.752429
2587.000000	14.754634
2586.000000	14.757423
2585.000000	14.760924
2584.000000	14.764898
2583.000000	14.768931
2582.000000	14.772729
2581.000000	14.776283
2580.000000	14.779830
2579.000000	14.783624
2578.000000	14.787618
2577.000000	14.791389
2576.000000	14.794554
2575.000000	14.797212
2574.000000	14.799810
2573.000000	14.802564
2572.000000	14.805258
2571.000000	14.807599
2570.000000	14.809526
2569.000000	14.811101
2568.000000	14.812406
2567.000000	14.813698
2566.000000	14.815397
2565.000000	14.817680
2564.000000	14.820186
2563.000000	14.822324
2562.000000	14.823817
2561.000000	14.824856
2560.000000	14.825812
2559.000000	14.826878
2558.000000	14.827957
2557.000000	14.828833
2556.000000	14.829536
2555.000000	14.830468
2554.000000	14.832001
2553.000000	14.833950
2552.000000	14.835654
2551.000000	14.836617
2550.000000	14.836907
2549.000000	14.836902
2548.000000	14.836921
2547.000000	14.837197
2546.000000	14.837950
2545.000000	14.839275
2544.000000	14.841022
2543.000000	14.842911
2542.000000	14.844677
2541.000000	14.846107
2540.000000	14.847130
2539.000000	14.847925
2538.000000	14.848795
2537.000000	14.849862
2536.000000	14.851046
2535.000000	14.852305
2534.000000	14.853697
2533.000000	14.855151
2532.000000	14.856482
2531.000000	14.857689
2530.000000	14.859007
2529.000000	14.860529
2528.000000	14.862029
2527.000000	14.863270
2526.000000	14.864285
2525.000000	14.865234
2524.000000	14.866177
2523.000000	14.867123
2522.000000	14.868076
2521.000000	14.868953
2520.000000	14.869654
2519.000000	14.870324
2518.000000	14.871306
2517.000000	14.872675
2516.000000	14.874066
2515.000000	14.875094
2514.000000	14.875741
2513.000000	14.876183
2512.000000	14.876521
2511.000000	14.876874
2510.000000	14.877465
2509.000000	14.878362
2508.000000	14.879300
2507.000000	14.880012
2506.000000	14.880598
2505.000000	14.881330
2504.000000	14.882243
2503.000000	14.883128
2502.000000	14.883849
2501.000000	14.884457
2500.000000	14.885082
2499.000000	14.885865
2498.000000	14.886925
2497.000000	14.888235
2496.000000	14.889594
2495.000000	14.890804
2494.000000	14.891789
2493.000000	14.892521
2492.000000	14.893011
2491.000000	14.893468
2490.000000	14.894265
2489.000000	14.895592
2488.000000	14.897241
2487.000000	14.898823
2486.000000	14.900076
2485.000000	14.900942
2484.000000	14.901594
2483.000000	14.902436
2482.000000	14.903826
2481.000000	14.905624
2480.000000	14.907267
2479.000000	14.908396
2478.000000	14.909174
2477.000000	14.909874
2476.000000	14.910464
2475.000000	14.910843
2474.000000	14.911162
2473.000000	14.911623
2472.000000	14.912135
2471.000000	14.912468
2470.000000	14.912611
2469.000000	14.912712
2468.000000	14.912802
2467.000000	14.912818
2466.000000	14.912797
2465.000000	14.912836
2464.000000	14.912934
2463.000000	14.913077
2462.000000	14.913378
2461.000000	14.913931
2460.000000	14.914627
2459.000000	14.915276
2458.000000	14.915832
2457.000000	14.916352
2456.000000	14.916851
2455.000000	14.917360
2454.000000	14.918023
2453.000000	14.918989
2452.000000	14.920248
2451.000000	14.921681
2450.000000	14.923135
2449.000000	14.924393
2448.000000	14.925292
2447.000000	14.925989
2446.000000	14.926896
2445.000000	14.928159
2444.000000	14.929379
2443.000000	14.930090
2442.000000	14.930358
2441.000000	14.930712
2440.000000	14.931588
2439.000000	14.933028
2438.000000	14.934812
2437.000000	14.936659
2436.000000	14.938375
2435.000000	14.939943
2434.000000	14.941448
2433.000000	14.942825
2432.000000	14.943862
2431.000000	14.944560
2430.000000	14.945310
2429.000000	14.946493
2428.000000	14.948029
2427.000000	14.949505
2426.000000	14.950663
2425.000000	14.951628
2424.000000	14.952739
2423.000000	14.954296
2422.000000	14.956383
2421.000000	14.958780
2420.000000	14.961091
2419.000000	14.963036
2418.000000	14.964578
2417.000000	14.965827
2416.000000	14.966989
2415.000000	14.968410
2414.000000	14.970354
2413.000000	14.972618
2412.000000	14.974639
2411.000000	14.976147
2410.000000	14.977494
2409.000000	14.979180
2408.000000	14.981280
2407.000000	14.983520
2406.000000	14.985682
2405.000000	14.987713
2404.000000	14.989611
2403.000000	14.991456
2402.000000	14.993459
2401.000000	14.995784
2400.000000	14.998391
2399.000000	15.001157
2398.000000	15.004007
2397.000000	15.006820
2396.000000	15.009413
2395.000000	15.011770
2394.000000	15.014117
2393.000000	15.016644
2392.000000	15.019320
2391.000000	15.022097
2390.000000	15.025014
2389.000000	15.027930
2388.000000	15.030384
2387.000000	15.031912
2386.000000	15.032268
2385.000000	15.031024
2384.000000	15.027151
2383.000000	15.019275
2382.000000	15.006298
2381.000000	14.987675
2380.000000	14.963437
2379.000000	14.934287
2378.000000	14.901561
2377.000000	14.866696
2376.000000	14.830577
2375.000000	14.793410
2374.000000	14.755035
2373.000000	14.715238
2372.000000	14.673998
2371.000000	14.631785
2370.000000	14.589624
2369.000000	14.548770
2368.000000	14.510382
2367.000000	14.475536
2366.000000	14.445255
2365.000000	14.420239
2364.000000	14.400743
2363.000000	14.386956
2362.000000	14.379401
2361.000000	14.378779
2360.000000	14.385585
2359.000000	14.400125
2358.000000	14.422682
2357.000000	14.453270
2356.000000	14.491248
2355.000000	14.535520
2354.000000	14.585021
2353.000000	14.638251
2352.000000	14.691581
2351.000000	14.737927
2350.000000	14.768053
2349.000000	14.774648
2348.000000	14.756515
2347.000000	14.719334
2346.000000	14.672129
2345.000000	14.622516
2344.000000	14.574543
2343.000000	14.530006
2342.000000	14.490661
2341.000000	14.458912
2340.000000	14.436988
2339.000000	14.425963
2338.000000	14.425336
2337.000000	14.433175
2336.000000	14.446753
2335.000000	14.463457
2334.000000	14.481396
2333.000000	14.499495
2332.000000	14.517421
2331.000000	14.535506
2330.000000	14.554358
2329.000000	14.574253
2328.000000	14.594943
2327.000000	14.616041
2326.000000	14.637344
2325.000000	14.658685
2324.000000	14.679786
2323.000000	14.700410
2322.000000	14.720474
2321.000000	14.739899
2320.000000	14.758559
2319.000000	14.776410
2318.000000	14.793436
2317.000000	14.809416
2316.000000	14.824055
2315.000000	14.837386
2314.000000	14.849740
2313.000000	14.861277
2312.000000	14.871924
2311.000000	14.881821
2310.000000	14.891323
2309.000000	14.900396
2308.000000	14.908486
2307.000000	14.915221
2306.000000	14.920853
2305.000000	14.925756
2304.000000	14.929964
2303.000000	14.933521
2302.000000	14.936859
2301.000000	14.940378
2300.000000	14.943931
2299.000000	14.947127
2298.000000	14.949878
2297.000000	14.952330
2296.000000	14.954526
2295.000000	14.956504
2294.000000	14.958497
2293.000000	14.960642
2292.000000	14.962670
2291.000000	14.964235
2290.000000	14.965393
2289.000000	14.966448
2288.000000	14.967438
2287.000000	14.968017
2286.000000	14.967688
2285.000000	14.966031
2284.000000	14.963026
2283.000000	14.959464
2282.000000	14.956754
2281.000000	14.955869
2280.000000	14.956550
2279.000000	14.957713
2278.000000	14.958455
2277.000000	14.958450
2276.000000	14.957745
2275.000000	14.956614
2274.000000	14.955515
2273.000000	14.954795
2272.000000	14.954443
2271.000000	14.954254
2270.000000	14.954094
2269.000000	14.953864
2268.000000	14.953458
2267.000000	14.953002
2266.000000	14.952856
2265.000000	14.953114
2264.000000	14.953335
2263.000000	14.953070
2262.000000	14.952462
2261.000000	14.952016
2260.000000	14.951966
2259.000000	14.952143
2258.000000	14.952297
2257.000000	14.952261
2256.000000	14.951949
2255.000000	14.951479
2254.000000	14.951155
2253.000000	14.951128
2252.000000	14.951216
2251.000000	14.951234
2250.000000	14.951271
2249.000000	14.951472
2248.000000	14.951807
2247.000000	14.952282
2246.000000	14.953106
2245.000000	14.954360
2244.000000	14.955722
2243.000000	14.956817
2242.000000	14.957632
2241.000000	14.958357
2240.000000	14.959053
2239.000000	14.959733
2238.000000	14.960514
2237.000000	14.961409
2236.000000	14.962192
2235.000000	14.962754
2234.000000	14.963334
2233.000000	14.964159
2232.000000	14.965118
2231.000000	14.966096
2230.000000	14.967340
2229.000000	14.969072
2228.000000	14.970950
2227.000000	14.972318
2226.000000	14.972942
2225.000000	14.973180
2224.000000	14.973499
2223.000000	14.974061
2222.000000	14.974703
2221.000000	14.975165
2220.000000	14.975404
2219.000000	14.975782
2218.000000	14.976704
2217.000000	14.978020
2216.000000	14.979111
2215.000000	14.979688
2214.000000	14.980123
2213.000000	14.980779
2212.000000	14.981464
2211.000000	14.981840
2210.000000	14.982001
2209.000000	14.982253
2208.000000	14.982639
2207.000000	14.983079
2206.000000	14.983694
2205.000000	14.984603
2204.000000	14.985624
2203.000000	14.986513
2202.000000	14.987278
2201.000000	14.987967
2200.000000	14.988439
2199.000000	14.988681
2198.000000	14.989058
2197.000000	14.989856
2196.000000	14.990836
2195.000000	14.991580
2194.000000	14.992039
2193.000000	14.992391
2192.000000	14.992642
2191.000000	14.992763
2190.000000	14.992965
2189.000000	14.993436
2188.000000	14.993991
2187.000000	14.994376
2186.000000	14.994722
2185.000000	14.995355
2184.000000	14.996317
2183.000000	14.997364
2182.000000	14.998258
2181.000000	14.998794
2180.000000	14.998820
2179.000000	14.998557
2178.000000	14.998612
2177.000000	14.999329
2176.000000	15.000322
2175.000000	15.000892
2174.000000	15.000632
2173.000000	14.999434
2172.000000	14.997445
2171.000000	14.995442
2170.000000	14.994756
2169.000000	14.996145
2168.000000	14.998948
2167.000000	15.001815
2166.000000	15.004051
2165.000000	15.005803
2164.000000	15.007297
2163.000000	15.008533
2162.000000	15.009574
2161.000000	15.010550
2160.000000	15.011417
2159.000000	15.012137
2158.000000	15.012961
2157.000000	15.014100
2156.000000	15.015299
2155.000000	15.016157
2154.000000	15.016724
2153.000000	15.017336
2152.000000	15.018029
2151.000000	15.018604
2150.000000	15.019103
2149.000000	15.019745
2148.000000	15.020498
2147.000000	15.021193
2146.000000	15.021939
2145.000000	15.022986
2144.000000	15.024245
2143.000000	15.025396
2142.000000	15.026353
2141.000000	15.027232
2140.000000	15.027973
2139.000000	15.028475
2138.000000	15.029005
2137.000000	15.030002
2136.000000	15.031484
2135.000000	15.033049
2134.000000	15.034431
2133.000000	15.035660
2132.000000	15.036740
2131.000000	15.037587
2130.000000	15.038287
2129.000000	15.039041
2128.000000	15.039845
2127.000000	15.040543
2126.000000	15.041171
2125.000000	15.041949
2124.000000	15.042958
2123.000000	15.044109
2122.000000	15.045426
2121.000000	15.047056
2120.000000	15.048986
2119.000000	15.050987
2118.000000	15.052833
2117.000000	15.054450
2116.000000	15.055879
2115.000000	15.057257
2114.000000	15.058730
2113.000000	15.060303
2112.000000	15.061905
2111.000000	15.063650
2110.000000	15.065770
2109.000000	15.068197
2108.000000	15.070530
2107.000000	15.072593
2106.000000	15.074676
2105.000000	15.077041
2104.000000	15.079523
2103.000000	15.081860
2102.000000	15.084056
2101.000000	15.086151
2100.000000	15.087995
2099.000000	15.089576
2098.000000	15.091256
2097.000000	15.093379
2096.000000	15.095892
2095.000000	15.098554
2094.000000	15.101147
2093.000000	15.103281
2092.000000	15.104528
2091.000000	15.105138
2090.000000	15.106146
2089.000000	15.108307
2088.000000	15.111302
2087.000000	15.114344
2086.000000	15.117119
2085.000000	15.119692
2084.000000	15.122006
2083.000000	15.124066
2082.000000	15.126280
2081.000000	15.129020
2080.000000	15.132117
2079.000000	15.135230
2078.000000	15.138350
2077.000000	15.141472
2076.000000	15.144193
2075.000000	15.146255
2074.000000	15.148147
2073.000000	15.150540
2072.000000	15.153392
2071.000000	15.156168
2070.000000	15.158658
2069.000000	15.161002
2068.000000	15.163202
2067.000000	15.165285
2066.000000	15.167714
2065.000000	15.170951
2064.000000	15.174713
2063.000000	15.178264
2062.000000	15.181325
2061.000000	15.184148
2060.000000	15.186892
2059.000000	15.189509
2058.000000	15.192151
2057.000000	15.195100
2056.000000	15.198287
2055.000000	15.201356
2054.000000	15.204165
2053.000000	15.206864
2052.000000	15.209609
2051.000000	15.212524
2050.000000	15.215723
2049.000000	15.218992
2048.000000	15.221777
2047.000000	15.223898
2046.000000	15.225924
2045.000000	15.228366
2044.000000	15.230884
2043.000000	15.232916
2042.000000	15.234733
2041.000000	15.237131
2040.000000	15.240309
2039.000000	15.243729
2038.000000	15.246922
2037.000000	15.249751
2036.000000	15.252047
2035.000000	15.253678
2034.000000	15.254917
2033.000000	15.256083
2032.000000	15.256935
2031.000000	15.257140
2030.000000	15.257272
2029.000000	15.258587
2028.000000	15.261654
2027.000000	15.265764
2026.000000	15.269768
2025.000000	15.273010
2024.000000	15.275406
2023.000000	15.277171
2022.000000	15.278651
2021.000000	15.280023
2020.000000	15.281127
2019.000000	15.281925
2018.000000	15.283010
2017.000000	15.285202
2016.000000	15.288637
2015.000000	15.292675
2014.000000	15.296640
2013.000000	15.300212
2012.000000	15.303213
2011.000000	15.305559
2010.000000	15.307506
2009.000000	15.309489
2008.000000	15.311625
2007.000000	15.313678
2006.000000	15.315490
2005.000000	15.317117
2004.000000	15.318589
2003.000000	15.319888
2002.000000	15.321107
2001.000000	15.322312
2000.000000	15.323383
1999.000000	15.324335
1998.000000	15.325531
1997.000000	15.327010
1996.000000	15.327805
1995.000000	15.326714
1994.000000	15.323982
1993.000000	15.321621
1992.000000	15.321671
1991.000000	15.324365
1990.000000	15.328228
1989.000000	15.331661
1988.000000	15.334119
1987.000000	15.335935
1986.000000	15.337449
1985.000000	15.338567
1984.000000	15.339101
1983.000000	15.339216
1982.000000	15.339314
1981.000000	15.339535
1980.000000	15.339657
1979.000000	15.339485
1978.000000	15.339091
1977.000000	15.338582
1976.000000	15.337903
1975.000000	15.337038
1974.000000	15.336200
1973.000000	15.335628
1972.000000	15.335198
1971.000000	15.334303
1970.000000	15.332237
1969.000000	15.328961
1968.000000	15.325566
1967.000000	15.323624
1966.000000	15.323730
1965.000000	15.324824
1964.000000	15.325037
1963.000000	15.322788
1962.000000	15.317146
1961.000000	15.308387
1960.000000	15.299120
1959.000000	15.293774
1958.000000	15.295192
1957.000000	15.301711
1956.000000	15.308779
1955.000000	15.313308
1954.000000	15.315326
1953.000000	15.315845
1952.000000	15.315067
1951.000000	15.313133
1950.000000	15.310932
1949.000000	15.309181
1948.000000	15.307581
1947.000000	15.305371
1946.000000	15.301946
1945.000000	15.296921
1944.000000	15.290898
1943.000000	15.286314
1942.000000	15.285861
1941.000000	15.289334
1940.000000	15.293434
1939.000000	15.295360
1938.000000	15.295269
1937.000000	15.294574
1936.000000	15.293512
1935.000000	15.291656
1934.000000	15.289455
1933.000000	15.287764
1932.000000	15.286527
1931.000000	15.285125
1930.000000	15.283447
1929.000000	15.281679
1928.000000	15.279522
1927.000000	15.276313
1926.000000	15.271600
1925.000000	15.265471
1924.000000	15.258969
1923.000000	15.253808
1922.000000	15.250181
1921.000000	15.245230
1920.000000	15.236142
1919.000000	15.225296
1918.000000	15.219519
1917.000000	15.222605
1916.000000	15.230671
1915.000000	15.236585
1914.000000	15.236997
1913.000000	15.233178
1912.000000	15.227221
1911.000000	15.220436
1910.000000	15.214339
1909.000000	15.210193
1908.000000	15.207493
1907.000000	15.204752
1906.000000	15.201552
1905.000000	15.198373
1904.000000	15.195084
1903.000000	15.191256
1902.000000	15.187408
1901.000000	15.184270
1900.000000	15.181281
1899.000000	15.177265
1898.000000	15.172155
1897.000000	15.166899
1896.000000	15.162339
1895.000000	15.159112
1894.000000	15.157404
1893.000000	15.155587
1892.000000	15.150841
1891.000000	15.143063
1890.000000	15.136660
1889.000000	15.136029
1888.000000	15.140273
1887.000000	15.144658
1886.000000	15.146285
1885.000000	15.145833
1884.000000	15.144635
1883.000000	15.143024
1882.000000	15.141426
1881.000000	15.140460
1880.000000	15.139637
1879.000000	15.137860
1878.000000	15.135235
1877.000000	15.132769
1876.000000	15.130623
1875.000000	15.128140
1874.000000	15.124629
1873.000000	15.118294
1872.000000	15.106056
1871.000000	15.087744
1870.000000	15.069840
1869.000000	15.061427
1868.000000	15.065656
1867.000000	15.077425
1866.000000	15.089340
1865.000000	15.097320
1864.000000	15.100599
1863.000000	15.099892
1862.000000	15.097026
1861.000000	15.094059
1860.000000	15.091450
1859.000000	15.088420
1858.000000	15.085189
1857.000000	15.082875
1856.000000	15.081179
1855.000000	15.078549
1854.000000	15.074811
1853.000000	15.071190
1852.000000	15.067589
1851.000000	15.062571
1850.000000	15.056080
1849.000000	15.048538
1848.000000	15.036617
1847.000000	15.014742
1846.000000	14.984268
1845.000000	14.958076
1844.000000	14.951186
1843.000000	14.966385
1842.000000	14.991451
1841.000000	15.010606
1840.000000	15.016896
1839.000000	15.013862
1838.000000	15.008340
1837.000000	15.004006
1836.000000	15.000772
1835.000000	14.996971
1834.000000	14.989905
1833.000000	14.976104
1832.000000	14.954986
1831.000000	14.932992
1830.000000	14.920154
1829.000000	14.919721
1828.000000	14.923728
1827.000000	14.922236
1826.000000	14.915057
1825.000000	14.910371
1824.000000	14.913063
1823.000000	14.919261
1822.000000	14.922557
1821.000000	14.920884
1820.000000	14.915791
1819.000000	14.908946
1818.000000	14.901755
1817.000000	14.895738
1816.000000	14.890811
1815.000000	14.884639
1814.000000	14.875276
1813.000000	14.863404
1812.000000	14.851343
1811.000000	14.841299
1810.000000	14.834820
1809.000000	14.831980
1808.000000	14.830406
1807.000000	14.826773
1806.000000	14.819509
1805.000000	14.808603
1804.000000	14.793594
1803.000000	14.774692
1802.000000	14.755691
1801.000000	14.742263
1800.000000	14.736487
1799.000000	14.735406
1798.000000	14.734608
1797.000000	14.729654
1796.000000	14.714628
1795.000000	14.685528
1794.000000	14.648144
1793.000000	14.618209
1792.000000	14.609233
1791.000000	14.621005
1790.000000	14.641200
1789.000000	14.655770
1788.000000	14.656834
1787.000000	14.644925
1786.000000	14.627450
1785.000000	14.612972
1784.000000	14.603995
1783.000000	14.596309
1782.000000	14.586281
1781.000000	14.575814
1780.000000	14.568424
1779.000000	14.563740
1778.000000	14.557883
1777.000000	14.545604
1776.000000	14.520257
1775.000000	14.477827
1774.000000	14.426523
1773.000000	14.387578
1772.000000	14.378094
1771.000000	14.393589
1770.000000	14.413761
1769.000000	14.425212
1768.000000	14.431699
1767.000000	14.441057
1766.000000	14.449767
1765.000000	14.446064
1764.000000	14.425367
1763.000000	14.397543
1762.000000	14.378084
1761.000000	14.373544
1760.000000	14.376158
1759.000000	14.373018
1758.000000	14.360399
1757.000000	14.346676
1756.000000	14.339107
1755.000000	14.331005
1754.000000	14.307888
1753.000000	14.266663
1752.000000	14.222816
1751.000000	14.195695
1750.000000	14.190511
1749.000000	14.197622
1748.000000	14.205230
1747.000000	14.207772
1746.000000	14.204376
1745.000000	14.195279
1744.000000	14.180813
1743.000000	14.160740
1742.000000	14.134943
1741.000000	14.107908
1740.000000	14.089833
1739.000000	14.085160
1738.000000	14.078778
1737.000000	14.044250
1736.000000	13.975054
1735.000000	13.902833
1734.000000	13.873294
1733.000000	13.902270
1732.000000	13.962746
1731.000000	14.015630
1730.000000	14.044161
1729.000000	14.055427
1728.000000	14.059631
1727.000000	14.058947
1726.000000	14.052943
1725.000000	14.044235
1724.000000	14.036023
1723.000000	14.027474
1722.000000	14.011384
1721.000000	13.975675
1720.000000	13.913447
1719.000000	13.837751
1718.000000	13.781143
1717.000000	13.770617
1716.000000	13.802920
1715.000000	13.850840
1714.000000	13.890937
1713.000000	13.916894
1712.000000	13.929717
1711.000000	13.929001
1710.000000	13.916630
1709.000000	13.897892
1708.000000	13.875115
1707.000000	13.849090
1706.000000	13.827046
1705.000000	13.814982
1704.000000	13.798737
1703.000000	13.751562
1702.000000	13.672877
1701.000000	13.603468
1700.000000	13.582835
1699.000000	13.600790
1698.000000	13.613105
1697.000000	13.602160
1696.000000	13.598672
1695.000000	13.637195
1694.000000	13.709332
1693.000000	13.773765
1692.000000	13.801893
1691.000000	13.799746
1690.000000	13.788023
1689.000000	13.771679
1688.000000	13.734085
1687.000000	13.660886
1686.000000	13.568651
1685.000000	13.504162
1684.000000	13.506780
1683.000000	13.570724
1682.000000	13.651216
1681.000000	13.707392
1680.000000	13.730004
1679.000000	13.728043
1678.000000	13.706240
1677.000000	13.668421
1676.000000	13.631725
1675.000000	13.617844
1674.000000	13.627977
1673.000000	13.638951
1672.000000	13.629393
1671.000000	13.602961
1670.000000	13.581912
1669.000000	13.583224
1668.000000	13.604602
1667.000000	13.628888
1666.000000	13.637578
1665.000000	13.623666
1664.000000	13.597162
1663.000000	13.577562
1662.000000	13.576764
1661.000000	13.589107
1660.000000	13.599877
1659.000000	13.599654
1658.000000	13.583223
1657.000000	13.536964
1656.000000	13.443126
1655.000000	13.309598
1654.000000	13.188908
1653.000000	13.147874
1652.000000	13.207387
1651.000000	13.317586
1650.000000	13.400135
1649.000000	13.413869
1648.000000	13.378070
1647.000000	13.341074
1646.000000	13.336525
1645.000000	13.365589
1644.000000	13.406808
1643.000000	13.436341
1642.000000	13.443855
1641.000000	13.433881
1640.000000	13.412072
1639.000000	13.373848
1638.000000	13.313787
1637.000000	13.245465
1636.000000	13.201004
1635.000000	13.203572
1634.000000	13.244141
1633.000000	13.290164
1632.000000	13.314010
1631.000000	13.309622
1630.000000	13.287101
1629.000000	13.259374
1628.000000	13.233668
1627.000000	13.208974
1626.000000	13.178977
1625.000000	13.140340
1624.000000	13.099445
1623.000000	13.068091
1622.000000	13.049915
1621.000000	13.032140
1620.000000	12.994273
1619.000000	12.928460
1618.000000	12.852079
1617.000000	12.796983
1616.000000	12.781803
1615.000000	12.794049
1614.000000	12.801815
1613.000000	12.782930
1612.000000	12.740343
1611.000000	12.691369
1610.000000	12.649508
1609.000000	12.619574
1608.000000	12.603207
1607.000000	12.600895
1606.000000	12.609407
1605.000000	12.622936
1604.000000	12.637936
1603.000000	12.654226
1602.000000	12.671764
1601.000000	12.689279
1600.000000	12.705960
1599.000000	12.721725
1598.000000	12.735677
1597.000000	12.746589
1596.000000	12.755042
1595.000000	12.762963
1594.000000	12.770804
1593.000000	12.776956
1592.000000	12.780164
1591.000000	12.780894
1590.000000	12.780046
1589.000000	12.777747
1588.000000	12.773940
1587.000000	12.769154
1586.000000	12.764092
1585.000000	12.758928
1584.000000	12.753551
1583.000000	12.748579
1582.000000	12.744967
1581.000000	12.740120
1580.000000	12.723980
1579.000000	12.684445
1578.000000	12.623820
1577.000000	12.568765
1576.000000	12.553879
1575.000000	12.588408
1574.000000	12.642915
1573.000000	12.674916
1572.000000	12.666899
1571.000000	12.636220
1570.000000	12.611682
1569.000000	12.606931
1568.000000	12.615119
1567.000000	12.621507
1566.000000	12.617087
1565.000000	12.601350
1564.000000	12.572906
1563.000000	12.519802
1562.000000	12.427903
1561.000000	12.306825
1560.000000	12.201712
1559.000000	12.164165
1558.000000	12.205841
1557.000000	12.288561
1556.000000	12.363932
1555.000000	12.414617
1554.000000	12.452540
1553.000000	12.489125
1552.000000	12.521637
1551.000000	12.545128
1550.000000	12.562573
1549.000000	12.578078
1548.000000	12.588579
1547.000000	12.588279
1546.000000	12.576984
1545.000000	12.558661
1544.000000	12.533573
1543.000000	12.497395
1542.000000	12.451366
1541.000000	12.412887
1540.000000	12.411409
1539.000000	12.465822
1538.000000	12.561372
1537.000000	12.653794
1536.000000	12.704454
1535.000000	12.712607
1534.000000	12.709290
1533.000000	12.721613
1532.000000	12.749557
1531.000000	12.775700
1530.000000	12.786619
1529.000000	12.780626
1528.000000	12.763602
1527.000000	12.744573
1526.000000	12.729822
1525.000000	12.714619
1524.000000	12.686057
1523.000000	12.642067
1522.000000	12.603026
1521.000000	12.593761
1520.000000	12.614669
1519.000000	12.640730
1518.000000	12.650483
1517.000000	12.646049
1516.000000	12.640978
1515.000000	12.638919
1514.000000	12.633221
1513.000000	12.621033
1512.000000	12.605320
1511.000000	12.582001
1510.000000	12.535860
1509.000000	12.457666
1508.000000	12.363706
1507.000000	12.291188
1506.000000	12.268499
1505.000000	12.287896
1504.000000	12.307861
1503.000000	12.282912
1502.000000	12.191443
1501.000000	12.037844
1500.000000	11.836489
