PE IR       SUBTECH     SPECTRUM    ASCII       PEDS        4.00        
   -1
TE108B2_015.ASC
20/02/27
14:12:47.00
20/02/27
14:12:48.00
Administrator
Sample 015 By Administrator Date Thursday, February 27 2020
1500.000000
#HDR
-1
-1
#GR
cm-1
A
1.0
0.0
4000.000000
-1.000000
2501
8
0.848709
0.812691
#DATA
4000.000000	0.820288
3999.000000	0.820274
3998.000000	0.820264
3997.000000	0.820256
3996.000000	0.820252
3995.000000	0.820259
3994.000000	0.820275
3993.000000	0.820294
3992.000000	0.820302
3991.000000	0.820289
3990.000000	0.820256
3989.000000	0.820215
3988.000000	0.820180
3987.000000	0.820158
3986.000000	0.820151
3985.000000	0.820151
3984.000000	0.820153
3983.000000	0.820153
3982.000000	0.820151
3981.000000	0.820147
3980.000000	0.820135
3979.000000	0.820110
3978.000000	0.820074
3977.000000	0.820036
3976.000000	0.820006
3975.000000	0.819986
3974.000000	0.819976
3973.000000	0.819967
3972.000000	0.819950
3971.000000	0.819919
3970.000000	0.819872
3969.000000	0.819817
3968.000000	0.819765
3967.000000	0.819725
3966.000000	0.819701
3965.000000	0.819686
3964.000000	0.819670
3963.000000	0.819643
3962.000000	0.819607
3961.000000	0.819571
3960.000000	0.819543
3959.000000	0.819524
3958.000000	0.819503
3957.000000	0.819473
3956.000000	0.819432
3955.000000	0.819385
3954.000000	0.819340
3953.000000	0.819300
3952.000000	0.819268
3951.000000	0.819247
3950.000000	0.819235
3949.000000	0.819222
3948.000000	0.819195
3947.000000	0.819149
3946.000000	0.819096
3945.000000	0.819053
3944.000000	0.819029
3943.000000	0.819013
3942.000000	0.818989
3941.000000	0.818949
3940.000000	0.818898
3939.000000	0.818851
3938.000000	0.818817
3937.000000	0.818795
3936.000000	0.818778
3935.000000	0.818756
3934.000000	0.818719
3933.000000	0.818663
3932.000000	0.818595
3931.000000	0.818529
3930.000000	0.818478
3929.000000	0.818444
3928.000000	0.818419
3927.000000	0.818388
3926.000000	0.818343
3925.000000	0.818286
3924.000000	0.818226
3923.000000	0.818172
3922.000000	0.818126
3921.000000	0.818088
3920.000000	0.818051
3919.000000	0.818011
3918.000000	0.817969
3917.000000	0.817923
3916.000000	0.817874
3915.000000	0.817821
3914.000000	0.817768
3913.000000	0.817721
3912.000000	0.817683
3911.000000	0.817652
3910.000000	0.817622
3909.000000	0.817587
3908.000000	0.817547
3907.000000	0.817500
3906.000000	0.817442
3905.000000	0.817371
3904.000000	0.817292
3903.000000	0.817217
3902.000000	0.817158
3901.000000	0.817119
3900.000000	0.817097
3899.000000	0.817083
3898.000000	0.817073
3897.000000	0.817066
3896.000000	0.817057
3895.000000	0.817042
3894.000000	0.817017
3893.000000	0.816981
3892.000000	0.816930
3891.000000	0.816865
3890.000000	0.816797
3889.000000	0.816736
3888.000000	0.816687
3887.000000	0.816644
3886.000000	0.816598
3885.000000	0.816550
3884.000000	0.816509
3883.000000	0.816483
3882.000000	0.816461
3881.000000	0.816428
3880.000000	0.816377
3879.000000	0.816321
3878.000000	0.816280
3877.000000	0.816260
3876.000000	0.816249
3875.000000	0.816228
3874.000000	0.816188
3873.000000	0.816131
3872.000000	0.816063
3871.000000	0.815988
3870.000000	0.815912
3869.000000	0.815845
3868.000000	0.815795
3867.000000	0.815755
3866.000000	0.815715
3865.000000	0.815664
3864.000000	0.815606
3863.000000	0.815556
3862.000000	0.815529
3861.000000	0.815528
3860.000000	0.815549
3859.000000	0.815580
3858.000000	0.815604
3857.000000	0.815597
3856.000000	0.815532
3855.000000	0.815394
3854.000000	0.815207
3853.000000	0.815026
3852.000000	0.814915
3851.000000	0.814902
3850.000000	0.814968
3849.000000	0.815063
3848.000000	0.815138
3847.000000	0.815169
3846.000000	0.815161
3845.000000	0.815124
3844.000000	0.815073
3843.000000	0.815018
3842.000000	0.814967
3841.000000	0.814925
3840.000000	0.814883
3839.000000	0.814824
3838.000000	0.814741
3837.000000	0.814647
3836.000000	0.814571
3835.000000	0.814535
3834.000000	0.814540
3833.000000	0.814569
3832.000000	0.814597
3831.000000	0.814609
3830.000000	0.814605
3829.000000	0.814592
3828.000000	0.814573
3827.000000	0.814547
3826.000000	0.814520
3825.000000	0.814498
3824.000000	0.814476
3823.000000	0.814438
3822.000000	0.814373
3821.000000	0.814285
3820.000000	0.814202
3819.000000	0.814145
3818.000000	0.814112
3817.000000	0.814075
3816.000000	0.814011
3815.000000	0.813931
3814.000000	0.813872
3813.000000	0.813867
3812.000000	0.813918
3811.000000	0.813995
3810.000000	0.814055
3809.000000	0.814066
3808.000000	0.814024
3807.000000	0.813954
3806.000000	0.813894
3805.000000	0.813872
3804.000000	0.813880
3803.000000	0.813881
3802.000000	0.813840
3801.000000	0.813763
3800.000000	0.813686
3799.000000	0.813648
3798.000000	0.813655
3797.000000	0.813687
3796.000000	0.813719
3795.000000	0.813742
3794.000000	0.813762
3793.000000	0.813783
3792.000000	0.813797
3791.000000	0.813796
3790.000000	0.813777
3789.000000	0.813747
3788.000000	0.813713
3787.000000	0.813682
3786.000000	0.813658
3785.000000	0.813646
3784.000000	0.813642
3783.000000	0.813640
3782.000000	0.813630
3781.000000	0.813607
3780.000000	0.813576
3779.000000	0.813545
3778.000000	0.813524
3777.000000	0.813518
3776.000000	0.813525
3775.000000	0.813532
3774.000000	0.813532
3773.000000	0.813516
3772.000000	0.813486
3771.000000	0.813444
3770.000000	0.813398
3769.000000	0.813359
3768.000000	0.813334
3767.000000	0.813321
3766.000000	0.813312
3765.000000	0.813301
3764.000000	0.813290
3763.000000	0.813285
3762.000000	0.813287
3761.000000	0.813284
3760.000000	0.813265
3759.000000	0.813226
3758.000000	0.813181
3757.000000	0.813150
3756.000000	0.813146
3755.000000	0.813163
3754.000000	0.813179
3753.000000	0.813165
3752.000000	0.813103
3751.000000	0.813002
3750.000000	0.812898
3749.000000	0.812830
3748.000000	0.812819
3747.000000	0.812848
3746.000000	0.812866
3745.000000	0.812833
3744.000000	0.812757
3743.000000	0.812691
3742.000000	0.812691
3741.000000	0.812767
3740.000000	0.812873
3739.000000	0.812949
3738.000000	0.812960
3737.000000	0.812913
3736.000000	0.812843
3735.000000	0.812785
3734.000000	0.812757
3733.000000	0.812761
3732.000000	0.812789
3731.000000	0.812832
3730.000000	0.812885
3729.000000	0.812939
3728.000000	0.812985
3727.000000	0.813013
3726.000000	0.813025
3725.000000	0.813031
3724.000000	0.813037
3723.000000	0.813039
3722.000000	0.813032
3721.000000	0.813021
3720.000000	0.813020
3719.000000	0.813033
3718.000000	0.813056
3717.000000	0.813086
3716.000000	0.813125
3715.000000	0.813176
3714.000000	0.813228
3713.000000	0.813260
3712.000000	0.813266
3711.000000	0.813259
3710.000000	0.813270
3709.000000	0.813316
3708.000000	0.813392
3707.000000	0.813486
3706.000000	0.813591
3705.000000	0.813708
3704.000000	0.813834
3703.000000	0.813960
3702.000000	0.814080
3701.000000	0.814200
3700.000000	0.814332
3699.000000	0.814479
3698.000000	0.814625
3697.000000	0.814749
3696.000000	0.814845
3695.000000	0.814918
3694.000000	0.814980
3693.000000	0.815038
3692.000000	0.815086
3691.000000	0.815117
3690.000000	0.815118
3689.000000	0.815094
3688.000000	0.815067
3687.000000	0.815077
3686.000000	0.815156
3685.000000	0.815297
3684.000000	0.815460
3683.000000	0.815602
3682.000000	0.815704
3681.000000	0.815783
3680.000000	0.815867
3679.000000	0.815966
3678.000000	0.816067
3677.000000	0.816149
3676.000000	0.816207
3675.000000	0.816266
3674.000000	0.816362
3673.000000	0.816511
3672.000000	0.816689
3671.000000	0.816856
3670.000000	0.816988
3669.000000	0.817103
3668.000000	0.817232
3667.000000	0.817385
3666.000000	0.817549
3665.000000	0.817701
3664.000000	0.817840
3663.000000	0.817975
3662.000000	0.818115
3661.000000	0.818255
3660.000000	0.818390
3659.000000	0.818515
3658.000000	0.818627
3657.000000	0.818726
3656.000000	0.818820
3655.000000	0.818923
3654.000000	0.819045
3653.000000	0.819183
3652.000000	0.819318
3651.000000	0.819431
3650.000000	0.819515
3649.000000	0.819581
3648.000000	0.819651
3647.000000	0.819742
3646.000000	0.819861
3645.000000	0.820005
3644.000000	0.820162
3643.000000	0.820321
3642.000000	0.820471
3641.000000	0.820604
3640.000000	0.820712
3639.000000	0.820798
3638.000000	0.820872
3637.000000	0.820949
3636.000000	0.821036
3635.000000	0.821128
3634.000000	0.821212
3633.000000	0.821284
3632.000000	0.821347
3631.000000	0.821406
3630.000000	0.821464
3629.000000	0.821521
3628.000000	0.821588
3627.000000	0.821678
3626.000000	0.821791
3625.000000	0.821914
3624.000000	0.822029
3623.000000	0.822123
3622.000000	0.822201
3621.000000	0.822269
3620.000000	0.822333
3619.000000	0.822398
3618.000000	0.822470
3617.000000	0.822553
3616.000000	0.822645
3615.000000	0.822736
3614.000000	0.822817
3613.000000	0.822885
3612.000000	0.822943
3611.000000	0.823000
3610.000000	0.823063
3609.000000	0.823136
3608.000000	0.823219
3607.000000	0.823315
3606.000000	0.823424
3605.000000	0.823541
3604.000000	0.823654
3603.000000	0.823750
3602.000000	0.823823
3601.000000	0.823881
3600.000000	0.823934
3599.000000	0.823987
3598.000000	0.824045
3597.000000	0.824106
3596.000000	0.824170
3595.000000	0.824233
3594.000000	0.824295
3593.000000	0.824358
3592.000000	0.824426
3591.000000	0.824497
3590.000000	0.824563
3589.000000	0.824613
3588.000000	0.824646
3587.000000	0.824672
3586.000000	0.824706
3585.000000	0.824762
3584.000000	0.824841
3583.000000	0.824932
3582.000000	0.825017
3581.000000	0.825084
3580.000000	0.825135
3579.000000	0.825181
3578.000000	0.825232
3577.000000	0.825290
3576.000000	0.825350
3575.000000	0.825402
3574.000000	0.825440
3573.000000	0.825468
3572.000000	0.825497
3571.000000	0.825536
3570.000000	0.825582
3569.000000	0.825628
3568.000000	0.825667
3567.000000	0.825704
3566.000000	0.825751
3565.000000	0.825814
3564.000000	0.825893
3563.000000	0.825981
3562.000000	0.826070
3561.000000	0.826151
3560.000000	0.826221
3559.000000	0.826279
3558.000000	0.826328
3557.000000	0.826374
3556.000000	0.826424
3555.000000	0.826480
3554.000000	0.826535
3553.000000	0.826578
3552.000000	0.826608
3551.000000	0.826637
3550.000000	0.826685
3549.000000	0.826757
3548.000000	0.826838
3547.000000	0.826913
3546.000000	0.826979
3545.000000	0.827048
3544.000000	0.827130
3543.000000	0.827217
3542.000000	0.827296
3541.000000	0.827361
3540.000000	0.827420
3539.000000	0.827481
3538.000000	0.827551
3537.000000	0.827626
3536.000000	0.827704
3535.000000	0.827784
3534.000000	0.827867
3533.000000	0.827952
3532.000000	0.828041
3531.000000	0.828129
3530.000000	0.828214
3529.000000	0.828295
3528.000000	0.828376
3527.000000	0.828462
3526.000000	0.828551
3525.000000	0.828636
3524.000000	0.828709
3523.000000	0.828773
3522.000000	0.828842
3521.000000	0.828932
3520.000000	0.829048
3519.000000	0.829183
3518.000000	0.829321
3517.000000	0.829448
3516.000000	0.829559
3515.000000	0.829660
3514.000000	0.829756
3513.000000	0.829849
3512.000000	0.829935
3511.000000	0.830015
3510.000000	0.830098
3509.000000	0.830193
3508.000000	0.830311
3507.000000	0.830454
3506.000000	0.830616
3505.000000	0.830782
3504.000000	0.830934
3503.000000	0.831060
3502.000000	0.831165
3501.000000	0.831267
3500.000000	0.831384
3499.000000	0.831521
3498.000000	0.831666
3497.000000	0.831807
3496.000000	0.831939
3495.000000	0.832070
3494.000000	0.832205
3493.000000	0.832345
3492.000000	0.832485
3491.000000	0.832620
3490.000000	0.832746
3489.000000	0.832859
3488.000000	0.832960
3487.000000	0.833059
3486.000000	0.833173
3485.000000	0.833309
3484.000000	0.833461
3483.000000	0.833614
3482.000000	0.833760
3481.000000	0.833904
3480.000000	0.834057
3479.000000	0.834224
3478.000000	0.834396
3477.000000	0.834558
3476.000000	0.834700
3475.000000	0.834824
3474.000000	0.834944
3473.000000	0.835070
3472.000000	0.835205
3471.000000	0.835343
3470.000000	0.835480
3469.000000	0.835614
3468.000000	0.835748
3467.000000	0.835884
3466.000000	0.836023
3465.000000	0.836165
3464.000000	0.836307
3463.000000	0.836447
3462.000000	0.836583
3461.000000	0.836717
3460.000000	0.836848
3459.000000	0.836977
3458.000000	0.837107
3457.000000	0.837238
3456.000000	0.837370
3455.000000	0.837499
3454.000000	0.837631
3453.000000	0.837770
3452.000000	0.837920
3451.000000	0.838073
3450.000000	0.838216
3449.000000	0.838339
3448.000000	0.838441
3447.000000	0.838531
3446.000000	0.838627
3445.000000	0.838739
3444.000000	0.838869
3443.000000	0.839008
3442.000000	0.839147
3441.000000	0.839276
3440.000000	0.839393
3439.000000	0.839501
3438.000000	0.839602
3437.000000	0.839698
3436.000000	0.839786
3435.000000	0.839863
3434.000000	0.839933
3433.000000	0.840008
3432.000000	0.840101
3431.000000	0.840216
3430.000000	0.840349
3429.000000	0.840488
3428.000000	0.840622
3427.000000	0.840738
3426.000000	0.840834
3425.000000	0.840914
3424.000000	0.840992
3423.000000	0.841077
3422.000000	0.841169
3421.000000	0.841263
3420.000000	0.841352
3419.000000	0.841436
3418.000000	0.841520
3417.000000	0.841610
3416.000000	0.841703
3415.000000	0.841797
3414.000000	0.841886
3413.000000	0.841968
3412.000000	0.842040
3411.000000	0.842104
3410.000000	0.842163
3409.000000	0.842227
3408.000000	0.842296
3407.000000	0.842362
3406.000000	0.842412
3405.000000	0.842446
3404.000000	0.842471
3403.000000	0.842501
3402.000000	0.842542
3401.000000	0.842595
3400.000000	0.842655
3399.000000	0.842717
3398.000000	0.842776
3397.000000	0.842828
3396.000000	0.842877
3395.000000	0.842922
3394.000000	0.842960
3393.000000	0.842991
3392.000000	0.843020
3391.000000	0.843054
3390.000000	0.843099
3389.000000	0.843149
3388.000000	0.843198
3387.000000	0.843244
3386.000000	0.843282
3385.000000	0.843311
3384.000000	0.843330
3383.000000	0.843345
3382.000000	0.843363
3381.000000	0.843392
3380.000000	0.843430
3379.000000	0.843470
3378.000000	0.843504
3377.000000	0.843531
3376.000000	0.843559
3375.000000	0.843594
3374.000000	0.843635
3373.000000	0.843669
3372.000000	0.843687
3371.000000	0.843692
3370.000000	0.843697
3369.000000	0.843713
3368.000000	0.843740
3367.000000	0.843768
3366.000000	0.843791
3365.000000	0.843808
3364.000000	0.843829
3363.000000	0.843859
3362.000000	0.843897
3361.000000	0.843934
3360.000000	0.843964
3359.000000	0.843988
3358.000000	0.844010
3357.000000	0.844035
3356.000000	0.844057
3355.000000	0.844076
3354.000000	0.844093
3353.000000	0.844108
3352.000000	0.844122
3351.000000	0.844134
3350.000000	0.844145
3349.000000	0.844159
3348.000000	0.844180
3347.000000	0.844204
3346.000000	0.844223
3345.000000	0.844231
3344.000000	0.844236
3343.000000	0.844254
3342.000000	0.844291
3341.000000	0.844333
3340.000000	0.844359
3339.000000	0.844362
3338.000000	0.844357
3337.000000	0.844368
3336.000000	0.844405
3335.000000	0.844456
3334.000000	0.844500
3333.000000	0.844524
3332.000000	0.844528
3331.000000	0.844526
3330.000000	0.844531
3329.000000	0.844545
3328.000000	0.844564
3327.000000	0.844581
3326.000000	0.844601
3325.000000	0.844630
3324.000000	0.844673
3323.000000	0.844722
3322.000000	0.844772
3321.000000	0.844818
3320.000000	0.844862
3319.000000	0.844905
3318.000000	0.844944
3317.000000	0.844976
3316.000000	0.844995
3315.000000	0.845000
3314.000000	0.844996
3313.000000	0.844991
3312.000000	0.844997
3311.000000	0.845021
3310.000000	0.845065
3309.000000	0.845118
3308.000000	0.845160
3307.000000	0.845177
3306.000000	0.845169
3305.000000	0.845151
3304.000000	0.845148
3303.000000	0.845175
3302.000000	0.845231
3301.000000	0.845298
3300.000000	0.845355
3299.000000	0.845390
3298.000000	0.845403
3297.000000	0.845407
3296.000000	0.845415
3295.000000	0.845432
3294.000000	0.845458
3293.000000	0.845489
3292.000000	0.845515
3291.000000	0.845531
3290.000000	0.845539
3289.000000	0.845549
3288.000000	0.845571
3287.000000	0.845608
3286.000000	0.845651
3285.000000	0.845684
3284.000000	0.845699
3283.000000	0.845701
3282.000000	0.845707
3281.000000	0.845724
3280.000000	0.845750
3279.000000	0.845776
3278.000000	0.845799
3277.000000	0.845820
3276.000000	0.845838
3275.000000	0.845849
3274.000000	0.845854
3273.000000	0.845858
3272.000000	0.845868
3271.000000	0.845889
3270.000000	0.845925
3269.000000	0.845979
3268.000000	0.846040
3267.000000	0.846090
3266.000000	0.846114
3265.000000	0.846119
3264.000000	0.846124
3263.000000	0.846143
3262.000000	0.846172
3261.000000	0.846198
3260.000000	0.846214
3259.000000	0.846219
3258.000000	0.846226
3257.000000	0.846245
3256.000000	0.846277
3255.000000	0.846311
3254.000000	0.846334
3253.000000	0.846341
3252.000000	0.846337
3251.000000	0.846329
3250.000000	0.846325
3249.000000	0.846330
3248.000000	0.846346
3247.000000	0.846370
3246.000000	0.846395
3245.000000	0.846418
3244.000000	0.846444
3243.000000	0.846475
3242.000000	0.846513
3241.000000	0.846552
3240.000000	0.846587
3239.000000	0.846611
3238.000000	0.846619
3237.000000	0.846610
3236.000000	0.846591
3235.000000	0.846576
3234.000000	0.846575
3233.000000	0.846591
3232.000000	0.846619
3231.000000	0.846645
3230.000000	0.846664
3229.000000	0.846676
3228.000000	0.846687
3227.000000	0.846704
3226.000000	0.846733
3225.000000	0.846778
3224.000000	0.846834
3223.000000	0.846888
3222.000000	0.846921
3221.000000	0.846925
3220.000000	0.846913
3219.000000	0.846903
3218.000000	0.846910
3217.000000	0.846936
3216.000000	0.846973
3215.000000	0.847008
3214.000000	0.847031
3213.000000	0.847041
3212.000000	0.847047
3211.000000	0.847055
3210.000000	0.847066
3209.000000	0.847082
3208.000000	0.847104
3207.000000	0.847131
3206.000000	0.847157
3205.000000	0.847174
3204.000000	0.847180
3203.000000	0.847178
3202.000000	0.847175
3201.000000	0.847175
3200.000000	0.847187
3199.000000	0.847213
3198.000000	0.847245
3197.000000	0.847270
3196.000000	0.847285
3195.000000	0.847293
3194.000000	0.847304
3193.000000	0.847324
3192.000000	0.847345
3191.000000	0.847357
3190.000000	0.847355
3189.000000	0.847351
3188.000000	0.847364
3187.000000	0.847397
3186.000000	0.847430
3185.000000	0.847438
3184.000000	0.847417
3183.000000	0.847387
3182.000000	0.847373
3181.000000	0.847386
3180.000000	0.847420
3179.000000	0.847458
3178.000000	0.847489
3177.000000	0.847512
3176.000000	0.847533
3175.000000	0.847560
3174.000000	0.847593
3173.000000	0.847621
3172.000000	0.847634
3171.000000	0.847633
3170.000000	0.847629
3169.000000	0.847632
3168.000000	0.847646
3167.000000	0.847663
3166.000000	0.847677
3165.000000	0.847686
3164.000000	0.847697
3163.000000	0.847713
3162.000000	0.847731
3161.000000	0.847749
3160.000000	0.847767
3159.000000	0.847787
3158.000000	0.847809
3157.000000	0.847825
3156.000000	0.847824
3155.000000	0.847805
3154.000000	0.847775
3153.000000	0.847753
3152.000000	0.847756
3151.000000	0.847786
3150.000000	0.847829
3149.000000	0.847867
3148.000000	0.847897
3147.000000	0.847921
3146.000000	0.847944
3145.000000	0.847961
3144.000000	0.847972
3143.000000	0.847985
3142.000000	0.848002
3141.000000	0.848019
3140.000000	0.848027
3139.000000	0.848030
3138.000000	0.848040
3137.000000	0.848066
3136.000000	0.848104
3135.000000	0.848133
3134.000000	0.848139
3133.000000	0.848123
3132.000000	0.848103
3131.000000	0.848100
3130.000000	0.848124
3129.000000	0.848167
3128.000000	0.848216
3127.000000	0.848256
3126.000000	0.848283
3125.000000	0.848295
3124.000000	0.848300
3123.000000	0.848308
3122.000000	0.848323
3121.000000	0.848341
3120.000000	0.848360
3119.000000	0.848379
3118.000000	0.848406
3117.000000	0.848438
3116.000000	0.848464
3115.000000	0.848477
3114.000000	0.848478
3113.000000	0.848482
3112.000000	0.848496
3111.000000	0.848519
3110.000000	0.848543
3109.000000	0.848563
3108.000000	0.848581
3107.000000	0.848603
3106.000000	0.848628
3105.000000	0.848648
3104.000000	0.848655
3103.000000	0.848647
3102.000000	0.848631
3101.000000	0.848620
3100.000000	0.848624
3099.000000	0.848646
3098.000000	0.848676
3097.000000	0.848700
3096.000000	0.848709
3095.000000	0.848703
3094.000000	0.848691
3093.000000	0.848681
3092.000000	0.848675
3091.000000	0.848673
3090.000000	0.848679
3089.000000	0.848692
3088.000000	0.848702
3087.000000	0.848702
3086.000000	0.848695
3085.000000	0.848689
3084.000000	0.848686
3083.000000	0.848681
3082.000000	0.848671
3081.000000	0.848660
3080.000000	0.848653
3079.000000	0.848650
3078.000000	0.848646
3077.000000	0.848643
3076.000000	0.848645
3075.000000	0.848653
3074.000000	0.848660
3073.000000	0.848664
3072.000000	0.848665
3071.000000	0.848666
3070.000000	0.848666
3069.000000	0.848660
3068.000000	0.848646
3067.000000	0.848628
3066.000000	0.848612
3065.000000	0.848599
3064.000000	0.848589
3063.000000	0.848577
3062.000000	0.848561
3061.000000	0.848541
3060.000000	0.848527
3059.000000	0.848524
3058.000000	0.848530
3057.000000	0.848532
3056.000000	0.848521
3055.000000	0.848497
3054.000000	0.848471
3053.000000	0.848449
3052.000000	0.848431
3051.000000	0.848414
3050.000000	0.848393
3049.000000	0.848362
3048.000000	0.848323
3047.000000	0.848283
3046.000000	0.848250
3045.000000	0.848230
3044.000000	0.848221
3043.000000	0.848219
3042.000000	0.848222
3041.000000	0.848225
3040.000000	0.848219
3039.000000	0.848200
3038.000000	0.848170
3037.000000	0.848138
3036.000000	0.848118
3035.000000	0.848116
3034.000000	0.848126
3033.000000	0.848134
3032.000000	0.848130
3031.000000	0.848112
3030.000000	0.848092
3029.000000	0.848076
3028.000000	0.848067
3027.000000	0.848068
3026.000000	0.848074
3025.000000	0.848073
3024.000000	0.848051
3023.000000	0.848009
3022.000000	0.847961
3021.000000	0.847927
3020.000000	0.847910
3019.000000	0.847900
3018.000000	0.847883
3017.000000	0.847848
3016.000000	0.847795
3015.000000	0.847733
3014.000000	0.847676
3013.000000	0.847636
3012.000000	0.847614
3011.000000	0.847607
3010.000000	0.847605
3009.000000	0.847598
3008.000000	0.847576
3007.000000	0.847542
3006.000000	0.847511
3005.000000	0.847493
3004.000000	0.847480
3003.000000	0.847455
3002.000000	0.847407
3001.000000	0.847343
3000.000000	0.847281
2999.000000	0.847235
2998.000000	0.847207
2997.000000	0.847193
2996.000000	0.847180
2995.000000	0.847159
2994.000000	0.847123
2993.000000	0.847070
2992.000000	0.847004
2991.000000	0.846940
2990.000000	0.846895
2989.000000	0.846869
2988.000000	0.846848
2987.000000	0.846816
2986.000000	0.846778
2985.000000	0.846749
2984.000000	0.846727
2983.000000	0.846694
2982.000000	0.846642
2981.000000	0.846588
2980.000000	0.846559
2979.000000	0.846563
2978.000000	0.846583
2977.000000	0.846602
2976.000000	0.846606
2975.000000	0.846598
2974.000000	0.846583
2973.000000	0.846569
2972.000000	0.846560
2971.000000	0.846555
2970.000000	0.846548
2969.000000	0.846536
2968.000000	0.846516
2967.000000	0.846491
2966.000000	0.846462
2965.000000	0.846436
2964.000000	0.846410
2963.000000	0.846380
2962.000000	0.846340
2961.000000	0.846291
2960.000000	0.846238
2959.000000	0.846180
2958.000000	0.846116
2957.000000	0.846049
2956.000000	0.845988
2955.000000	0.845936
2954.000000	0.845891
2953.000000	0.845853
2952.000000	0.845822
2951.000000	0.845793
2950.000000	0.845762
2949.000000	0.845726
2948.000000	0.845686
2947.000000	0.845650
2946.000000	0.845622
2945.000000	0.845604
2944.000000	0.845593
2943.000000	0.845584
2942.000000	0.845576
2941.000000	0.845567
2940.000000	0.845556
2939.000000	0.845538
2938.000000	0.845509
2937.000000	0.845474
2936.000000	0.845440
2935.000000	0.845409
2934.000000	0.845378
2933.000000	0.845340
2932.000000	0.845297
2931.000000	0.845248
2930.000000	0.845197
2929.000000	0.845149
2928.000000	0.845107
2927.000000	0.845069
2926.000000	0.845030
2925.000000	0.844985
2924.000000	0.844936
2923.000000	0.844885
2922.000000	0.844829
2921.000000	0.844766
2920.000000	0.844697
2919.000000	0.844629
2918.000000	0.844567
2917.000000	0.844511
2916.000000	0.844456
2915.000000	0.844399
2914.000000	0.844345
2913.000000	0.844297
2912.000000	0.844257
2911.000000	0.844221
2910.000000	0.844182
2909.000000	0.844134
2908.000000	0.844078
2907.000000	0.844022
2906.000000	0.843970
2905.000000	0.843921
2904.000000	0.843869
2903.000000	0.843807
2902.000000	0.843743
2901.000000	0.843689
2900.000000	0.843652
2899.000000	0.843626
2898.000000	0.843600
2897.000000	0.843564
2896.000000	0.843518
2895.000000	0.843466
2894.000000	0.843414
2893.000000	0.843367
2892.000000	0.843326
2891.000000	0.843285
2890.000000	0.843239
2889.000000	0.843186
2888.000000	0.843132
2887.000000	0.843080
2886.000000	0.843033
2885.000000	0.842992
2884.000000	0.842960
2883.000000	0.842935
2882.000000	0.842915
2881.000000	0.842888
2880.000000	0.842844
2879.000000	0.842780
2878.000000	0.842703
2877.000000	0.842626
2876.000000	0.842564
2875.000000	0.842519
2874.000000	0.842484
2873.000000	0.842450
2872.000000	0.842416
2871.000000	0.842385
2870.000000	0.842359
2869.000000	0.842333
2868.000000	0.842299
2867.000000	0.842258
2866.000000	0.842217
2865.000000	0.842183
2864.000000	0.842151
2863.000000	0.842108
2862.000000	0.842046
2861.000000	0.841968
2860.000000	0.841886
2859.000000	0.841811
2858.000000	0.841749
2857.000000	0.841697
2856.000000	0.841650
2855.000000	0.841601
2854.000000	0.841555
2853.000000	0.841521
2852.000000	0.841502
2851.000000	0.841489
2850.000000	0.841468
2849.000000	0.841440
2848.000000	0.841413
2847.000000	0.841390
2846.000000	0.841362
2845.000000	0.841319
2844.000000	0.841265
2843.000000	0.841212
2842.000000	0.841171
2841.000000	0.841145
2840.000000	0.841134
2839.000000	0.841133
2838.000000	0.841132
2837.000000	0.841123
2836.000000	0.841103
2835.000000	0.841076
2834.000000	0.841046
2833.000000	0.841011
2832.000000	0.840974
2831.000000	0.840939
2830.000000	0.840915
2829.000000	0.840899
2828.000000	0.840881
2827.000000	0.840850
2826.000000	0.840803
2825.000000	0.840749
2824.000000	0.840696
2823.000000	0.840650
2822.000000	0.840615
2821.000000	0.840593
2820.000000	0.840582
2819.000000	0.840569
2818.000000	0.840543
2817.000000	0.840498
2816.000000	0.840446
2815.000000	0.840398
2814.000000	0.840360
2813.000000	0.840328
2812.000000	0.840303
2811.000000	0.840282
2810.000000	0.840260
2809.000000	0.840235
2808.000000	0.840205
2807.000000	0.840175
2806.000000	0.840146
2805.000000	0.840118
2804.000000	0.840090
2803.000000	0.840065
2802.000000	0.840045
2801.000000	0.840030
2800.000000	0.840012
2799.000000	0.839983
2798.000000	0.839944
2797.000000	0.839904
2796.000000	0.839873
2795.000000	0.839849
2794.000000	0.839823
2793.000000	0.839791
2792.000000	0.839757
2791.000000	0.839730
2790.000000	0.839715
2789.000000	0.839709
2788.000000	0.839707
2787.000000	0.839699
2786.000000	0.839676
2785.000000	0.839640
2784.000000	0.839601
2783.000000	0.839566
2782.000000	0.839541
2781.000000	0.839523
2780.000000	0.839511
2779.000000	0.839505
2778.000000	0.839500
2777.000000	0.839488
2776.000000	0.839464
2775.000000	0.839431
2774.000000	0.839398
2773.000000	0.839380
2772.000000	0.839383
2771.000000	0.839399
2770.000000	0.839407
2769.000000	0.839388
2768.000000	0.839345
2767.000000	0.839297
2766.000000	0.839261
2765.000000	0.839240
2764.000000	0.839226
2763.000000	0.839208
2762.000000	0.839183
2761.000000	0.839160
2760.000000	0.839151
2759.000000	0.839156
2758.000000	0.839164
2757.000000	0.839165
2756.000000	0.839154
2755.000000	0.839134
2754.000000	0.839109
2753.000000	0.839084
2752.000000	0.839064
2751.000000	0.839053
2750.000000	0.839044
2749.000000	0.839031
2748.000000	0.839013
2747.000000	0.838999
2746.000000	0.838997
2745.000000	0.839006
2744.000000	0.839018
2743.000000	0.839024
2742.000000	0.839019
2741.000000	0.839001
2740.000000	0.838977
2739.000000	0.838953
2738.000000	0.838937
2737.000000	0.838929
2736.000000	0.838930
2735.000000	0.838936
2734.000000	0.838941
2733.000000	0.838935
2732.000000	0.838917
2731.000000	0.838891
2730.000000	0.838865
2729.000000	0.838843
2728.000000	0.838827
2727.000000	0.838818
2726.000000	0.838812
2725.000000	0.838805
2724.000000	0.838796
2723.000000	0.838788
2722.000000	0.838784
2721.000000	0.838787
2720.000000	0.838791
2719.000000	0.838790
2718.000000	0.838781
2717.000000	0.838765
2716.000000	0.838746
2715.000000	0.838727
2714.000000	0.838712
2713.000000	0.838703
2712.000000	0.838704
2711.000000	0.838711
2710.000000	0.838718
2709.000000	0.838719
2708.000000	0.838715
2707.000000	0.838714
2706.000000	0.838720
2705.000000	0.838728
2704.000000	0.838729
2703.000000	0.838721
2702.000000	0.838708
2701.000000	0.838701
2700.000000	0.838700
2699.000000	0.838702
2698.000000	0.838707
2697.000000	0.838712
2696.000000	0.838716
2695.000000	0.838714
2694.000000	0.838706
2693.000000	0.838694
2692.000000	0.838685
2691.000000	0.838682
2690.000000	0.838681
2689.000000	0.838679
2688.000000	0.838677
2687.000000	0.838679
2686.000000	0.838689
2685.000000	0.838710
2684.000000	0.838739
2683.000000	0.838764
2682.000000	0.838778
2681.000000	0.838779
2680.000000	0.838774
2679.000000	0.838770
2678.000000	0.838766
2677.000000	0.838761
2676.000000	0.838755
2675.000000	0.838748
2674.000000	0.838741
2673.000000	0.838738
2672.000000	0.838741
2671.000000	0.838753
2670.000000	0.838768
2669.000000	0.838782
2668.000000	0.838786
2667.000000	0.838773
2666.000000	0.838749
2665.000000	0.838732
2664.000000	0.838742
2663.000000	0.838782
2662.000000	0.838835
2661.000000	0.838877
2660.000000	0.838900
2659.000000	0.838913
2658.000000	0.838922
2657.000000	0.838930
2656.000000	0.838935
2655.000000	0.838937
2654.000000	0.838941
2653.000000	0.838951
2652.000000	0.838970
2651.000000	0.839000
2650.000000	0.839033
2649.000000	0.839059
2648.000000	0.839074
2647.000000	0.839083
2646.000000	0.839095
2645.000000	0.839113
2644.000000	0.839136
2643.000000	0.839157
2642.000000	0.839173
2641.000000	0.839183
2640.000000	0.839191
2639.000000	0.839199
2638.000000	0.839206
2637.000000	0.839206
2636.000000	0.839200
2635.000000	0.839198
2634.000000	0.839207
2633.000000	0.839230
2632.000000	0.839256
2631.000000	0.839275
2630.000000	0.839285
2629.000000	0.839291
2628.000000	0.839300
2627.000000	0.839316
2626.000000	0.839340
2625.000000	0.839370
2624.000000	0.839402
2623.000000	0.839431
2622.000000	0.839454
2621.000000	0.839467
2620.000000	0.839468
2619.000000	0.839461
2618.000000	0.839456
2617.000000	0.839467
2616.000000	0.839496
2615.000000	0.839533
2614.000000	0.839565
2613.000000	0.839588
2612.000000	0.839604
2611.000000	0.839616
2610.000000	0.839622
2609.000000	0.839624
2608.000000	0.839631
2607.000000	0.839655
2606.000000	0.839693
2605.000000	0.839735
2604.000000	0.839765
2603.000000	0.839782
2602.000000	0.839793
2601.000000	0.839808
2600.000000	0.839826
2599.000000	0.839840
2598.000000	0.839844
2597.000000	0.839842
2596.000000	0.839845
2595.000000	0.839859
2594.000000	0.839880
2593.000000	0.839899
2592.000000	0.839915
2591.000000	0.839934
2590.000000	0.839959
2589.000000	0.839981
2588.000000	0.839997
2587.000000	0.840007
2586.000000	0.840018
2585.000000	0.840032
2584.000000	0.840049
2583.000000	0.840074
2582.000000	0.840108
2581.000000	0.840147
2580.000000	0.840179
2579.000000	0.840197
2578.000000	0.840203
2577.000000	0.840203
2576.000000	0.840204
2575.000000	0.840211
2574.000000	0.840230
2573.000000	0.840257
2572.000000	0.840287
2571.000000	0.840310
2570.000000	0.840329
2569.000000	0.840349
2568.000000	0.840371
2567.000000	0.840390
2566.000000	0.840404
2565.000000	0.840421
2564.000000	0.840452
2563.000000	0.840497
2562.000000	0.840549
2561.000000	0.840596
2560.000000	0.840628
2559.000000	0.840647
2558.000000	0.840661
2557.000000	0.840681
2556.000000	0.840710
2555.000000	0.840736
2554.000000	0.840752
2553.000000	0.840769
2552.000000	0.840797
2551.000000	0.840833
2550.000000	0.840860
2549.000000	0.840869
2548.000000	0.840870
2547.000000	0.840876
2546.000000	0.840894
2545.000000	0.840921
2544.000000	0.840952
2543.000000	0.840983
2542.000000	0.841003
2541.000000	0.841008
2540.000000	0.841011
2539.000000	0.841026
2538.000000	0.841058
2537.000000	0.841098
2536.000000	0.841132
2535.000000	0.841154
2534.000000	0.841164
2533.000000	0.841172
2532.000000	0.841188
2531.000000	0.841218
2530.000000	0.841255
2529.000000	0.841287
2528.000000	0.841311
2527.000000	0.841331
2526.000000	0.841351
2525.000000	0.841367
2524.000000	0.841376
2523.000000	0.841386
2522.000000	0.841402
2521.000000	0.841428
2520.000000	0.841458
2519.000000	0.841491
2518.000000	0.841524
2517.000000	0.841554
2516.000000	0.841577
2515.000000	0.841593
2514.000000	0.841609
2513.000000	0.841630
2512.000000	0.841655
2511.000000	0.841681
2510.000000	0.841709
2509.000000	0.841745
2508.000000	0.841785
2507.000000	0.841820
2506.000000	0.841843
2505.000000	0.841850
2504.000000	0.841847
2503.000000	0.841843
2502.000000	0.841851
2501.000000	0.841876
2500.000000	0.841911
2499.000000	0.841942
2498.000000	0.841961
2497.000000	0.841973
2496.000000	0.841995
2495.000000	0.842030
2494.000000	0.842073
2493.000000	0.842112
2492.000000	0.842145
2491.000000	0.842172
2490.000000	0.842195
2489.000000	0.842214
2488.000000	0.842231
2487.000000	0.842249
2486.000000	0.842269
2485.000000	0.842292
2484.000000	0.842318
2483.000000	0.842342
2482.000000	0.842358
2481.000000	0.842369
2480.000000	0.842382
2479.000000	0.842404
2478.000000	0.842431
2477.000000	0.842460
2476.000000	0.842487
2475.000000	0.842514
2474.000000	0.842540
2473.000000	0.842563
2472.000000	0.842583
2471.000000	0.842601
2470.000000	0.842620
2469.000000	0.842645
2468.000000	0.842679
2467.000000	0.842724
2466.000000	0.842769
2465.000000	0.842806
2464.000000	0.842836
2463.000000	0.842860
2462.000000	0.842875
2461.000000	0.842880
2460.000000	0.842884
2459.000000	0.842898
2458.000000	0.842928
2457.000000	0.842958
2456.000000	0.842973
2455.000000	0.842973
2454.000000	0.842967
2453.000000	0.842968
2452.000000	0.842978
2451.000000	0.842993
2450.000000	0.843008
2449.000000	0.843022
2448.000000	0.843038
2447.000000	0.843053
2446.000000	0.843060
2445.000000	0.843056
2444.000000	0.843048
2443.000000	0.843049
2442.000000	0.843057
2441.000000	0.843067
2440.000000	0.843072
2439.000000	0.843074
2438.000000	0.843071
2437.000000	0.843058
2436.000000	0.843034
2435.000000	0.843009
2434.000000	0.842996
2433.000000	0.843001
2432.000000	0.843016
2431.000000	0.843026
2430.000000	0.843026
2429.000000	0.843014
2428.000000	0.842999
2427.000000	0.842987
2426.000000	0.842982
2425.000000	0.842979
2424.000000	0.842971
2423.000000	0.842956
2422.000000	0.842940
2421.000000	0.842927
2420.000000	0.842919
2419.000000	0.842911
2418.000000	0.842899
2417.000000	0.842882
2416.000000	0.842863
2415.000000	0.842842
2414.000000	0.842816
2413.000000	0.842786
2412.000000	0.842759
2411.000000	0.842743
2410.000000	0.842734
2409.000000	0.842723
2408.000000	0.842706
2407.000000	0.842685
2406.000000	0.842665
2405.000000	0.842645
2404.000000	0.842625
2403.000000	0.842609
2402.000000	0.842600
2401.000000	0.842594
2400.000000	0.842582
2399.000000	0.842564
2398.000000	0.842545
2397.000000	0.842529
2396.000000	0.842514
2395.000000	0.842491
2394.000000	0.842461
2393.000000	0.842434
2392.000000	0.842420
2391.000000	0.842421
2390.000000	0.842427
2389.000000	0.842432
2388.000000	0.842436
2387.000000	0.842443
2386.000000	0.842449
2385.000000	0.842446
2384.000000	0.842433
2383.000000	0.842417
2382.000000	0.842411
2381.000000	0.842425
2380.000000	0.842457
2379.000000	0.842501
2378.000000	0.842548
2377.000000	0.842596
2376.000000	0.842647
2375.000000	0.842705
2374.000000	0.842769
2373.000000	0.842835
2372.000000	0.842902
2371.000000	0.842974
2370.000000	0.843055
2369.000000	0.843141
2368.000000	0.843226
2367.000000	0.843302
2366.000000	0.843361
2365.000000	0.843399
2364.000000	0.843423
2363.000000	0.843442
2362.000000	0.843457
2361.000000	0.843458
2360.000000	0.843437
2359.000000	0.843395
2358.000000	0.843338
2357.000000	0.843275
2356.000000	0.843211
2355.000000	0.843150
2354.000000	0.843087
2353.000000	0.843019
2352.000000	0.842956
2351.000000	0.842928
2350.000000	0.842971
2349.000000	0.843109
2348.000000	0.843346
2347.000000	0.843673
2346.000000	0.844084
2345.000000	0.844579
2344.000000	0.845158
2343.000000	0.845797
2342.000000	0.846437
2341.000000	0.846986
2340.000000	0.847345
2339.000000	0.847440
2338.000000	0.847256
2337.000000	0.846848
2336.000000	0.846326
2335.000000	0.845808
2334.000000	0.845374
2333.000000	0.845040
2332.000000	0.844784
2331.000000	0.844583
2330.000000	0.844423
2329.000000	0.844299
2328.000000	0.844206
2327.000000	0.844139
2326.000000	0.844093
2325.000000	0.844059
2324.000000	0.844020
2323.000000	0.843965
2322.000000	0.843902
2321.000000	0.843848
2320.000000	0.843814
2319.000000	0.843795
2318.000000	0.843782
2317.000000	0.843763
2316.000000	0.843734
2315.000000	0.843697
2314.000000	0.843659
2313.000000	0.843631
2312.000000	0.843623
2311.000000	0.843633
2310.000000	0.843650
2309.000000	0.843665
2308.000000	0.843670
2307.000000	0.843668
2306.000000	0.843659
2305.000000	0.843649
2304.000000	0.843643
2303.000000	0.843645
2302.000000	0.843654
2301.000000	0.843669
2300.000000	0.843685
2299.000000	0.843697
2298.000000	0.843705
2297.000000	0.843709
2296.000000	0.843708
2295.000000	0.843706
2294.000000	0.843706
2293.000000	0.843715
2292.000000	0.843737
2291.000000	0.843760
2290.000000	0.843772
2289.000000	0.843773
2288.000000	0.843776
2287.000000	0.843793
2286.000000	0.843819
2285.000000	0.843842
2284.000000	0.843854
2283.000000	0.843865
2282.000000	0.843885
2281.000000	0.843917
2280.000000	0.843957
2279.000000	0.843998
2278.000000	0.844034
2277.000000	0.844064
2276.000000	0.844090
2275.000000	0.844114
2274.000000	0.844133
2273.000000	0.844142
2272.000000	0.844143
2271.000000	0.844143
2270.000000	0.844149
2269.000000	0.844160
2268.000000	0.844172
2267.000000	0.844178
2266.000000	0.844177
2265.000000	0.844171
2264.000000	0.844166
2263.000000	0.844166
2262.000000	0.844170
2261.000000	0.844175
2260.000000	0.844182
2259.000000	0.844192
2258.000000	0.844205
2257.000000	0.844217
2256.000000	0.844229
2255.000000	0.844251
2254.000000	0.844285
2253.000000	0.844319
2252.000000	0.844339
2251.000000	0.844341
2250.000000	0.844333
2249.000000	0.844326
2248.000000	0.844325
2247.000000	0.844331
2246.000000	0.844341
2245.000000	0.844347
2244.000000	0.844346
2243.000000	0.844337
2242.000000	0.844325
2241.000000	0.844313
2240.000000	0.844305
2239.000000	0.844309
2238.000000	0.844327
2237.000000	0.844356
2236.000000	0.844384
2235.000000	0.844406
2234.000000	0.844420
2233.000000	0.844427
2232.000000	0.844428
2231.000000	0.844427
2230.000000	0.844428
2229.000000	0.844432
2228.000000	0.844436
2227.000000	0.844439
2226.000000	0.844446
2225.000000	0.844459
2224.000000	0.844471
2223.000000	0.844474
2222.000000	0.844470
2221.000000	0.844461
2220.000000	0.844453
2219.000000	0.844449
2218.000000	0.844453
2217.000000	0.844465
2216.000000	0.844472
2215.000000	0.844462
2214.000000	0.844437
2213.000000	0.844411
2212.000000	0.844399
2211.000000	0.844401
2210.000000	0.844406
2209.000000	0.844403
2208.000000	0.844389
2207.000000	0.844371
2206.000000	0.844357
2205.000000	0.844351
2204.000000	0.844345
2203.000000	0.844337
2202.000000	0.844325
2201.000000	0.844307
2200.000000	0.844279
2199.000000	0.844238
2198.000000	0.844195
2197.000000	0.844172
2196.000000	0.844179
2195.000000	0.844200
2194.000000	0.844214
2193.000000	0.844211
2192.000000	0.844203
2191.000000	0.844197
2190.000000	0.844192
2189.000000	0.844179
2188.000000	0.844162
2187.000000	0.844150
2186.000000	0.844148
2185.000000	0.844150
2184.000000	0.844145
2183.000000	0.844128
2182.000000	0.844099
2181.000000	0.844070
2180.000000	0.844047
2179.000000	0.844029
2178.000000	0.844010
2177.000000	0.843985
2176.000000	0.843956
2175.000000	0.843930
2174.000000	0.843915
2173.000000	0.843906
2172.000000	0.843896
2171.000000	0.843873
2170.000000	0.843834
2169.000000	0.843784
2168.000000	0.843739
2167.000000	0.843711
2166.000000	0.843701
2165.000000	0.843698
2164.000000	0.843689
2163.000000	0.843664
2162.000000	0.843626
2161.000000	0.843590
2160.000000	0.843565
2159.000000	0.843547
2158.000000	0.843526
2157.000000	0.843497
2156.000000	0.843464
2155.000000	0.843435
2154.000000	0.843410
2153.000000	0.843384
2152.000000	0.843351
2151.000000	0.843314
2150.000000	0.843273
2149.000000	0.843228
2148.000000	0.843186
2147.000000	0.843150
2146.000000	0.843122
2145.000000	0.843100
2144.000000	0.843082
2143.000000	0.843068
2142.000000	0.843056
2141.000000	0.843036
2140.000000	0.843007
2139.000000	0.842974
2138.000000	0.842943
2137.000000	0.842913
2136.000000	0.842879
2135.000000	0.842835
2134.000000	0.842782
2133.000000	0.842723
2132.000000	0.842666
2131.000000	0.842622
2130.000000	0.842602
2129.000000	0.842603
2128.000000	0.842605
2127.000000	0.842584
2126.000000	0.842537
2125.000000	0.842477
2124.000000	0.842422
2123.000000	0.842382
2122.000000	0.842351
2121.000000	0.842322
2120.000000	0.842290
2119.000000	0.842253
2118.000000	0.842215
2117.000000	0.842180
2116.000000	0.842147
2115.000000	0.842117
2114.000000	0.842091
2113.000000	0.842066
2112.000000	0.842036
2111.000000	0.841988
2110.000000	0.841922
2109.000000	0.841850
2108.000000	0.841795
2107.000000	0.841763
2106.000000	0.841741
2105.000000	0.841713
2104.000000	0.841676
2103.000000	0.841638
2102.000000	0.841607
2101.000000	0.841579
2100.000000	0.841550
2099.000000	0.841517
2098.000000	0.841484
2097.000000	0.841449
2096.000000	0.841410
2095.000000	0.841364
2094.000000	0.841313
2093.000000	0.841268
2092.000000	0.841240
2091.000000	0.841233
2090.000000	0.841234
2089.000000	0.841222
2088.000000	0.841186
2087.000000	0.841132
2086.000000	0.841072
2085.000000	0.841011
2084.000000	0.840948
2083.000000	0.840889
2082.000000	0.840850
2081.000000	0.840838
2080.000000	0.840836
2079.000000	0.840819
2078.000000	0.840775
2077.000000	0.840716
2076.000000	0.840658
2075.000000	0.840600
2074.000000	0.840539
2073.000000	0.840476
2072.000000	0.840422
2071.000000	0.840380
2070.000000	0.840343
2069.000000	0.840308
2068.000000	0.840277
2067.000000	0.840249
2066.000000	0.840217
2065.000000	0.840173
2064.000000	0.840121
2063.000000	0.840072
2062.000000	0.840028
2061.000000	0.839986
2060.000000	0.839941
2059.000000	0.839890
2058.000000	0.839837
2057.000000	0.839783
2056.000000	0.839738
2055.000000	0.839705
2054.000000	0.839674
2053.000000	0.839634
2052.000000	0.839583
2051.000000	0.839539
2050.000000	0.839513
2049.000000	0.839500
2048.000000	0.839483
2047.000000	0.839456
2046.000000	0.839423
2045.000000	0.839384
2044.000000	0.839338
2043.000000	0.839286
2042.000000	0.839237
2041.000000	0.839199
2040.000000	0.839165
2039.000000	0.839122
2038.000000	0.839070
2037.000000	0.839020
2036.000000	0.838984
2035.000000	0.838958
2034.000000	0.838936
2033.000000	0.838915
2032.000000	0.838895
2031.000000	0.838868
2030.000000	0.838820
2029.000000	0.838756
2028.000000	0.838696
2027.000000	0.838658
2026.000000	0.838640
2025.000000	0.838624
2024.000000	0.838593
2023.000000	0.838543
2022.000000	0.838480
2021.000000	0.838417
2020.000000	0.838370
2019.000000	0.838340
2018.000000	0.838311
2017.000000	0.838270
2016.000000	0.838221
2015.000000	0.838180
2014.000000	0.838154
2013.000000	0.838129
2012.000000	0.838096
2011.000000	0.838058
2010.000000	0.838024
2009.000000	0.837995
2008.000000	0.837966
2007.000000	0.837932
2006.000000	0.837899
2005.000000	0.837870
2004.000000	0.837847
2003.000000	0.837826
2002.000000	0.837806
2001.000000	0.837784
2000.000000	0.837763
1999.000000	0.837741
1998.000000	0.837713
1997.000000	0.837676
1996.000000	0.837631
1995.000000	0.837585
1994.000000	0.837540
1993.000000	0.837495
1992.000000	0.837451
1991.000000	0.837414
1990.000000	0.837388
1989.000000	0.837367
1988.000000	0.837343
1987.000000	0.837313
1986.000000	0.837277
1985.000000	0.837240
1984.000000	0.837208
1983.000000	0.837194
1982.000000	0.837202
1981.000000	0.837221
1980.000000	0.837228
1979.000000	0.837213
1978.000000	0.837179
1977.000000	0.837138
1976.000000	0.837097
1975.000000	0.837062
1974.000000	0.837037
1973.000000	0.837022
1972.000000	0.837009
1971.000000	0.836991
1970.000000	0.836965
1969.000000	0.836931
1968.000000	0.836889
1967.000000	0.836848
1966.000000	0.836820
1965.000000	0.836812
1964.000000	0.836817
1963.000000	0.836822
1962.000000	0.836820
1961.000000	0.836812
1960.000000	0.836798
1959.000000	0.836777
1958.000000	0.836751
1957.000000	0.836721
1956.000000	0.836688
1955.000000	0.836654
1954.000000	0.836630
1953.000000	0.836623
1952.000000	0.836630
1951.000000	0.836639
1950.000000	0.836642
1949.000000	0.836644
1948.000000	0.836648
1947.000000	0.836643
1946.000000	0.836621
1945.000000	0.836586
1944.000000	0.836553
1943.000000	0.836535
1942.000000	0.836528
1941.000000	0.836526
1940.000000	0.836520
1939.000000	0.836509
1938.000000	0.836497
1937.000000	0.836486
1936.000000	0.836475
1935.000000	0.836458
1934.000000	0.836438
1933.000000	0.836425
1932.000000	0.836427
1931.000000	0.836434
1930.000000	0.836434
1929.000000	0.836427
1928.000000	0.836426
1927.000000	0.836433
1926.000000	0.836438
1925.000000	0.836428
1924.000000	0.836407
1923.000000	0.836389
1922.000000	0.836385
1921.000000	0.836391
1920.000000	0.836395
1919.000000	0.836383
1918.000000	0.836358
1917.000000	0.836342
1916.000000	0.836354
1915.000000	0.836387
1914.000000	0.836420
1913.000000	0.836436
1912.000000	0.836437
1911.000000	0.836430
1910.000000	0.836420
1909.000000	0.836415
1908.000000	0.836419
1907.000000	0.836429
1906.000000	0.836436
1905.000000	0.836441
1904.000000	0.836452
1903.000000	0.836472
1902.000000	0.836492
1901.000000	0.836502
1900.000000	0.836501
1899.000000	0.836493
1898.000000	0.836477
1897.000000	0.836454
1896.000000	0.836435
1895.000000	0.836433
1894.000000	0.836448
1893.000000	0.836465
1892.000000	0.836471
1891.000000	0.836464
1890.000000	0.836447
1889.000000	0.836427
1888.000000	0.836414
1887.000000	0.836413
1886.000000	0.836422
1885.000000	0.836431
1884.000000	0.836437
1883.000000	0.836441
1882.000000	0.836445
1881.000000	0.836445
1880.000000	0.836439
1879.000000	0.836432
1878.000000	0.836429
1877.000000	0.836436
1876.000000	0.836450
1875.000000	0.836466
1874.000000	0.836481
1873.000000	0.836491
1872.000000	0.836494
1871.000000	0.836489
1870.000000	0.836473
1869.000000	0.836456
1868.000000	0.836450
1867.000000	0.836465
1866.000000	0.836493
1865.000000	0.836520
1864.000000	0.836543
1863.000000	0.836567
1862.000000	0.836598
1861.000000	0.836630
1860.000000	0.836653
1859.000000	0.836664
1858.000000	0.836663
1857.000000	0.836655
1856.000000	0.836646
1855.000000	0.836639
1854.000000	0.836635
1853.000000	0.836634
1852.000000	0.836641
1851.000000	0.836659
1850.000000	0.836684
1849.000000	0.836703
1848.000000	0.836707
1847.000000	0.836693
1846.000000	0.836665
1845.000000	0.836632
1844.000000	0.836613
1843.000000	0.836627
1842.000000	0.836673
1841.000000	0.836730
1840.000000	0.836777
1839.000000	0.836807
1838.000000	0.836829
1837.000000	0.836847
1836.000000	0.836861
1835.000000	0.836872
1834.000000	0.836881
1833.000000	0.836892
1832.000000	0.836902
1831.000000	0.836911
1830.000000	0.836920
1829.000000	0.836936
1828.000000	0.836961
1827.000000	0.836991
1826.000000	0.837015
1825.000000	0.837036
1824.000000	0.837063
1823.000000	0.837104
1822.000000	0.837154
1821.000000	0.837198
1820.000000	0.837229
1819.000000	0.837253
1818.000000	0.837279
1817.000000	0.837307
1816.000000	0.837330
1815.000000	0.837343
1814.000000	0.837353
1813.000000	0.837374
1812.000000	0.837409
1811.000000	0.837449
1810.000000	0.837480
1809.000000	0.837496
1808.000000	0.837504
1807.000000	0.837516
1806.000000	0.837534
1805.000000	0.837555
1804.000000	0.837573
1803.000000	0.837585
1802.000000	0.837593
1801.000000	0.837598
1800.000000	0.837607
1799.000000	0.837625
1798.000000	0.837656
1797.000000	0.837690
1796.000000	0.837719
1795.000000	0.837734
1794.000000	0.837734
1793.000000	0.837728
1792.000000	0.837730
1791.000000	0.837754
1790.000000	0.837799
1789.000000	0.837854
1788.000000	0.837904
1787.000000	0.837940
1786.000000	0.837964
1785.000000	0.837986
1784.000000	0.838017
1783.000000	0.838058
1782.000000	0.838101
1781.000000	0.838137
1780.000000	0.838165
1779.000000	0.838188
1778.000000	0.838212
1777.000000	0.838238
1776.000000	0.838272
1775.000000	0.838309
1774.000000	0.838339
1773.000000	0.838355
1772.000000	0.838368
1771.000000	0.838396
1770.000000	0.838447
1769.000000	0.838508
1768.000000	0.838567
1767.000000	0.838625
1766.000000	0.838689
1765.000000	0.838753
1764.000000	0.838803
1763.000000	0.838833
1762.000000	0.838855
1761.000000	0.838882
1760.000000	0.838918
1759.000000	0.838959
1758.000000	0.839001
1757.000000	0.839044
1756.000000	0.839095
1755.000000	0.839156
1754.000000	0.839216
1753.000000	0.839256
1752.000000	0.839265
1751.000000	0.839259
1750.000000	0.839269
1749.000000	0.839315
1748.000000	0.839393
1747.000000	0.839487
1746.000000	0.839584
1745.000000	0.839671
1744.000000	0.839737
1743.000000	0.839781
1742.000000	0.839807
1741.000000	0.839828
1740.000000	0.839856
1739.000000	0.839896
1738.000000	0.839947
1737.000000	0.839988
1736.000000	0.839997
1735.000000	0.839971
1734.000000	0.839949
1733.000000	0.839981
1732.000000	0.840081
1731.000000	0.840215
1730.000000	0.840343
1729.000000	0.840451
1728.000000	0.840547
1727.000000	0.840628
1726.000000	0.840680
1725.000000	0.840701
1724.000000	0.840710
1723.000000	0.840731
1722.000000	0.840771
1721.000000	0.840816
1720.000000	0.840847
1719.000000	0.840849
1718.000000	0.840828
1717.000000	0.840814
1716.000000	0.840838
1715.000000	0.840906
1714.000000	0.840994
1713.000000	0.841080
1712.000000	0.841163
1711.000000	0.841241
1710.000000	0.841306
1709.000000	0.841348
1708.000000	0.841370
1707.000000	0.841378
1706.000000	0.841380
1705.000000	0.841384
1704.000000	0.841401
1703.000000	0.841421
1702.000000	0.841419
1701.000000	0.841385
1700.000000	0.841352
1699.000000	0.841361
1698.000000	0.841411
1697.000000	0.841459
1696.000000	0.841489
1695.000000	0.841529
1694.000000	0.841612
1693.000000	0.841723
1692.000000	0.841819
1691.000000	0.841878
1690.000000	0.841912
1689.000000	0.841942
1688.000000	0.841968
1687.000000	0.841970
1686.000000	0.841935
1685.000000	0.841878
1684.000000	0.841846
1683.000000	0.841881
1682.000000	0.841975
1681.000000	0.842080
1680.000000	0.842153
1679.000000	0.842190
1678.000000	0.842212
1677.000000	0.842229
1676.000000	0.842238
1675.000000	0.842242
1674.000000	0.842254
1673.000000	0.842278
1672.000000	0.842306
1671.000000	0.842326
1670.000000	0.842339
1669.000000	0.842355
1668.000000	0.842379
1667.000000	0.842412
1666.000000	0.842453
1665.000000	0.842493
1664.000000	0.842520
1663.000000	0.842531
1662.000000	0.842536
1661.000000	0.842553
1660.000000	0.842589
1659.000000	0.842631
1658.000000	0.842661
1657.000000	0.842664
1656.000000	0.842625
1655.000000	0.842535
1654.000000	0.842413
1653.000000	0.842320
1652.000000	0.842320
1651.000000	0.842424
1650.000000	0.842571
1649.000000	0.842682
1648.000000	0.842722
1647.000000	0.842719
1646.000000	0.842727
1645.000000	0.842774
1644.000000	0.842851
1643.000000	0.842925
1642.000000	0.842971
1641.000000	0.842980
1640.000000	0.842964
1639.000000	0.842933
1638.000000	0.842892
1637.000000	0.842844
1636.000000	0.842806
1635.000000	0.842805
1634.000000	0.842850
1633.000000	0.842918
1632.000000	0.842975
1631.000000	0.843001
1630.000000	0.842998
1629.000000	0.842980
1628.000000	0.842962
1627.000000	0.842950
1626.000000	0.842942
1625.000000	0.842925
1624.000000	0.842894
1623.000000	0.842858
1622.000000	0.842832
1621.000000	0.842822
1620.000000	0.842813
1619.000000	0.842791
1618.000000	0.842761
1617.000000	0.842751
1616.000000	0.842789
1615.000000	0.842883
1614.000000	0.842998
1613.000000	0.843091
1612.000000	0.843135
1611.000000	0.843136
1610.000000	0.843119
1609.000000	0.843105
1608.000000	0.843105
1607.000000	0.843118
1606.000000	0.843135
1605.000000	0.843142
1604.000000	0.843137
1603.000000	0.843138
1602.000000	0.843158
1601.000000	0.843193
1600.000000	0.843225
1599.000000	0.843243
1598.000000	0.843251
1597.000000	0.843260
1596.000000	0.843268
1595.000000	0.843270
1594.000000	0.843259
1593.000000	0.843241
1592.000000	0.843222
1591.000000	0.843208
1590.000000	0.843204
1589.000000	0.843213
1588.000000	0.843234
1587.000000	0.843261
1586.000000	0.843283
1585.000000	0.843294
1584.000000	0.843300
1583.000000	0.843313
1582.000000	0.843336
1581.000000	0.843360
1580.000000	0.843368
1579.000000	0.843346
1578.000000	0.843288
1577.000000	0.843207
1576.000000	0.843142
1575.000000	0.843130
1574.000000	0.843179
1573.000000	0.843254
1572.000000	0.843317
1571.000000	0.843346
1570.000000	0.843352
1569.000000	0.843355
1568.000000	0.843373
1567.000000	0.843408
1566.000000	0.843447
1565.000000	0.843472
1564.000000	0.843474
1563.000000	0.843451
1562.000000	0.843394
1561.000000	0.843292
1560.000000	0.843160
1559.000000	0.843058
1558.000000	0.843042
1557.000000	0.843102
1556.000000	0.843181
1555.000000	0.843232
1554.000000	0.843263
1553.000000	0.843300
1552.000000	0.843352
1551.000000	0.843404
1550.000000	0.843443
1549.000000	0.843464
1548.000000	0.843468
1547.000000	0.843455
1546.000000	0.843429
1545.000000	0.843396
1544.000000	0.843355
1543.000000	0.843300
1542.000000	0.843228
1541.000000	0.843147
1540.000000	0.843087
1539.000000	0.843086
1538.000000	0.843159
1537.000000	0.843273
1536.000000	0.843369
1535.000000	0.843412
1534.000000	0.843415
1533.000000	0.843416
1532.000000	0.843433
1531.000000	0.843456
1530.000000	0.843468
1529.000000	0.843465
1528.000000	0.843452
1527.000000	0.843435
1526.000000	0.843421
1525.000000	0.843410
1524.000000	0.843391
1523.000000	0.843349
1522.000000	0.843293
1521.000000	0.843256
1520.000000	0.843261
1519.000000	0.843300
1518.000000	0.843345
1517.000000	0.843380
1516.000000	0.843410
1515.000000	0.843442
1514.000000	0.843471
1513.000000	0.843487
1512.000000	0.843486
1511.000000	0.843473
1510.000000	0.843440
1509.000000	0.843379
1508.000000	0.843294
1507.000000	0.843222
1506.000000	0.843213
1505.000000	0.843285
1504.000000	0.843411
1503.000000	0.843536
1502.000000	0.843623
1501.000000	0.843673
1500.000000	0.843705
