PE IR       SUBTECH     SPECTRUM    ASCII       PEDS        4.00        
   -1
TE108B2_011.ASC
20/02/27
13:57:29.00
20/02/27
13:57:29.00
Administrator
Sample 011 By Administrator Date Thursday, February 27 2020
1500.000000
#HDR
-1
-1
#GR
cm-1
A
1.0
0.0
4000.000000
-1.000000
2501
8
0.845804
0.810321
#DATA
4000.000000	0.817731
3999.000000	0.817747
3998.000000	0.817764
3997.000000	0.817772
3996.000000	0.817768
3995.000000	0.817762
3994.000000	0.817759
3993.000000	0.817761
3992.000000	0.817765
3991.000000	0.817764
3990.000000	0.817755
3989.000000	0.817738
3988.000000	0.817713
3987.000000	0.817682
3986.000000	0.817647
3985.000000	0.817614
3984.000000	0.817589
3983.000000	0.817574
3982.000000	0.817569
3981.000000	0.817564
3980.000000	0.817553
3979.000000	0.817531
3978.000000	0.817500
3977.000000	0.817471
3976.000000	0.817453
3975.000000	0.817446
3974.000000	0.817441
3973.000000	0.817428
3972.000000	0.817402
3971.000000	0.817368
3970.000000	0.817336
3969.000000	0.817307
3968.000000	0.817280
3967.000000	0.817249
3966.000000	0.817214
3965.000000	0.817183
3964.000000	0.817156
3963.000000	0.817133
3962.000000	0.817106
3961.000000	0.817074
3960.000000	0.817040
3959.000000	0.817006
3958.000000	0.816972
3957.000000	0.816939
3956.000000	0.816913
3955.000000	0.816900
3954.000000	0.816895
3953.000000	0.816885
3952.000000	0.816857
3951.000000	0.816811
3950.000000	0.816760
3949.000000	0.816710
3948.000000	0.816662
3947.000000	0.816608
3946.000000	0.816553
3945.000000	0.816507
3944.000000	0.816479
3943.000000	0.816466
3942.000000	0.816458
3941.000000	0.816446
3940.000000	0.816423
3939.000000	0.816389
3938.000000	0.816341
3937.000000	0.816279
3936.000000	0.816214
3935.000000	0.816156
3934.000000	0.816115
3933.000000	0.816086
3932.000000	0.816060
3931.000000	0.816026
3930.000000	0.815982
3929.000000	0.815933
3928.000000	0.815882
3927.000000	0.815836
3926.000000	0.815799
3925.000000	0.815771
3924.000000	0.815740
3923.000000	0.815692
3922.000000	0.815623
3921.000000	0.815546
3920.000000	0.815479
3919.000000	0.815434
3918.000000	0.815403
3917.000000	0.815373
3916.000000	0.815336
3915.000000	0.815301
3914.000000	0.815276
3913.000000	0.815259
3912.000000	0.815236
3911.000000	0.815190
3910.000000	0.815121
3909.000000	0.815045
3908.000000	0.814985
3907.000000	0.814950
3906.000000	0.814931
3905.000000	0.814906
3904.000000	0.814857
3903.000000	0.814787
3902.000000	0.814713
3901.000000	0.814653
3900.000000	0.814612
3899.000000	0.814586
3898.000000	0.814570
3897.000000	0.814560
3896.000000	0.814550
3895.000000	0.814531
3894.000000	0.814495
3893.000000	0.814442
3892.000000	0.814381
3891.000000	0.814324
3890.000000	0.814280
3889.000000	0.814253
3888.000000	0.814239
3887.000000	0.814227
3886.000000	0.814206
3885.000000	0.814174
3884.000000	0.814137
3883.000000	0.814098
3882.000000	0.814055
3881.000000	0.813999
3880.000000	0.813928
3879.000000	0.813858
3878.000000	0.813809
3877.000000	0.813789
3876.000000	0.813785
3875.000000	0.813778
3874.000000	0.813758
3873.000000	0.813720
3872.000000	0.813660
3871.000000	0.813577
3870.000000	0.813479
3869.000000	0.813390
3868.000000	0.813335
3867.000000	0.813311
3866.000000	0.813296
3865.000000	0.813261
3864.000000	0.813204
3863.000000	0.813149
3862.000000	0.813119
3861.000000	0.813118
3860.000000	0.813128
3859.000000	0.813138
3858.000000	0.813141
3857.000000	0.813130
3856.000000	0.813083
3855.000000	0.812976
3854.000000	0.812812
3853.000000	0.812640
3852.000000	0.812522
3851.000000	0.812492
3850.000000	0.812537
3849.000000	0.812609
3848.000000	0.812664
3847.000000	0.812687
3846.000000	0.812687
3845.000000	0.812676
3844.000000	0.812658
3843.000000	0.812628
3842.000000	0.812582
3841.000000	0.812523
3840.000000	0.812447
3839.000000	0.812355
3838.000000	0.812253
3837.000000	0.812165
3836.000000	0.812117
3835.000000	0.812116
3834.000000	0.812146
3833.000000	0.812177
3832.000000	0.812186
3831.000000	0.812176
3830.000000	0.812158
3829.000000	0.812141
3828.000000	0.812123
3827.000000	0.812095
3826.000000	0.812059
3825.000000	0.812021
3824.000000	0.811983
3823.000000	0.811940
3822.000000	0.811886
3821.000000	0.811829
3820.000000	0.811786
3819.000000	0.811767
3818.000000	0.811760
3817.000000	0.811738
3816.000000	0.811685
3815.000000	0.811620
3814.000000	0.811576
3813.000000	0.811576
3812.000000	0.811609
3811.000000	0.811644
3810.000000	0.811652
3809.000000	0.811623
3808.000000	0.811559
3807.000000	0.811480
3806.000000	0.811419
3805.000000	0.811404
3804.000000	0.811428
3803.000000	0.811451
3802.000000	0.811431
3801.000000	0.811365
3800.000000	0.811293
3799.000000	0.811263
3798.000000	0.811283
3797.000000	0.811324
3796.000000	0.811352
3795.000000	0.811361
3794.000000	0.811368
3793.000000	0.811385
3792.000000	0.811404
3791.000000	0.811409
3790.000000	0.811398
3789.000000	0.811378
3788.000000	0.811360
3787.000000	0.811344
3786.000000	0.811325
3785.000000	0.811300
3784.000000	0.811272
3783.000000	0.811246
3782.000000	0.811224
3781.000000	0.811199
3780.000000	0.811168
3779.000000	0.811131
3778.000000	0.811095
3777.000000	0.811071
3776.000000	0.811065
3775.000000	0.811073
3774.000000	0.811083
3773.000000	0.811079
3772.000000	0.811051
3771.000000	0.811006
3770.000000	0.810966
3769.000000	0.810953
3768.000000	0.810971
3767.000000	0.810998
3766.000000	0.811005
3765.000000	0.810978
3764.000000	0.810934
3763.000000	0.810900
3762.000000	0.810891
3761.000000	0.810895
3760.000000	0.810894
3759.000000	0.810875
3758.000000	0.810843
3757.000000	0.810816
3756.000000	0.810804
3755.000000	0.810803
3754.000000	0.810797
3753.000000	0.810763
3752.000000	0.810693
3751.000000	0.810600
3750.000000	0.810514
3749.000000	0.810465
3748.000000	0.810465
3747.000000	0.810490
3746.000000	0.810495
3745.000000	0.810452
3744.000000	0.810376
3743.000000	0.810321
3742.000000	0.810333
3741.000000	0.810408
3740.000000	0.810500
3739.000000	0.810557
3738.000000	0.810557
3737.000000	0.810513
3736.000000	0.810453
3735.000000	0.810403
3734.000000	0.810377
3733.000000	0.810378
3732.000000	0.810398
3731.000000	0.810432
3730.000000	0.810476
3729.000000	0.810526
3728.000000	0.810568
3727.000000	0.810587
3726.000000	0.810579
3725.000000	0.810563
3724.000000	0.810561
3723.000000	0.810586
3722.000000	0.810629
3721.000000	0.810676
3720.000000	0.810715
3719.000000	0.810744
3718.000000	0.810767
3717.000000	0.810791
3716.000000	0.810818
3715.000000	0.810846
3714.000000	0.810871
3713.000000	0.810899
3712.000000	0.810962
3711.000000	0.811096
3710.000000	0.811308
3709.000000	0.811551
3708.000000	0.811750
3707.000000	0.811855
3706.000000	0.811870
3705.000000	0.811837
3704.000000	0.811803
3703.000000	0.811795
3702.000000	0.811826
3701.000000	0.811899
3700.000000	0.812003
3699.000000	0.812121
3698.000000	0.812231
3697.000000	0.812325
3696.000000	0.812404
3695.000000	0.812474
3694.000000	0.812536
3693.000000	0.812585
3692.000000	0.812615
3691.000000	0.812626
3690.000000	0.812627
3689.000000	0.812629
3688.000000	0.812647
3687.000000	0.812694
3686.000000	0.812774
3685.000000	0.812878
3684.000000	0.812990
3683.000000	0.813100
3682.000000	0.813205
3681.000000	0.813313
3680.000000	0.813425
3679.000000	0.813538
3678.000000	0.813640
3677.000000	0.813723
3676.000000	0.813791
3675.000000	0.813862
3674.000000	0.813964
3673.000000	0.814107
3672.000000	0.814269
3671.000000	0.814414
3670.000000	0.814526
3669.000000	0.814629
3668.000000	0.814757
3667.000000	0.814925
3666.000000	0.815119
3665.000000	0.815314
3664.000000	0.815494
3663.000000	0.815654
3662.000000	0.815796
3661.000000	0.815923
3660.000000	0.816045
3659.000000	0.816170
3658.000000	0.816297
3657.000000	0.816417
3656.000000	0.816522
3655.000000	0.816615
3654.000000	0.816707
3653.000000	0.816805
3652.000000	0.816907
3651.000000	0.817007
3650.000000	0.817101
3649.000000	0.817197
3648.000000	0.817308
3647.000000	0.817441
3646.000000	0.817587
3645.000000	0.817731
3644.000000	0.817858
3643.000000	0.817964
3642.000000	0.818059
3641.000000	0.818155
3640.000000	0.818258
3639.000000	0.818371
3638.000000	0.818488
3637.000000	0.818601
3636.000000	0.818703
3635.000000	0.818787
3634.000000	0.818855
3633.000000	0.818916
3632.000000	0.818983
3631.000000	0.819056
3630.000000	0.819123
3629.000000	0.819171
3628.000000	0.819211
3627.000000	0.819269
3626.000000	0.819363
3625.000000	0.819486
3624.000000	0.819613
3623.000000	0.819725
3622.000000	0.819815
3621.000000	0.819885
3620.000000	0.819936
3619.000000	0.819975
3618.000000	0.820017
3617.000000	0.820075
3616.000000	0.820156
3615.000000	0.820254
3614.000000	0.820355
3613.000000	0.820449
3612.000000	0.820531
3611.000000	0.820603
3610.000000	0.820672
3609.000000	0.820742
3608.000000	0.820819
3607.000000	0.820902
3606.000000	0.820991
3605.000000	0.821088
3604.000000	0.821202
3603.000000	0.821345
3602.000000	0.821518
3601.000000	0.821700
3600.000000	0.821853
3599.000000	0.821946
3598.000000	0.821980
3597.000000	0.821982
3596.000000	0.821983
3595.000000	0.822008
3594.000000	0.822060
3593.000000	0.822127
3592.000000	0.822188
3591.000000	0.822225
3590.000000	0.822240
3589.000000	0.822250
3588.000000	0.822275
3587.000000	0.822318
3586.000000	0.822375
3585.000000	0.822439
3584.000000	0.822510
3583.000000	0.822589
3582.000000	0.822671
3581.000000	0.822753
3580.000000	0.822832
3579.000000	0.822906
3578.000000	0.822974
3577.000000	0.823035
3576.000000	0.823092
3575.000000	0.823145
3574.000000	0.823193
3573.000000	0.823230
3572.000000	0.823257
3571.000000	0.823284
3570.000000	0.823322
3569.000000	0.823371
3568.000000	0.823422
3567.000000	0.823466
3566.000000	0.823508
3565.000000	0.823558
3564.000000	0.823623
3563.000000	0.823693
3562.000000	0.823757
3561.000000	0.823811
3560.000000	0.823859
3559.000000	0.823907
3558.000000	0.823957
3557.000000	0.824010
3556.000000	0.824065
3555.000000	0.824121
3554.000000	0.824171
3553.000000	0.824216
3552.000000	0.824260
3551.000000	0.824309
3550.000000	0.824365
3549.000000	0.824426
3548.000000	0.824485
3547.000000	0.824537
3546.000000	0.824579
3545.000000	0.824615
3544.000000	0.824656
3543.000000	0.824708
3542.000000	0.824772
3541.000000	0.824846
3540.000000	0.824925
3539.000000	0.825006
3538.000000	0.825084
3537.000000	0.825155
3536.000000	0.825221
3535.000000	0.825290
3534.000000	0.825365
3533.000000	0.825443
3532.000000	0.825515
3531.000000	0.825573
3530.000000	0.825618
3529.000000	0.825653
3528.000000	0.825687
3527.000000	0.825734
3526.000000	0.825805
3525.000000	0.825905
3524.000000	0.826024
3523.000000	0.826141
3522.000000	0.826242
3521.000000	0.826326
3520.000000	0.826403
3519.000000	0.826482
3518.000000	0.826566
3517.000000	0.826652
3516.000000	0.826738
3515.000000	0.826824
3514.000000	0.826916
3513.000000	0.827020
3512.000000	0.827138
3511.000000	0.827268
3510.000000	0.827400
3509.000000	0.827525
3508.000000	0.827641
3507.000000	0.827754
3506.000000	0.827871
3505.000000	0.827991
3504.000000	0.828102
3503.000000	0.828197
3502.000000	0.828286
3501.000000	0.828389
3500.000000	0.828517
3499.000000	0.828662
3498.000000	0.828805
3497.000000	0.828938
3496.000000	0.829068
3495.000000	0.829201
3494.000000	0.829341
3493.000000	0.829485
3492.000000	0.829627
3491.000000	0.829757
3490.000000	0.829866
3489.000000	0.829956
3488.000000	0.830045
3487.000000	0.830152
3486.000000	0.830280
3485.000000	0.830416
3484.000000	0.830543
3483.000000	0.830661
3482.000000	0.830782
3481.000000	0.830917
3480.000000	0.831064
3479.000000	0.831217
3478.000000	0.831377
3477.000000	0.831545
3476.000000	0.831712
3475.000000	0.831858
3474.000000	0.831971
3473.000000	0.832056
3472.000000	0.832138
3471.000000	0.832242
3470.000000	0.832380
3469.000000	0.832544
3468.000000	0.832716
3467.000000	0.832882
3466.000000	0.833033
3465.000000	0.833172
3464.000000	0.833303
3463.000000	0.833432
3462.000000	0.833562
3461.000000	0.833697
3460.000000	0.833840
3459.000000	0.833993
3458.000000	0.834152
3457.000000	0.834306
3456.000000	0.834447
3455.000000	0.834577
3454.000000	0.834705
3453.000000	0.834837
3452.000000	0.834968
3451.000000	0.835087
3450.000000	0.835190
3449.000000	0.835285
3448.000000	0.835388
3447.000000	0.835506
3446.000000	0.835636
3445.000000	0.835766
3444.000000	0.835887
3443.000000	0.835996
3442.000000	0.836095
3441.000000	0.836190
3440.000000	0.836285
3439.000000	0.836382
3438.000000	0.836479
3437.000000	0.836575
3436.000000	0.836674
3435.000000	0.836784
3434.000000	0.836908
3433.000000	0.837035
3432.000000	0.837150
3431.000000	0.837248
3430.000000	0.837333
3429.000000	0.837418
3428.000000	0.837510
3427.000000	0.837611
3426.000000	0.837721
3425.000000	0.837834
3424.000000	0.837941
3423.000000	0.838038
3422.000000	0.838130
3421.000000	0.838226
3420.000000	0.838329
3419.000000	0.838428
3418.000000	0.838513
3417.000000	0.838581
3416.000000	0.838638
3415.000000	0.838692
3414.000000	0.838751
3413.000000	0.838822
3412.000000	0.838910
3411.000000	0.839011
3410.000000	0.839117
3409.000000	0.839213
3408.000000	0.839286
3407.000000	0.839335
3406.000000	0.839368
3405.000000	0.839399
3404.000000	0.839434
3403.000000	0.839473
3402.000000	0.839511
3401.000000	0.839548
3400.000000	0.839595
3399.000000	0.839658
3398.000000	0.839736
3397.000000	0.839817
3396.000000	0.839887
3395.000000	0.839939
3394.000000	0.839972
3393.000000	0.839991
3392.000000	0.840010
3391.000000	0.840040
3390.000000	0.840084
3389.000000	0.840136
3388.000000	0.840179
3387.000000	0.840208
3386.000000	0.840231
3385.000000	0.840263
3384.000000	0.840311
3383.000000	0.840365
3382.000000	0.840413
3381.000000	0.840449
3380.000000	0.840476
3379.000000	0.840497
3378.000000	0.840514
3377.000000	0.840529
3376.000000	0.840548
3375.000000	0.840573
3374.000000	0.840593
3373.000000	0.840600
3372.000000	0.840598
3371.000000	0.840601
3370.000000	0.840623
3369.000000	0.840663
3368.000000	0.840710
3367.000000	0.840752
3366.000000	0.840784
3365.000000	0.840813
3364.000000	0.840845
3363.000000	0.840876
3362.000000	0.840897
3361.000000	0.840905
3360.000000	0.840910
3359.000000	0.840925
3358.000000	0.840953
3357.000000	0.840988
3356.000000	0.841022
3355.000000	0.841053
3354.000000	0.841081
3353.000000	0.841109
3352.000000	0.841139
3351.000000	0.841172
3350.000000	0.841207
3349.000000	0.841238
3348.000000	0.841261
3347.000000	0.841276
3346.000000	0.841282
3345.000000	0.841274
3344.000000	0.841255
3343.000000	0.841240
3342.000000	0.841246
3341.000000	0.841277
3340.000000	0.841326
3339.000000	0.841375
3338.000000	0.841413
3337.000000	0.841434
3336.000000	0.841441
3335.000000	0.841441
3334.000000	0.841438
3333.000000	0.841439
3332.000000	0.841452
3331.000000	0.841477
3330.000000	0.841514
3329.000000	0.841556
3328.000000	0.841594
3327.000000	0.841616
3326.000000	0.841618
3325.000000	0.841611
3324.000000	0.841616
3323.000000	0.841653
3322.000000	0.841720
3321.000000	0.841798
3320.000000	0.841857
3319.000000	0.841885
3318.000000	0.841887
3317.000000	0.841884
3316.000000	0.841897
3315.000000	0.841933
3314.000000	0.841983
3313.000000	0.842035
3312.000000	0.842079
3311.000000	0.842113
3310.000000	0.842133
3309.000000	0.842131
3308.000000	0.842108
3307.000000	0.842080
3306.000000	0.842066
3305.000000	0.842077
3304.000000	0.842109
3303.000000	0.842158
3302.000000	0.842220
3301.000000	0.842285
3300.000000	0.842339
3299.000000	0.842369
3298.000000	0.842379
3297.000000	0.842386
3296.000000	0.842401
3295.000000	0.842428
3294.000000	0.842464
3293.000000	0.842503
3292.000000	0.842537
3291.000000	0.842559
3290.000000	0.842570
3289.000000	0.842580
3288.000000	0.842598
3287.000000	0.842628
3286.000000	0.842664
3285.000000	0.842698
3284.000000	0.842726
3283.000000	0.842747
3282.000000	0.842767
3281.000000	0.842793
3280.000000	0.842825
3279.000000	0.842855
3278.000000	0.842875
3277.000000	0.842880
3276.000000	0.842876
3275.000000	0.842868
3274.000000	0.842864
3273.000000	0.842865
3272.000000	0.842873
3271.000000	0.842887
3270.000000	0.842909
3269.000000	0.842941
3268.000000	0.842983
3267.000000	0.843032
3266.000000	0.843080
3265.000000	0.843121
3264.000000	0.843152
3263.000000	0.843177
3262.000000	0.843196
3261.000000	0.843207
3260.000000	0.843210
3259.000000	0.843204
3258.000000	0.843195
3257.000000	0.843191
3256.000000	0.843199
3255.000000	0.843220
3254.000000	0.843249
3253.000000	0.843284
3252.000000	0.843322
3251.000000	0.843359
3250.000000	0.843387
3249.000000	0.843398
3248.000000	0.843396
3247.000000	0.843397
3246.000000	0.843412
3245.000000	0.843438
3244.000000	0.843465
3243.000000	0.843487
3242.000000	0.843503
3241.000000	0.843514
3240.000000	0.843515
3239.000000	0.843510
3238.000000	0.843511
3237.000000	0.843526
3236.000000	0.843551
3235.000000	0.843572
3234.000000	0.843582
3233.000000	0.843590
3232.000000	0.843609
3231.000000	0.843643
3230.000000	0.843685
3229.000000	0.843728
3228.000000	0.843764
3227.000000	0.843794
3226.000000	0.843817
3225.000000	0.843832
3224.000000	0.843836
3223.000000	0.843835
3222.000000	0.843837
3221.000000	0.843847
3220.000000	0.843868
3219.000000	0.843896
3218.000000	0.843929
3217.000000	0.843966
3216.000000	0.844003
3215.000000	0.844036
3214.000000	0.844063
3213.000000	0.844087
3212.000000	0.844111
3211.000000	0.844132
3210.000000	0.844143
3209.000000	0.844142
3208.000000	0.844130
3207.000000	0.844119
3206.000000	0.844119
3205.000000	0.844139
3204.000000	0.844177
3203.000000	0.844220
3202.000000	0.844253
3201.000000	0.844269
3200.000000	0.844269
3199.000000	0.844258
3198.000000	0.844248
3197.000000	0.844249
3196.000000	0.844267
3195.000000	0.844299
3194.000000	0.844331
3193.000000	0.844354
3192.000000	0.844366
3191.000000	0.844373
3190.000000	0.844381
3189.000000	0.844394
3188.000000	0.844413
3187.000000	0.844433
3186.000000	0.844445
3185.000000	0.844442
3184.000000	0.844431
3183.000000	0.844424
3182.000000	0.844434
3181.000000	0.844460
3180.000000	0.844493
3179.000000	0.844520
3178.000000	0.844535
3177.000000	0.844537
3176.000000	0.844532
3175.000000	0.844526
3174.000000	0.844526
3173.000000	0.844537
3172.000000	0.844562
3171.000000	0.844601
3170.000000	0.844646
3169.000000	0.844684
3168.000000	0.844704
3167.000000	0.844708
3166.000000	0.844707
3165.000000	0.844712
3164.000000	0.844720
3163.000000	0.844726
3162.000000	0.844728
3161.000000	0.844733
3160.000000	0.844749
3159.000000	0.844777
3158.000000	0.844805
3157.000000	0.844822
3156.000000	0.844822
3155.000000	0.844814
3154.000000	0.844810
3153.000000	0.844822
3152.000000	0.844849
3151.000000	0.844879
3150.000000	0.844902
3149.000000	0.844917
3148.000000	0.844928
3147.000000	0.844940
3146.000000	0.844954
3145.000000	0.844965
3144.000000	0.844968
3143.000000	0.844963
3142.000000	0.844956
3141.000000	0.844957
3140.000000	0.844972
3139.000000	0.845000
3138.000000	0.845036
3137.000000	0.845074
3136.000000	0.845110
3135.000000	0.845140
3134.000000	0.845164
3133.000000	0.845184
3132.000000	0.845204
3131.000000	0.845226
3130.000000	0.845248
3129.000000	0.845268
3128.000000	0.845282
3127.000000	0.845291
3126.000000	0.845294
3125.000000	0.845293
3124.000000	0.845297
3123.000000	0.845314
3122.000000	0.845346
3121.000000	0.845384
3120.000000	0.845418
3119.000000	0.845440
3118.000000	0.845450
3117.000000	0.845451
3116.000000	0.845449
3115.000000	0.845450
3114.000000	0.845458
3113.000000	0.845476
3112.000000	0.845502
3111.000000	0.845523
3110.000000	0.845530
3109.000000	0.845526
3108.000000	0.845525
3107.000000	0.845539
3106.000000	0.845565
3105.000000	0.845589
3104.000000	0.845603
3103.000000	0.845610
3102.000000	0.845622
3101.000000	0.845639
3100.000000	0.845657
3099.000000	0.845672
3098.000000	0.845686
3097.000000	0.845705
3096.000000	0.845729
3095.000000	0.845753
3094.000000	0.845769
3093.000000	0.845769
3092.000000	0.845756
3091.000000	0.845736
3090.000000	0.845719
3089.000000	0.845710
3088.000000	0.845709
3087.000000	0.845717
3086.000000	0.845736
3085.000000	0.845762
3084.000000	0.845785
3083.000000	0.845795
3082.000000	0.845788
3081.000000	0.845772
3080.000000	0.845760
3079.000000	0.845762
3078.000000	0.845778
3077.000000	0.845797
3076.000000	0.845804
3075.000000	0.845795
3074.000000	0.845776
3073.000000	0.845749
3072.000000	0.845710
3071.000000	0.845662
3070.000000	0.845619
3069.000000	0.845602
3068.000000	0.845613
3067.000000	0.845638
3066.000000	0.845654
3065.000000	0.845647
3064.000000	0.845618
3063.000000	0.845580
3062.000000	0.845546
3061.000000	0.845527
3060.000000	0.845521
3059.000000	0.845520
3058.000000	0.845514
3057.000000	0.845498
3056.000000	0.845474
3055.000000	0.845450
3054.000000	0.845430
3053.000000	0.845410
3052.000000	0.845389
3051.000000	0.845372
3050.000000	0.845366
3049.000000	0.845369
3048.000000	0.845370
3047.000000	0.845356
3046.000000	0.845327
3045.000000	0.845289
3044.000000	0.845250
3043.000000	0.845213
3042.000000	0.845181
3041.000000	0.845152
3040.000000	0.845126
3039.000000	0.845107
3038.000000	0.845100
3037.000000	0.845102
3036.000000	0.845100
3035.000000	0.845084
3034.000000	0.845057
3033.000000	0.845028
3032.000000	0.845007
3031.000000	0.844995
3030.000000	0.844989
3029.000000	0.844985
3028.000000	0.844975
3027.000000	0.844953
3026.000000	0.844925
3025.000000	0.844902
3024.000000	0.844892
3023.000000	0.844894
3022.000000	0.844898
3021.000000	0.844891
3020.000000	0.844866
3019.000000	0.844825
3018.000000	0.844779
3017.000000	0.844735
3016.000000	0.844695
3015.000000	0.844659
3014.000000	0.844626
3013.000000	0.844596
3012.000000	0.844563
3011.000000	0.844524
3010.000000	0.844485
3009.000000	0.844455
3008.000000	0.844436
3007.000000	0.844417
3006.000000	0.844391
3005.000000	0.844361
3004.000000	0.844334
3003.000000	0.844308
3002.000000	0.844280
3001.000000	0.844244
3000.000000	0.844205
2999.000000	0.844167
2998.000000	0.844135
2997.000000	0.844108
2996.000000	0.844079
2995.000000	0.844036
2994.000000	0.843977
2993.000000	0.843913
2992.000000	0.843858
2991.000000	0.843819
2990.000000	0.843795
2989.000000	0.843782
2988.000000	0.843777
2987.000000	0.843770
2986.000000	0.843747
2985.000000	0.843704
2984.000000	0.843651
2983.000000	0.843601
2982.000000	0.843563
2981.000000	0.843534
2980.000000	0.843509
2979.000000	0.843482
2978.000000	0.843458
2977.000000	0.843442
2976.000000	0.843434
2975.000000	0.843423
2974.000000	0.843401
2973.000000	0.843367
2972.000000	0.843332
2971.000000	0.843304
2970.000000	0.843287
2969.000000	0.843283
2968.000000	0.843293
2967.000000	0.843304
2966.000000	0.843299
2965.000000	0.843267
2964.000000	0.843210
2963.000000	0.843139
2962.000000	0.843063
2961.000000	0.842989
2960.000000	0.842920
2959.000000	0.842855
2958.000000	0.842794
2957.000000	0.842737
2956.000000	0.842689
2955.000000	0.842650
2954.000000	0.842613
2953.000000	0.842567
2952.000000	0.842509
2951.000000	0.842445
2950.000000	0.842382
2949.000000	0.842322
2948.000000	0.842265
2947.000000	0.842211
2946.000000	0.842165
2945.000000	0.842135
2944.000000	0.842122
2943.000000	0.842127
2942.000000	0.842139
2941.000000	0.842143
2940.000000	0.842126
2939.000000	0.842089
2938.000000	0.842046
2937.000000	0.842012
2936.000000	0.841988
2935.000000	0.841960
2934.000000	0.841919
2933.000000	0.841868
2932.000000	0.841815
2931.000000	0.841763
2930.000000	0.841710
2929.000000	0.841656
2928.000000	0.841610
2927.000000	0.841576
2926.000000	0.841547
2925.000000	0.841507
2924.000000	0.841448
2923.000000	0.841371
2922.000000	0.841286
2921.000000	0.841203
2920.000000	0.841128
2919.000000	0.841060
2918.000000	0.840999
2917.000000	0.840937
2916.000000	0.840871
2915.000000	0.840801
2914.000000	0.840738
2913.000000	0.840690
2912.000000	0.840662
2911.000000	0.840645
2910.000000	0.840627
2909.000000	0.840600
2908.000000	0.840564
2907.000000	0.840524
2906.000000	0.840483
2905.000000	0.840444
2904.000000	0.840406
2903.000000	0.840369
2902.000000	0.840330
2901.000000	0.840286
2900.000000	0.840238
2899.000000	0.840187
2898.000000	0.840136
2897.000000	0.840086
2896.000000	0.840037
2895.000000	0.839990
2894.000000	0.839949
2893.000000	0.839914
2892.000000	0.839881
2891.000000	0.839844
2890.000000	0.839800
2889.000000	0.839754
2888.000000	0.839711
2887.000000	0.839670
2886.000000	0.839623
2885.000000	0.839566
2884.000000	0.839505
2883.000000	0.839449
2882.000000	0.839400
2881.000000	0.839352
2880.000000	0.839295
2879.000000	0.839233
2878.000000	0.839180
2877.000000	0.839145
2876.000000	0.839128
2875.000000	0.839112
2874.000000	0.839084
2873.000000	0.839040
2872.000000	0.838987
2871.000000	0.838934
2870.000000	0.838892
2869.000000	0.838863
2868.000000	0.838841
2867.000000	0.838819
2866.000000	0.838787
2865.000000	0.838742
2864.000000	0.838686
2863.000000	0.838627
2862.000000	0.838569
2861.000000	0.838514
2860.000000	0.838459
2859.000000	0.838405
2858.000000	0.838355
2857.000000	0.838309
2856.000000	0.838268
2855.000000	0.838228
2854.000000	0.838187
2853.000000	0.838149
2852.000000	0.838117
2851.000000	0.838093
2850.000000	0.838073
2849.000000	0.838051
2848.000000	0.838025
2847.000000	0.837996
2846.000000	0.837970
2845.000000	0.837946
2844.000000	0.837917
2843.000000	0.837875
2842.000000	0.837828
2841.000000	0.837791
2840.000000	0.837774
2839.000000	0.837774
2838.000000	0.837775
2837.000000	0.837765
2836.000000	0.837741
2835.000000	0.837711
2834.000000	0.837684
2833.000000	0.837667
2832.000000	0.837658
2831.000000	0.837647
2830.000000	0.837622
2829.000000	0.837583
2828.000000	0.837540
2827.000000	0.837502
2826.000000	0.837474
2825.000000	0.837455
2824.000000	0.837437
2823.000000	0.837414
2822.000000	0.837379
2821.000000	0.837331
2820.000000	0.837280
2819.000000	0.837239
2818.000000	0.837213
2817.000000	0.837199
2816.000000	0.837187
2815.000000	0.837167
2814.000000	0.837139
2813.000000	0.837104
2812.000000	0.837068
2811.000000	0.837034
2810.000000	0.837004
2809.000000	0.836977
2808.000000	0.836952
2807.000000	0.836928
2806.000000	0.836905
2805.000000	0.836883
2804.000000	0.836863
2803.000000	0.836847
2802.000000	0.836834
2801.000000	0.836822
2800.000000	0.836803
2799.000000	0.836774
2798.000000	0.836741
2797.000000	0.836712
2796.000000	0.836693
2795.000000	0.836681
2794.000000	0.836671
2793.000000	0.836657
2792.000000	0.836634
2791.000000	0.836600
2790.000000	0.836555
2789.000000	0.836508
2788.000000	0.836467
2787.000000	0.836438
2786.000000	0.836419
2785.000000	0.836410
2784.000000	0.836405
2783.000000	0.836399
2782.000000	0.836391
2781.000000	0.836385
2780.000000	0.836384
2779.000000	0.836379
2778.000000	0.836355
2777.000000	0.836315
2776.000000	0.836276
2775.000000	0.836256
2774.000000	0.836252
2773.000000	0.836250
2772.000000	0.836243
2771.000000	0.836238
2770.000000	0.836235
2769.000000	0.836227
2768.000000	0.836205
2767.000000	0.836172
2766.000000	0.836141
2765.000000	0.836122
2764.000000	0.836110
2763.000000	0.836094
2762.000000	0.836069
2761.000000	0.836042
2760.000000	0.836024
2759.000000	0.836022
2758.000000	0.836029
2757.000000	0.836035
2756.000000	0.836033
2755.000000	0.836026
2754.000000	0.836020
2753.000000	0.836017
2752.000000	0.836012
2751.000000	0.835998
2750.000000	0.835976
2749.000000	0.835954
2748.000000	0.835941
2747.000000	0.835942
2746.000000	0.835950
2745.000000	0.835958
2744.000000	0.835960
2743.000000	0.835958
2742.000000	0.835951
2741.000000	0.835938
2740.000000	0.835918
2739.000000	0.835896
2738.000000	0.835879
2737.000000	0.835869
2736.000000	0.835861
2735.000000	0.835853
2734.000000	0.835845
2733.000000	0.835844
2732.000000	0.835851
2731.000000	0.835862
2730.000000	0.835870
2729.000000	0.835871
2728.000000	0.835867
2727.000000	0.835863
2726.000000	0.835856
2725.000000	0.835837
2724.000000	0.835806
2723.000000	0.835773
2722.000000	0.835752
2721.000000	0.835745
2720.000000	0.835747
2719.000000	0.835748
2718.000000	0.835741
2717.000000	0.835729
2716.000000	0.835720
2715.000000	0.835724
2714.000000	0.835738
2713.000000	0.835752
2712.000000	0.835754
2711.000000	0.835749
2710.000000	0.835746
2709.000000	0.835750
2708.000000	0.835750
2707.000000	0.835738
2706.000000	0.835713
2705.000000	0.835687
2704.000000	0.835668
2703.000000	0.835663
2702.000000	0.835668
2701.000000	0.835673
2700.000000	0.835667
2699.000000	0.835653
2698.000000	0.835646
2697.000000	0.835656
2696.000000	0.835675
2695.000000	0.835689
2694.000000	0.835694
2693.000000	0.835700
2692.000000	0.835714
2691.000000	0.835733
2690.000000	0.835749
2689.000000	0.835752
2688.000000	0.835742
2687.000000	0.835726
2686.000000	0.835718
2685.000000	0.835725
2684.000000	0.835740
2683.000000	0.835750
2682.000000	0.835755
2681.000000	0.835762
2680.000000	0.835777
2679.000000	0.835789
2678.000000	0.835787
2677.000000	0.835775
2676.000000	0.835771
2675.000000	0.835784
2674.000000	0.835807
2673.000000	0.835827
2672.000000	0.835841
2671.000000	0.835853
2670.000000	0.835864
2669.000000	0.835866
2668.000000	0.835854
2667.000000	0.835831
2666.000000	0.835812
2665.000000	0.835808
2664.000000	0.835815
2663.000000	0.835822
2662.000000	0.835826
2661.000000	0.835834
2660.000000	0.835854
2659.000000	0.835886
2658.000000	0.835919
2657.000000	0.835944
2656.000000	0.835960
2655.000000	0.835975
2654.000000	0.835996
2653.000000	0.836024
2652.000000	0.836055
2651.000000	0.836082
2650.000000	0.836101
2649.000000	0.836117
2648.000000	0.836129
2647.000000	0.836132
2646.000000	0.836124
2645.000000	0.836110
2644.000000	0.836104
2643.000000	0.836115
2642.000000	0.836145
2641.000000	0.836187
2640.000000	0.836228
2639.000000	0.836256
2638.000000	0.836270
2637.000000	0.836278
2636.000000	0.836288
2635.000000	0.836297
2634.000000	0.836295
2633.000000	0.836287
2632.000000	0.836290
2631.000000	0.836315
2630.000000	0.836353
2629.000000	0.836386
2628.000000	0.836403
2627.000000	0.836405
2626.000000	0.836403
2625.000000	0.836407
2624.000000	0.836420
2623.000000	0.836436
2622.000000	0.836450
2621.000000	0.836462
2620.000000	0.836475
2619.000000	0.836487
2618.000000	0.836494
2617.000000	0.836499
2616.000000	0.836512
2615.000000	0.836543
2614.000000	0.836589
2613.000000	0.836637
2612.000000	0.836672
2611.000000	0.836692
2610.000000	0.836701
2609.000000	0.836709
2608.000000	0.836716
2607.000000	0.836723
2606.000000	0.836729
2605.000000	0.836735
2604.000000	0.836743
2603.000000	0.836751
2602.000000	0.836757
2601.000000	0.836762
2600.000000	0.836771
2599.000000	0.836787
2598.000000	0.836813
2597.000000	0.836846
2596.000000	0.836880
2595.000000	0.836907
2594.000000	0.836923
2593.000000	0.836931
2592.000000	0.836937
2591.000000	0.836948
2590.000000	0.836963
2589.000000	0.836981
2588.000000	0.837002
2587.000000	0.837024
2586.000000	0.837045
2585.000000	0.837061
2584.000000	0.837073
2583.000000	0.837084
2582.000000	0.837096
2581.000000	0.837111
2580.000000	0.837129
2579.000000	0.837155
2578.000000	0.837189
2577.000000	0.837226
2576.000000	0.837258
2575.000000	0.837275
2574.000000	0.837283
2573.000000	0.837288
2572.000000	0.837297
2571.000000	0.837308
2570.000000	0.837320
2569.000000	0.837334
2568.000000	0.837354
2567.000000	0.837380
2566.000000	0.837408
2565.000000	0.837434
2564.000000	0.837457
2563.000000	0.837476
2562.000000	0.837492
2561.000000	0.837509
2560.000000	0.837532
2559.000000	0.837562
2558.000000	0.837596
2557.000000	0.837628
2556.000000	0.837648
2555.000000	0.837655
2554.000000	0.837656
2553.000000	0.837665
2552.000000	0.837692
2551.000000	0.837733
2550.000000	0.837776
2549.000000	0.837812
2548.000000	0.837841
2547.000000	0.837863
2546.000000	0.837879
2545.000000	0.837893
2544.000000	0.837905
2543.000000	0.837914
2542.000000	0.837919
2541.000000	0.837924
2540.000000	0.837935
2539.000000	0.837954
2538.000000	0.837974
2537.000000	0.837991
2536.000000	0.838010
2535.000000	0.838034
2534.000000	0.838065
2533.000000	0.838100
2532.000000	0.838136
2531.000000	0.838167
2530.000000	0.838186
2529.000000	0.838194
2528.000000	0.838199
2527.000000	0.838214
2526.000000	0.838240
2525.000000	0.838270
2524.000000	0.838295
2523.000000	0.838314
2522.000000	0.838330
2521.000000	0.838350
2520.000000	0.838376
2519.000000	0.838402
2518.000000	0.838415
2517.000000	0.838421
2516.000000	0.838436
2515.000000	0.838472
2514.000000	0.838519
2513.000000	0.838552
2512.000000	0.838564
2511.000000	0.838570
2510.000000	0.838583
2509.000000	0.838603
2508.000000	0.838623
2507.000000	0.838640
2506.000000	0.838659
2505.000000	0.838685
2504.000000	0.838715
2503.000000	0.838742
2502.000000	0.838759
2501.000000	0.838761
2500.000000	0.838755
2499.000000	0.838753
2498.000000	0.838770
2497.000000	0.838806
2496.000000	0.838848
2495.000000	0.838883
2494.000000	0.838908
2493.000000	0.838929
2492.000000	0.838954
2491.000000	0.838980
2490.000000	0.839005
2489.000000	0.839025
2488.000000	0.839045
2487.000000	0.839072
2486.000000	0.839103
2485.000000	0.839131
2484.000000	0.839152
2483.000000	0.839168
2482.000000	0.839182
2481.000000	0.839192
2480.000000	0.839201
2479.000000	0.839214
2478.000000	0.839236
2477.000000	0.839260
2476.000000	0.839277
2475.000000	0.839281
2474.000000	0.839282
2473.000000	0.839294
2472.000000	0.839322
2471.000000	0.839364
2470.000000	0.839408
2469.000000	0.839449
2468.000000	0.839486
2467.000000	0.839518
2466.000000	0.839544
2465.000000	0.839563
2464.000000	0.839578
2463.000000	0.839598
2462.000000	0.839627
2461.000000	0.839662
2460.000000	0.839695
2459.000000	0.839721
2458.000000	0.839740
2457.000000	0.839757
2456.000000	0.839775
2455.000000	0.839794
2454.000000	0.839810
2453.000000	0.839818
2452.000000	0.839819
2451.000000	0.839819
2450.000000	0.839828
2449.000000	0.839843
2448.000000	0.839859
2447.000000	0.839869
2446.000000	0.839870
2445.000000	0.839863
2444.000000	0.839849
2443.000000	0.839835
2442.000000	0.839823
2441.000000	0.839812
2440.000000	0.839795
2439.000000	0.839773
2438.000000	0.839755
2437.000000	0.839744
2436.000000	0.839737
2435.000000	0.839731
2434.000000	0.839727
2433.000000	0.839728
2432.000000	0.839732
2431.000000	0.839734
2430.000000	0.839729
2429.000000	0.839714
2428.000000	0.839688
2427.000000	0.839657
2426.000000	0.839629
2425.000000	0.839613
2424.000000	0.839604
2423.000000	0.839593
2422.000000	0.839571
2421.000000	0.839538
2420.000000	0.839502
2419.000000	0.839474
2418.000000	0.839457
2417.000000	0.839447
2416.000000	0.839436
2415.000000	0.839424
2414.000000	0.839415
2413.000000	0.839411
2412.000000	0.839405
2411.000000	0.839389
2410.000000	0.839360
2409.000000	0.839326
2408.000000	0.839293
2407.000000	0.839265
2406.000000	0.839240
2405.000000	0.839210
2404.000000	0.839170
2403.000000	0.839120
2402.000000	0.839072
2401.000000	0.839035
2400.000000	0.839006
2399.000000	0.838973
2398.000000	0.838927
2397.000000	0.838876
2396.000000	0.838827
2395.000000	0.838785
2394.000000	0.838748
2393.000000	0.838709
2392.000000	0.838665
2391.000000	0.838611
2390.000000	0.838550
2389.000000	0.838491
2388.000000	0.838444
2387.000000	0.838412
2386.000000	0.838394
2385.000000	0.838388
2384.000000	0.838403
2383.000000	0.838457
2382.000000	0.838576
2381.000000	0.838780
2380.000000	0.839061
2379.000000	0.839380
2378.000000	0.839691
2377.000000	0.839961
2376.000000	0.840184
2375.000000	0.840368
2374.000000	0.840519
2373.000000	0.840639
2372.000000	0.840727
2371.000000	0.840787
2370.000000	0.840827
2369.000000	0.840860
2368.000000	0.840901
2367.000000	0.840957
2366.000000	0.841026
2365.000000	0.841095
2364.000000	0.841157
2363.000000	0.841215
2362.000000	0.841278
2361.000000	0.841351
2360.000000	0.841434
2359.000000	0.841521
2358.000000	0.841610
2357.000000	0.841701
2356.000000	0.841787
2355.000000	0.841861
2354.000000	0.841914
2353.000000	0.841949
2352.000000	0.841968
2351.000000	0.841983
2350.000000	0.842010
2349.000000	0.842066
2348.000000	0.842166
2347.000000	0.842314
2346.000000	0.842519
2345.000000	0.842793
2344.000000	0.843143
2343.000000	0.843554
2342.000000	0.843982
2341.000000	0.844361
2340.000000	0.844621
2339.000000	0.844710
2338.000000	0.844615
2337.000000	0.844364
2336.000000	0.844019
2335.000000	0.843649
2334.000000	0.843309
2333.000000	0.843025
2332.000000	0.842801
2331.000000	0.842626
2330.000000	0.842486
2329.000000	0.842366
2328.000000	0.842252
2327.000000	0.842134
2326.000000	0.842014
2325.000000	0.841907
2324.000000	0.841829
2323.000000	0.841779
2322.000000	0.841744
2321.000000	0.841709
2320.000000	0.841667
2319.000000	0.841625
2318.000000	0.841588
2317.000000	0.841558
2316.000000	0.841527
2315.000000	0.841489
2314.000000	0.841449
2313.000000	0.841420
2312.000000	0.841411
2311.000000	0.841413
2310.000000	0.841415
2309.000000	0.841411
2308.000000	0.841405
2307.000000	0.841398
2306.000000	0.841384
2305.000000	0.841362
2304.000000	0.841341
2303.000000	0.841334
2302.000000	0.841344
2301.000000	0.841361
2300.000000	0.841371
2299.000000	0.841371
2298.000000	0.841365
2297.000000	0.841358
2296.000000	0.841355
2295.000000	0.841352
2294.000000	0.841351
2293.000000	0.841348
2292.000000	0.841343
2291.000000	0.841335
2290.000000	0.841328
2289.000000	0.841331
2288.000000	0.841347
2287.000000	0.841374
2286.000000	0.841420
2285.000000	0.841492
2284.000000	0.841590
2283.000000	0.841689
2282.000000	0.841756
2281.000000	0.841776
2280.000000	0.841765
2279.000000	0.841746
2278.000000	0.841731
2277.000000	0.841716
2276.000000	0.841698
2275.000000	0.841679
2274.000000	0.841668
2273.000000	0.841664
2272.000000	0.841664
2271.000000	0.841664
2270.000000	0.841670
2269.000000	0.841684
2268.000000	0.841698
2267.000000	0.841702
2266.000000	0.841691
2265.000000	0.841677
2264.000000	0.841670
2263.000000	0.841669
2262.000000	0.841670
2261.000000	0.841671
2260.000000	0.841679
2259.000000	0.841691
2258.000000	0.841697
2257.000000	0.841690
2256.000000	0.841677
2255.000000	0.841669
2254.000000	0.841669
2253.000000	0.841674
2252.000000	0.841680
2251.000000	0.841690
2250.000000	0.841702
2249.000000	0.841710
2248.000000	0.841711
2247.000000	0.841709
2246.000000	0.841715
2245.000000	0.841730
2244.000000	0.841745
2243.000000	0.841750
2242.000000	0.841745
2241.000000	0.841741
2240.000000	0.841750
2239.000000	0.841773
2238.000000	0.841801
2237.000000	0.841824
2236.000000	0.841837
2235.000000	0.841836
2234.000000	0.841822
2233.000000	0.841802
2232.000000	0.841791
2231.000000	0.841794
2230.000000	0.841804
2229.000000	0.841813
2228.000000	0.841817
2227.000000	0.841817
2226.000000	0.841811
2225.000000	0.841792
2224.000000	0.841765
2223.000000	0.841742
2222.000000	0.841735
2221.000000	0.841743
2220.000000	0.841760
2219.000000	0.841776
2218.000000	0.841782
2217.000000	0.841776
2216.000000	0.841760
2215.000000	0.841746
2214.000000	0.841738
2213.000000	0.841734
2212.000000	0.841726
2211.000000	0.841710
2210.000000	0.841691
2209.000000	0.841672
2208.000000	0.841657
2207.000000	0.841645
2206.000000	0.841636
2205.000000	0.841630
2204.000000	0.841625
2203.000000	0.841622
2202.000000	0.841618
2201.000000	0.841608
2200.000000	0.841591
2199.000000	0.841569
2198.000000	0.841546
2197.000000	0.841524
2196.000000	0.841505
2195.000000	0.841490
2194.000000	0.841480
2193.000000	0.841470
2192.000000	0.841455
2191.000000	0.841436
2190.000000	0.841418
2189.000000	0.841404
2188.000000	0.841396
2187.000000	0.841395
2186.000000	0.841399
2185.000000	0.841404
2184.000000	0.841396
2183.000000	0.841374
2182.000000	0.841346
2181.000000	0.841324
2180.000000	0.841309
2179.000000	0.841293
2178.000000	0.841271
2177.000000	0.841244
2176.000000	0.841220
2175.000000	0.841196
2174.000000	0.841169
2173.000000	0.841141
2172.000000	0.841119
2171.000000	0.841104
2170.000000	0.841089
2169.000000	0.841062
2168.000000	0.841025
2167.000000	0.840991
2166.000000	0.840970
2165.000000	0.840959
2164.000000	0.840948
2163.000000	0.840927
2162.000000	0.840898
2161.000000	0.840868
2160.000000	0.840840
2159.000000	0.840817
2158.000000	0.840794
2157.000000	0.840765
2156.000000	0.840729
2155.000000	0.840694
2154.000000	0.840670
2153.000000	0.840657
2152.000000	0.840643
2151.000000	0.840618
2150.000000	0.840581
2149.000000	0.840543
2148.000000	0.840510
2147.000000	0.840481
2146.000000	0.840448
2145.000000	0.840407
2144.000000	0.840359
2143.000000	0.840313
2142.000000	0.840274
2141.000000	0.840248
2140.000000	0.840235
2139.000000	0.840226
2138.000000	0.840209
2137.000000	0.840174
2136.000000	0.840123
2135.000000	0.840070
2134.000000	0.840026
2133.000000	0.839995
2132.000000	0.839969
2131.000000	0.839941
2130.000000	0.839911
2129.000000	0.839885
2128.000000	0.839861
2127.000000	0.839834
2126.000000	0.839801
2125.000000	0.839760
2124.000000	0.839713
2123.000000	0.839661
2122.000000	0.839612
2121.000000	0.839577
2120.000000	0.839558
2119.000000	0.839546
2118.000000	0.839528
2117.000000	0.839497
2116.000000	0.839456
2115.000000	0.839411
2114.000000	0.839366
2113.000000	0.839323
2112.000000	0.839285
2111.000000	0.839250
2110.000000	0.839215
2109.000000	0.839177
2108.000000	0.839139
2107.000000	0.839105
2106.000000	0.839076
2105.000000	0.839044
2104.000000	0.838998
2103.000000	0.838938
2102.000000	0.838875
2101.000000	0.838823
2100.000000	0.838788
2099.000000	0.838764
2098.000000	0.838742
2097.000000	0.838716
2096.000000	0.838681
2095.000000	0.838638
2094.000000	0.838594
2093.000000	0.838560
2092.000000	0.838540
2091.000000	0.838528
2090.000000	0.838512
2089.000000	0.838483
2088.000000	0.838441
2087.000000	0.838391
2086.000000	0.838342
2085.000000	0.838299
2084.000000	0.838260
2083.000000	0.838220
2082.000000	0.838174
2081.000000	0.838122
2080.000000	0.838067
2079.000000	0.838015
2078.000000	0.837969
2077.000000	0.837935
2076.000000	0.837907
2075.000000	0.837878
2074.000000	0.837837
2073.000000	0.837788
2072.000000	0.837741
2071.000000	0.837706
2070.000000	0.837680
2069.000000	0.837651
2068.000000	0.837612
2067.000000	0.837565
2066.000000	0.837517
2065.000000	0.837470
2064.000000	0.837418
2063.000000	0.837361
2062.000000	0.837307
2061.000000	0.837265
2060.000000	0.837235
2059.000000	0.837210
2058.000000	0.837182
2057.000000	0.837152
2056.000000	0.837116
2055.000000	0.837073
2054.000000	0.837024
2053.000000	0.836975
2052.000000	0.836930
2051.000000	0.836885
2050.000000	0.836840
2049.000000	0.836804
2048.000000	0.836782
2047.000000	0.836767
2046.000000	0.836742
2045.000000	0.836701
2044.000000	0.836645
2043.000000	0.836583
2042.000000	0.836522
2041.000000	0.836472
2040.000000	0.836440
2039.000000	0.836421
2038.000000	0.836399
2037.000000	0.836361
2036.000000	0.836310
2035.000000	0.836259
2034.000000	0.836215
2033.000000	0.836181
2032.000000	0.836155
2031.000000	0.836138
2030.000000	0.836123
2029.000000	0.836099
2028.000000	0.836056
2027.000000	0.835997
2026.000000	0.835934
2025.000000	0.835874
2024.000000	0.835820
2023.000000	0.835773
2022.000000	0.835733
2021.000000	0.835701
2020.000000	0.835675
2019.000000	0.835648
2018.000000	0.835613
2017.000000	0.835568
2016.000000	0.835517
2015.000000	0.835466
2014.000000	0.835420
2013.000000	0.835381
2012.000000	0.835351
2011.000000	0.835329
2010.000000	0.835316
2009.000000	0.835310
2008.000000	0.835305
2007.000000	0.835293
2006.000000	0.835265
2005.000000	0.835222
2004.000000	0.835174
2003.000000	0.835132
2002.000000	0.835099
2001.000000	0.835071
2000.000000	0.835047
1999.000000	0.835026
1998.000000	0.835005
1997.000000	0.834981
1996.000000	0.834950
1995.000000	0.834916
1994.000000	0.834880
1993.000000	0.834842
1992.000000	0.834800
1991.000000	0.834760
1990.000000	0.834730
1989.000000	0.834711
1988.000000	0.834698
1987.000000	0.834686
1986.000000	0.834673
1985.000000	0.834659
1984.000000	0.834638
1983.000000	0.834606
1982.000000	0.834566
1981.000000	0.834525
1980.000000	0.834490
1979.000000	0.834465
1978.000000	0.834451
1977.000000	0.834445
1976.000000	0.834438
1975.000000	0.834423
1974.000000	0.834403
1973.000000	0.834379
1972.000000	0.834353
1971.000000	0.834326
1970.000000	0.834306
1969.000000	0.834296
1968.000000	0.834290
1967.000000	0.834277
1966.000000	0.834252
1965.000000	0.834219
1964.000000	0.834186
1963.000000	0.834158
1962.000000	0.834142
1961.000000	0.834143
1960.000000	0.834156
1959.000000	0.834160
1958.000000	0.834141
1957.000000	0.834103
1956.000000	0.834065
1955.000000	0.834042
1954.000000	0.834034
1953.000000	0.834038
1952.000000	0.834050
1951.000000	0.834061
1950.000000	0.834062
1949.000000	0.834047
1948.000000	0.834018
1947.000000	0.833979
1946.000000	0.833943
1945.000000	0.833917
1944.000000	0.833901
1943.000000	0.833888
1942.000000	0.833871
1941.000000	0.833855
1940.000000	0.833845
1939.000000	0.833839
1938.000000	0.833831
1937.000000	0.833819
1936.000000	0.833805
1935.000000	0.833792
1934.000000	0.833782
1933.000000	0.833778
1932.000000	0.833784
1931.000000	0.833795
1930.000000	0.833799
1929.000000	0.833792
1928.000000	0.833777
1927.000000	0.833765
1926.000000	0.833761
1925.000000	0.833767
1924.000000	0.833777
1923.000000	0.833784
1922.000000	0.833782
1921.000000	0.833771
1920.000000	0.833753
1919.000000	0.833736
1918.000000	0.833725
1917.000000	0.833725
1916.000000	0.833733
1915.000000	0.833743
1914.000000	0.833756
1913.000000	0.833775
1912.000000	0.833801
1911.000000	0.833823
1910.000000	0.833832
1909.000000	0.833833
1908.000000	0.833834
1907.000000	0.833837
1906.000000	0.833842
1905.000000	0.833850
1904.000000	0.833861
1903.000000	0.833869
1902.000000	0.833866
1901.000000	0.833853
1900.000000	0.833841
1899.000000	0.833840
1898.000000	0.833847
1897.000000	0.833853
1896.000000	0.833852
1895.000000	0.833851
1894.000000	0.833856
1893.000000	0.833872
1892.000000	0.833891
1891.000000	0.833897
1890.000000	0.833881
1889.000000	0.833855
1888.000000	0.833839
1887.000000	0.833838
1886.000000	0.833842
1885.000000	0.833841
1884.000000	0.833836
1883.000000	0.833835
1882.000000	0.833843
1881.000000	0.833858
1880.000000	0.833878
1879.000000	0.833897
1878.000000	0.833912
1877.000000	0.833923
1876.000000	0.833931
1875.000000	0.833938
1874.000000	0.833941
1873.000000	0.833936
1872.000000	0.833926
1871.000000	0.833915
1870.000000	0.833908
1869.000000	0.833911
1868.000000	0.833919
1867.000000	0.833926
1866.000000	0.833929
1865.000000	0.833933
1864.000000	0.833947
1863.000000	0.833968
1862.000000	0.833986
1861.000000	0.833995
1860.000000	0.833997
1859.000000	0.833999
1858.000000	0.834005
1857.000000	0.834015
1856.000000	0.834032
1855.000000	0.834054
1854.000000	0.834074
1853.000000	0.834083
1852.000000	0.834083
1851.000000	0.834077
1850.000000	0.834070
1849.000000	0.834068
1848.000000	0.834072
1847.000000	0.834079
1846.000000	0.834084
1845.000000	0.834085
1844.000000	0.834090
1843.000000	0.834112
1842.000000	0.834155
1841.000000	0.834207
1840.000000	0.834251
1839.000000	0.834274
1838.000000	0.834275
1837.000000	0.834269
1836.000000	0.834267
1835.000000	0.834272
1834.000000	0.834283
1833.000000	0.834298
1832.000000	0.834316
1831.000000	0.834334
1830.000000	0.834347
1829.000000	0.834356
1828.000000	0.834374
1827.000000	0.834405
1826.000000	0.834443
1825.000000	0.834481
1824.000000	0.834518
1823.000000	0.834554
1822.000000	0.834584
1821.000000	0.834599
1820.000000	0.834602
1819.000000	0.834611
1818.000000	0.834641
1817.000000	0.834691
1816.000000	0.834742
1815.000000	0.834781
1814.000000	0.834808
1813.000000	0.834829
1812.000000	0.834845
1811.000000	0.834851
1810.000000	0.834851
1809.000000	0.834858
1808.000000	0.834879
1807.000000	0.834905
1806.000000	0.834924
1805.000000	0.834935
1804.000000	0.834946
1803.000000	0.834955
1802.000000	0.834960
1801.000000	0.834965
1800.000000	0.834984
1799.000000	0.835019
1798.000000	0.835059
1797.000000	0.835090
1796.000000	0.835112
1795.000000	0.835125
1794.000000	0.835127
1793.000000	0.835117
1792.000000	0.835110
1791.000000	0.835126
1790.000000	0.835172
1789.000000	0.835235
1788.000000	0.835292
1787.000000	0.835328
1786.000000	0.835346
1785.000000	0.835360
1784.000000	0.835385
1783.000000	0.835422
1782.000000	0.835460
1781.000000	0.835493
1780.000000	0.835521
1779.000000	0.835549
1778.000000	0.835581
1777.000000	0.835618
1776.000000	0.835655
1775.000000	0.835677
1774.000000	0.835673
1773.000000	0.835656
1772.000000	0.835660
1771.000000	0.835706
1770.000000	0.835782
1769.000000	0.835858
1768.000000	0.835926
1767.000000	0.835996
1766.000000	0.836074
1765.000000	0.836144
1764.000000	0.836188
1763.000000	0.836207
1762.000000	0.836220
1761.000000	0.836247
1760.000000	0.836292
1759.000000	0.836343
1758.000000	0.836391
1757.000000	0.836436
1756.000000	0.836485
1755.000000	0.836538
1754.000000	0.836580
1753.000000	0.836596
1752.000000	0.836597
1751.000000	0.836606
1750.000000	0.836642
1749.000000	0.836704
1748.000000	0.836776
1747.000000	0.836844
1746.000000	0.836901
1745.000000	0.836948
1744.000000	0.836994
1743.000000	0.837043
1742.000000	0.837090
1741.000000	0.837125
1740.000000	0.837150
1739.000000	0.837182
1738.000000	0.837231
1737.000000	0.837279
1736.000000	0.837294
1735.000000	0.837276
1734.000000	0.837265
1733.000000	0.837310
1732.000000	0.837415
1731.000000	0.837542
1730.000000	0.837653
1729.000000	0.837740
1728.000000	0.837815
1727.000000	0.837885
1726.000000	0.837944
1725.000000	0.837992
1724.000000	0.838032
1723.000000	0.838069
1722.000000	0.838099
1721.000000	0.838117
1720.000000	0.838116
1719.000000	0.838096
1718.000000	0.838071
1717.000000	0.838070
1716.000000	0.838120
1715.000000	0.838220
1714.000000	0.838344
1713.000000	0.838462
1712.000000	0.838555
1711.000000	0.838618
1710.000000	0.838654
1709.000000	0.838680
1708.000000	0.838708
1707.000000	0.838739
1706.000000	0.838763
1705.000000	0.838778
1704.000000	0.838791
1703.000000	0.838796
1702.000000	0.838776
1701.000000	0.838734
1700.000000	0.838707
1699.000000	0.838727
1698.000000	0.838780
1697.000000	0.838828
1696.000000	0.838862
1695.000000	0.838911
1694.000000	0.838998
1693.000000	0.839106
1692.000000	0.839200
1691.000000	0.839259
1690.000000	0.839290
1689.000000	0.839307
1688.000000	0.839308
1687.000000	0.839278
1686.000000	0.839212
1685.000000	0.839144
1684.000000	0.839129
1683.000000	0.839194
1682.000000	0.839310
1681.000000	0.839422
1680.000000	0.839502
1679.000000	0.839554
1678.000000	0.839584
1677.000000	0.839581
1676.000000	0.839546
1675.000000	0.839512
1674.000000	0.839517
1673.000000	0.839566
1672.000000	0.839619
1671.000000	0.839643
1670.000000	0.839640
1669.000000	0.839648
1668.000000	0.839694
1667.000000	0.839769
1666.000000	0.839841
1665.000000	0.839879
1664.000000	0.839880
1663.000000	0.839863
1662.000000	0.839856
1661.000000	0.839872
1660.000000	0.839909
1659.000000	0.839956
1658.000000	0.839995
1657.000000	0.840006
1656.000000	0.839968
1655.000000	0.839871
1654.000000	0.839739
1653.000000	0.839639
1652.000000	0.839647
1651.000000	0.839773
1650.000000	0.839943
1649.000000	0.840060
1648.000000	0.840082
1647.000000	0.840046
1646.000000	0.840023
1645.000000	0.840055
1644.000000	0.840138
1643.000000	0.840235
1642.000000	0.840303
1641.000000	0.840324
1640.000000	0.840304
1639.000000	0.840262
1638.000000	0.840206
1637.000000	0.840140
1636.000000	0.840080
1635.000000	0.840059
1634.000000	0.840095
1633.000000	0.840173
1632.000000	0.840259
1631.000000	0.840324
1630.000000	0.840356
1629.000000	0.840356
1628.000000	0.840335
1627.000000	0.840311
1626.000000	0.840291
1625.000000	0.840271
1624.000000	0.840238
1623.000000	0.840197
1622.000000	0.840169
1621.000000	0.840161
1620.000000	0.840156
1619.000000	0.840131
1618.000000	0.840085
1617.000000	0.840052
1616.000000	0.840070
1615.000000	0.840150
1614.000000	0.840263
1613.000000	0.840367
1612.000000	0.840435
1611.000000	0.840464
1610.000000	0.840466
1609.000000	0.840447
1608.000000	0.840417
1607.000000	0.840388
1606.000000	0.840375
1605.000000	0.840386
1604.000000	0.840411
1603.000000	0.840433
1602.000000	0.840443
1601.000000	0.840444
1600.000000	0.840448
1599.000000	0.840462
1598.000000	0.840486
1597.000000	0.840513
1596.000000	0.840538
1595.000000	0.840556
1594.000000	0.840564
1593.000000	0.840563
1592.000000	0.840560
1591.000000	0.840562
1590.000000	0.840569
1589.000000	0.840573
1588.000000	0.840570
1587.000000	0.840566
1586.000000	0.840571
1585.000000	0.840588
1584.000000	0.840612
1583.000000	0.840630
1582.000000	0.840638
1581.000000	0.840637
1580.000000	0.840628
1579.000000	0.840602
1578.000000	0.840544
1577.000000	0.840466
1576.000000	0.840412
1575.000000	0.840424
1574.000000	0.840497
1573.000000	0.840579
1572.000000	0.840620
1571.000000	0.840611
1570.000000	0.840586
1569.000000	0.840583
1568.000000	0.840613
1567.000000	0.840660
1566.000000	0.840704
1565.000000	0.840730
1564.000000	0.840735
1563.000000	0.840710
1562.000000	0.840638
1561.000000	0.840516
1560.000000	0.840385
1559.000000	0.840316
1558.000000	0.840344
1557.000000	0.840437
1556.000000	0.840532
1555.000000	0.840599
1554.000000	0.840654
1553.000000	0.840711
1552.000000	0.840759
1551.000000	0.840775
1550.000000	0.840760
1549.000000	0.840735
1548.000000	0.840716
1547.000000	0.840706
1546.000000	0.840699
1545.000000	0.840692
1544.000000	0.840679
1543.000000	0.840651
1542.000000	0.840594
1541.000000	0.840511
1540.000000	0.840432
1539.000000	0.840407
1538.000000	0.840468
1537.000000	0.840589
1536.000000	0.840703
1535.000000	0.840754
1534.000000	0.840741
1533.000000	0.840710
1532.000000	0.840702
1531.000000	0.840724
1530.000000	0.840753
1529.000000	0.840769
1528.000000	0.840763
1527.000000	0.840746
1526.000000	0.840732
1525.000000	0.840723
1524.000000	0.840705
1523.000000	0.840659
1522.000000	0.840596
1521.000000	0.840551
1520.000000	0.840556
1519.000000	0.840604
1518.000000	0.840659
1517.000000	0.840693
1516.000000	0.840709
1515.000000	0.840723
1514.000000	0.840739
1513.000000	0.840751
1512.000000	0.840754
1511.000000	0.840748
1510.000000	0.840722
1509.000000	0.840656
1508.000000	0.840548
1507.000000	0.840442
1506.000000	0.840401
1505.000000	0.840458
1504.000000	0.840582
1503.000000	0.840716
1502.000000	0.840818
1501.000000	0.840884
1500.000000	0.840926
