PE IR       SUBTECH     SPECTRUM    ASCII       PEDS        4.00        
   -1
TE108B2_001.ASC
20/02/27
13:12:06.00
20/02/27
13:12:06.00
Administrator
Sample 001 By Administrator Date Thursday, February 27 2020
1500.000000
#HDR
-1
-1
#GR
cm-1
EGY
1.0
0.0
4000.000000
-1.000000
2501
8
15.372423
10.780151
#DATA
4000.000000	10.780151
3999.000000	10.781970
3998.000000	10.784258
3997.000000	10.788112
3996.000000	10.793229
3995.000000	10.798674
3994.000000	10.803845
3993.000000	10.808731
3992.000000	10.813538
3991.000000	10.818373
3990.000000	10.823295
3989.000000	10.828393
3988.000000	10.833634
3987.000000	10.838758
3986.000000	10.843569
3985.000000	10.848315
3984.000000	10.853570
3983.000000	10.859651
3982.000000	10.866192
3981.000000	10.872352
3980.000000	10.877427
3979.000000	10.881329
3978.000000	10.884651
3977.000000	10.888276
3976.000000	10.892812
3975.000000	10.898291
3974.000000	10.904350
3973.000000	10.910608
3972.000000	10.916804
3971.000000	10.922710
3970.000000	10.928156
3969.000000	10.933197
3968.000000	10.938115
3967.000000	10.943173
3966.000000	10.948393
3965.000000	10.953589
3964.000000	10.958553
3963.000000	10.963247
3962.000000	10.967919
3961.000000	10.973006
3960.000000	10.978810
3959.000000	10.985188
3958.000000	10.991643
3957.000000	10.997694
3956.000000	11.003105
3955.000000	11.007814
3954.000000	11.011813
3953.000000	11.015169
3952.000000	11.018107
3951.000000	11.021079
3950.000000	11.024732
3949.000000	11.029616
3948.000000	11.035675
3947.000000	11.042050
3946.000000	11.047689
3945.000000	11.052352
3944.000000	11.056924
3943.000000	11.062692
3942.000000	11.070304
3941.000000	11.079373
3940.000000	11.088787
3939.000000	11.097212
3938.000000	11.103481
3937.000000	11.106879
3936.000000	11.107479
3935.000000	11.106423
3934.000000	11.105838
3933.000000	11.108104
3932.000000	11.114596
3931.000000	11.124730
3930.000000	11.136140
3929.000000	11.146021
3928.000000	11.152757
3927.000000	11.156729
3926.000000	11.159846
3925.000000	11.164037
3924.000000	11.169756
3923.000000	11.175624
3922.000000	11.179639
3921.000000	11.180965
3920.000000	11.180871
3919.000000	11.182178
3918.000000	11.187714
3917.000000	11.198782
3916.000000	11.214377
3915.000000	11.231686
3914.000000	11.247596
3913.000000	11.260241
3912.000000	11.269363
3911.000000	11.275281
3910.000000	11.277537
3909.000000	11.274521
3908.000000	11.264612
3907.000000	11.248178
3906.000000	11.228712
3905.000000	11.211780
3904.000000	11.202216
3903.000000	11.201948
3902.000000	11.210315
3901.000000	11.225949
3900.000000	11.247828
3899.000000	11.274394
3898.000000	11.302079
3897.000000	11.325258
3896.000000	11.338275
3895.000000	11.338811
3894.000000	11.330390
3893.000000	11.321433
3892.000000	11.319990
3891.000000	11.327473
3890.000000	11.337242
3889.000000	11.340435
3888.000000	11.334451
3887.000000	11.325844
3886.000000	11.324489
3885.000000	11.334473
3884.000000	11.350883
3883.000000	11.365465
3882.000000	11.374939
3881.000000	11.383042
3880.000000	11.394768
3879.000000	11.410023
3878.000000	11.423801
3877.000000	11.431596
3876.000000	11.432662
3875.000000	11.427922
3874.000000	11.416985
3873.000000	11.399702
3872.000000	11.380488
3871.000000	11.368540
3870.000000	11.371562
3869.000000	11.388656
3868.000000	11.410574
3867.000000	11.427591
3866.000000	11.437444
3865.000000	11.445477
3864.000000	11.458042
3863.000000	11.476609
3862.000000	11.497797
3861.000000	11.516342
3860.000000	11.525707
3859.000000	11.516528
3858.000000	11.479081
3857.000000	11.412101
3856.000000	11.331036
3855.000000	11.265548
3854.000000	11.244603
3853.000000	11.279292
3852.000000	11.356593
3851.000000	11.448438
3850.000000	11.528220
3849.000000	11.582241
3848.000000	11.610153
3847.000000	11.618769
3846.000000	11.616183
3845.000000	11.609008
3844.000000	11.600595
3843.000000	11.589611
3842.000000	11.571473
3841.000000	11.544026
3840.000000	11.513167
3839.000000	11.491939
3838.000000	11.492399
3837.000000	11.516653
3836.000000	11.555237
3835.000000	11.594065
3834.000000	11.623996
3833.000000	11.644802
3832.000000	11.661453
3831.000000	11.677558
3830.000000	11.692707
3829.000000	11.704961
3828.000000	11.713770
3827.000000	11.718982
3826.000000	11.717924
3825.000000	11.706257
3824.000000	11.683820
3823.000000	11.658796
3822.000000	11.643273
3821.000000	11.642481
3820.000000	11.649351
3819.000000	11.651916
3818.000000	11.647043
3817.000000	11.645591
3816.000000	11.662399
3815.000000	11.701585
3814.000000	11.751860
3813.000000	11.795127
3812.000000	11.818058
3811.000000	11.817259
3810.000000	11.798351
3809.000000	11.773306
3808.000000	11.755785
3807.000000	11.752807
3806.000000	11.758427
3805.000000	11.758243
3804.000000	11.743917
3803.000000	11.723452
3802.000000	11.715406
3801.000000	11.732030
3800.000000	11.768615
3799.000000	11.809218
3798.000000	11.841030
3797.000000	11.862636
3796.000000	11.879936
3795.000000	11.897348
3794.000000	11.914128
3793.000000	11.927428
3792.000000	11.936334
3791.000000	11.942257
3790.000000	11.946721
3789.000000	11.950079
3788.000000	11.952239
3787.000000	11.953772
3786.000000	11.955759
3785.000000	11.958564
3784.000000	11.961025
3783.000000	11.961263
3782.000000	11.958863
3781.000000	11.956421
3780.000000	11.958347
3779.000000	11.967428
3778.000000	11.982331
3777.000000	11.998428
3776.000000	12.010715
3775.000000	12.015798
3774.000000	12.012460
3773.000000	12.002160
3772.000000	11.989557
3771.000000	11.980993
3770.000000	11.980649
3769.000000	11.987854
3768.000000	11.998701
3767.000000	12.010145
3766.000000	12.021714
3765.000000	12.033351
3764.000000	12.042853
3763.000000	12.046714
3762.000000	12.043680
3761.000000	12.037027
3760.000000	12.032772
3759.000000	12.034772
3758.000000	12.040370
3757.000000	12.040268
3756.000000	12.023644
3755.000000	11.985481
3754.000000	11.931508
3753.000000	11.877393
3752.000000	11.841885
3751.000000	11.836869
3750.000000	11.858587
3749.000000	11.887064
3748.000000	11.898286
3747.000000	11.883300
3746.000000	11.858456
3745.000000	11.854412
3744.000000	11.891205
3743.000000	11.961093
3742.000000	12.034548
3741.000000	12.082360
3740.000000	12.093136
3739.000000	12.075201
3738.000000	12.046531
3737.000000	12.023306
3736.000000	12.013930
3735.000000	12.019003
3734.000000	12.035467
3733.000000	12.060704
3732.000000	12.092603
3731.000000	12.126558
3730.000000	12.154848
3729.000000	12.171290
3728.000000	12.176370
3727.000000	12.176497
3726.000000	12.178121
3725.000000	12.183409
3724.000000	12.191329
3723.000000	12.200940
3722.000000	12.212335
3721.000000	12.225322
3720.000000	12.238634
3719.000000	12.250309
3718.000000	12.257596
3717.000000	12.256432
3716.000000	12.242831
3715.000000	12.216759
3714.000000	12.185019
3713.000000	12.159049
3712.000000	12.148409
3711.000000	12.155463
3710.000000	12.175643
3709.000000	12.201908
3708.000000	12.228394
3707.000000	12.250658
3706.000000	12.264829
3705.000000	12.268795
3704.000000	12.264706
3703.000000	12.259022
3702.000000	12.258596
3701.000000	12.265958
3700.000000	12.278199
3699.000000	12.290128
3698.000000	12.298006
3697.000000	12.300657
3696.000000	12.297890
3695.000000	12.288659
3694.000000	12.270632
3693.000000	12.241681
3692.000000	12.203044
3691.000000	12.162569
3690.000000	12.134450
3689.000000	12.132544
3688.000000	12.160953
3687.000000	12.209652
3686.000000	12.260178
3685.000000	12.297010
3684.000000	12.314947
3683.000000	12.317757
3682.000000	12.310956
3681.000000	12.295387
3680.000000	12.266768
3679.000000	12.222042
3678.000000	12.167799
3677.000000	12.121605
3676.000000	12.100933
3675.000000	12.108121
3674.000000	12.127066
3673.000000	12.137840
3672.000000	12.135468
3671.000000	12.133249
3670.000000	12.147893
3669.000000	12.183307
3668.000000	12.228503
3667.000000	12.268454
3666.000000	12.294692
3665.000000	12.307327
3664.000000	12.310885
3663.000000	12.309666
3662.000000	12.305254
3661.000000	12.296037
3660.000000	12.279353
3659.000000	12.255778
3658.000000	12.231845
3657.000000	12.216939
3656.000000	12.215126
3655.000000	12.219271
3654.000000	12.214441
3653.000000	12.189331
3652.000000	12.146484
3651.000000	12.102219
3650.000000	12.076319
3649.000000	12.080098
3648.000000	12.111138
3647.000000	12.156724
3646.000000	12.201729
3645.000000	12.235819
3644.000000	12.256245
3643.000000	12.266038
3642.000000	12.269863
3641.000000	12.270888
3640.000000	12.270286
3639.000000	12.268201
3638.000000	12.264501
3637.000000	12.259176
3636.000000	12.252453
3635.000000	12.243652
3634.000000	12.229074
3633.000000	12.202601
3632.000000	12.161767
3631.000000	12.115044
3630.000000	12.081205
3629.000000	12.077491
3628.000000	12.106436
3627.000000	12.153579
3626.000000	12.198071
3625.000000	12.225191
3624.000000	12.230983
3623.000000	12.219077
3622.000000	12.196754
3621.000000	12.173309
3620.000000	12.158154
3619.000000	12.156463
3618.000000	12.165764
3617.000000	12.177584
3616.000000	12.183764
3615.000000	12.181609
3614.000000	12.173755
3613.000000	12.164026
3612.000000	12.154453
3611.000000	12.146170
3610.000000	12.141689
3609.000000	12.144545
3608.000000	12.156155
3607.000000	12.173468
3606.000000	12.190379
3605.000000	12.201430
3604.000000	12.204422
3603.000000	12.200384
3602.000000	12.192184
3601.000000	12.183118
3600.000000	12.175719
3599.000000	12.170770
3598.000000	12.167419
3597.000000	12.164567
3596.000000	12.162332
3595.000000	12.161795
3594.000000	12.162979
3593.000000	12.163117
3592.000000	12.157546
3591.000000	12.143463
3590.000000	12.123554
3589.000000	12.105811
3588.000000	12.098648
3587.000000	12.105212
3586.000000	12.121511
3585.000000	12.139819
3584.000000	12.153762
3583.000000	12.161133
3582.000000	12.163220
3581.000000	12.162517
3580.000000	12.160896
3579.000000	12.159065
3578.000000	12.157020
3577.000000	12.154797
3576.000000	12.152755
3575.000000	12.151146
3574.000000	12.149346
3573.000000	12.145457
3572.000000	12.136880
3571.000000	12.121984
3570.000000	12.102191
3569.000000	12.082636
3568.000000	12.070070
3567.000000	12.068728
3566.000000	12.077583
3565.000000	12.091271
3564.000000	12.103866
3563.000000	12.112124
3562.000000	12.116043
3561.000000	12.117332
3560.000000	12.117660
3559.000000	12.117797
3558.000000	12.117579
3557.000000	12.116316
3556.000000	12.113407
3555.000000	12.108983
3554.000000	12.104141
3553.000000	12.100335
3552.000000	12.098139
3551.000000	12.096474
3550.000000	12.093303
3549.000000	12.087476
3548.000000	12.079989
3547.000000	12.073411
3546.000000	12.070020
3545.000000	12.070392
3544.000000	12.073365
3543.000000	12.077004
3542.000000	12.079571
3541.000000	12.080050
3540.000000	12.078237
3539.000000	12.074613
3538.000000	12.070169
3537.000000	12.066090
3536.000000	12.063201
3535.000000	12.061350
3534.000000	12.059378
3533.000000	12.055908
3532.000000	12.050354
3531.000000	12.043219
3530.000000	12.035567
3529.000000	12.028350
3528.000000	12.022072
3527.000000	12.016754
3526.000000	12.012068
3525.000000	12.007661
3524.000000	12.003495
3523.000000	11.999813
3522.000000	11.996741
3521.000000	11.994044
3520.000000	11.991318
3519.000000	11.988261
3518.000000	11.984662
3517.000000	11.980278
3516.000000	11.974931
3515.000000	11.968686
3514.000000	11.961787
3513.000000	11.954455
3512.000000	11.946935
3511.000000	11.939719
3510.000000	11.933409
3509.000000	11.928088
3508.000000	11.922896
3507.000000	11.916492
3506.000000	11.908186
3505.000000	11.898673
3504.000000	11.889604
3503.000000	11.882376
3502.000000	11.877181
3501.000000	11.873051
3500.000000	11.868688
3499.000000	11.863279
3498.000000	11.856762
3497.000000	11.849552
3496.000000	11.842142
3495.000000	11.834847
3494.000000	11.827727
3493.000000	11.820640
3492.000000	11.813390
3491.000000	11.805977
3490.000000	11.798725
3489.000000	11.792097
3488.000000	11.786241
3487.000000	11.780700
3486.000000	11.774648
3485.000000	11.767552
3484.000000	11.759731
3483.000000	11.752288
3482.000000	11.746365
3481.000000	11.742263
3480.000000	11.739164
3479.000000	11.735848
3478.000000	11.731775
3477.000000	11.727492
3476.000000	11.723892
3475.000000	11.721204
3474.000000	11.718812
3473.000000	11.715995
3472.000000	11.712617
3471.000000	11.709044
3470.000000	11.705667
3469.000000	11.702682
3468.000000	11.700193
3467.000000	11.698276
3466.000000	11.696890
3465.000000	11.695853
3464.000000	11.694969
3463.000000	11.694127
3462.000000	11.693277
3461.000000	11.692357
3460.000000	11.691277
3459.000000	11.689977
3458.000000	11.688525
3457.000000	11.687151
3456.000000	11.686074
3455.000000	11.685231
3454.000000	11.684220
3453.000000	11.682578
3452.000000	11.680118
3451.000000	11.676983
3450.000000	11.673525
3449.000000	11.670238
3448.000000	11.667697
3447.000000	11.666311
3446.000000	11.666069
3445.000000	11.666598
3444.000000	11.667558
3443.000000	11.668876
3442.000000	11.670590
3441.000000	11.672612
3440.000000	11.674797
3439.000000	11.677223
3438.000000	11.680233
3437.000000	11.684129
3436.000000	11.688889
3435.000000	11.694254
3434.000000	11.700073
3433.000000	11.706459
3432.000000	11.713575
3431.000000	11.721315
3430.000000	11.729289
3429.000000	11.737073
3428.000000	11.744429
3427.000000	11.751292
3426.000000	11.757683
3425.000000	11.763666
3424.000000	11.769313
3423.000000	11.774654
3422.000000	11.779707
3421.000000	11.784581
3420.000000	11.789454
3419.000000	11.794398
3418.000000	11.799265
3417.000000	11.803833
3416.000000	11.808013
3415.000000	11.811885
3414.000000	11.815587
3413.000000	11.819198
3412.000000	11.822673
3411.000000	11.825830
3410.000000	11.828481
3409.000000	11.830640
3408.000000	11.832534
3407.000000	11.834344
3406.000000	11.836040
3405.000000	11.837574
3404.000000	11.839141
3403.000000	11.841085
3402.000000	11.843577
3401.000000	11.846541
3400.000000	11.849872
3399.000000	11.853580
3398.000000	11.857682
3397.000000	11.862064
3396.000000	11.866488
3395.000000	11.870707
3394.000000	11.874626
3393.000000	11.878422
3392.000000	11.882467
3391.000000	11.886971
3390.000000	11.891707
3389.000000	11.896197
3388.000000	11.900178
3387.000000	11.903752
3386.000000	11.907134
3385.000000	11.910415
3384.000000	11.913631
3383.000000	11.916916
3382.000000	11.920487
3381.000000	11.924506
3380.000000	11.928905
3379.000000	11.933228
3378.000000	11.936751
3377.000000	11.939032
3376.000000	11.940420
3375.000000	11.941781
3374.000000	11.943576
3373.000000	11.945409
3372.000000	11.946666
3371.000000	11.947415
3370.000000	11.948425
3369.000000	11.950378
3368.000000	11.953267
3367.000000	11.956554
3366.000000	11.959678
3365.000000	11.962419
3364.000000	11.964949
3363.000000	11.967631
3362.000000	11.970664
3361.000000	11.973871
3360.000000	11.976870
3359.000000	11.979479
3358.000000	11.981881
3357.000000	11.984395
3356.000000	11.987174
3355.000000	11.990117
3354.000000	11.992982
3353.000000	11.995536
3352.000000	11.997717
3351.000000	11.999704
3350.000000	12.001827
3349.000000	12.004307
3348.000000	12.007093
3347.000000	12.009957
3346.000000	12.012739
3345.000000	12.015489
3344.000000	12.018341
3343.000000	12.021273
3342.000000	12.024017
3341.000000	12.026252
3340.000000	12.027892
3339.000000	12.029194
3338.000000	12.030601
3337.000000	12.032484
3336.000000	12.034955
3335.000000	12.037818
3334.000000	12.040690
3333.000000	12.043276
3332.000000	12.045591
3331.000000	12.047888
3330.000000	12.050352
3329.000000	12.052946
3328.000000	12.055519
3327.000000	12.057987
3326.000000	12.060332
3325.000000	12.062539
3324.000000	12.064584
3323.000000	12.066433
3322.000000	12.068060
3321.000000	12.069541
3320.000000	12.071122
3319.000000	12.073008
3318.000000	12.075040
3317.000000	12.076771
3316.000000	12.078008
3315.000000	12.079104
3314.000000	12.080523
3313.000000	12.082247
3312.000000	12.083810
3311.000000	12.084862
3310.000000	12.085494
3309.000000	12.086045
3308.000000	12.086844
3307.000000	12.088106
3306.000000	12.089881
3305.000000	12.092017
3304.000000	12.094346
3303.000000	12.096888
3302.000000	12.099713
3301.000000	12.102600
3300.000000	12.105074
3299.000000	12.106912
3298.000000	12.108412
3297.000000	12.110051
3296.000000	12.111984
3295.000000	12.114038
3294.000000	12.116049
3293.000000	12.118042
3292.000000	12.120115
3291.000000	12.122307
3290.000000	12.124594
3289.000000	12.126918
3288.000000	12.129203
3287.000000	12.131409
3286.000000	12.133587
3285.000000	12.135848
3284.000000	12.138272
3283.000000	12.140813
3282.000000	12.143252
3281.000000	12.145248
3280.000000	12.146552
3279.000000	12.147263
3278.000000	12.147880
3277.000000	12.149031
3276.000000	12.151084
3275.000000	12.153913
3274.000000	12.157013
3273.000000	12.159883
3272.000000	12.162383
3271.000000	12.164724
3270.000000	12.167100
3269.000000	12.169426
3268.000000	12.171527
3267.000000	12.173479
3266.000000	12.175592
3265.000000	12.178063
3264.000000	12.180826
3263.000000	12.183752
3262.000000	12.186786
3261.000000	12.189842
3260.000000	12.192726
3259.000000	12.195279
3258.000000	12.197465
3257.000000	12.199257
3256.000000	12.200623
3255.000000	12.201794
3254.000000	12.203405
3253.000000	12.206106
3252.000000	12.209972
3251.000000	12.214383
3250.000000	12.218491
3249.000000	12.221825
3248.000000	12.224518
3247.000000	12.227081
3246.000000	12.229936
3245.000000	12.233132
3244.000000	12.236471
3243.000000	12.239847
3242.000000	12.243308
3241.000000	12.246808
3240.000000	12.250139
3239.000000	12.253226
3238.000000	12.256281
3237.000000	12.259470
3236.000000	12.262561
3235.000000	12.265189
3234.000000	12.267393
3233.000000	12.269644
3232.000000	12.272318
3231.000000	12.275354
3230.000000	12.278482
3229.000000	12.281566
3228.000000	12.284625
3227.000000	12.287699
3226.000000	12.290850
3225.000000	12.294175
3224.000000	12.297701
3223.000000	12.301290
3222.000000	12.304768
3221.000000	12.308082
3220.000000	12.311227
3219.000000	12.314101
3218.000000	12.316568
3217.000000	12.318715
3216.000000	12.320913
3215.000000	12.323518
3214.000000	12.326539
3213.000000	12.329684
3212.000000	12.332724
3211.000000	12.335737
3210.000000	12.338970
3209.000000	12.342548
3208.000000	12.346436
3207.000000	12.350628
3206.000000	12.355190
3205.000000	12.360031
3204.000000	12.364795
3203.000000	12.369142
3202.000000	12.373115
3201.000000	12.377100
3200.000000	12.381427
3199.000000	12.386167
3198.000000	12.391274
3197.000000	12.396714
3196.000000	12.402358
3195.000000	12.407935
3194.000000	12.413266
3193.000000	12.418479
3192.000000	12.423837
3191.000000	12.429349
3190.000000	12.434683
3189.000000	12.439492
3188.000000	12.443737
3187.000000	12.447687
3186.000000	12.451676
3185.000000	12.455895
3184.000000	12.460332
3183.000000	12.464835
3182.000000	12.469261
3181.000000	12.473621
3180.000000	12.478089
3179.000000	12.482868
3178.000000	12.488043
3177.000000	12.493535
3176.000000	12.499138
3175.000000	12.504615
3174.000000	12.509834
3173.000000	12.514847
3172.000000	12.519797
3171.000000	12.524713
3170.000000	12.529503
3169.000000	12.534169
3168.000000	12.538912
3167.000000	12.543925
3166.000000	12.549177
3165.000000	12.554534
3164.000000	12.560018
3163.000000	12.565757
3162.000000	12.571691
3161.000000	12.577540
3160.000000	12.583100
3159.000000	12.588394
3158.000000	12.593462
3157.000000	12.598182
3156.000000	12.602468
3155.000000	12.606509
3154.000000	12.610678
3153.000000	12.615270
3152.000000	12.620428
3151.000000	12.626186
3150.000000	12.632384
3149.000000	12.638581
3148.000000	12.644307
3147.000000	12.649495
3146.000000	12.654554
3145.000000	12.659948
3144.000000	12.665734
3143.000000	12.671508
3142.000000	12.676767
3141.000000	12.681347
3140.000000	12.685583
3139.000000	12.689998
3138.000000	12.694784
3137.000000	12.699651
3136.000000	12.704259
3135.000000	12.708664
3134.000000	12.713187
3133.000000	12.717916
3132.000000	12.722583
3131.000000	12.726934
3130.000000	12.731001
3129.000000	12.734946
3128.000000	12.738824
3127.000000	12.742626
3126.000000	12.746393
3125.000000	12.750175
3124.000000	12.753913
3123.000000	12.757469
3122.000000	12.760725
3121.000000	12.763645
3120.000000	12.766341
3119.000000	12.769098
3118.000000	12.772229
3117.000000	12.775851
3116.000000	12.779876
3115.000000	12.784249
3114.000000	12.789007
3113.000000	12.794004
3112.000000	12.798733
3111.000000	12.802618
3110.000000	12.805521
3109.000000	12.807885
3108.000000	12.810379
3107.000000	12.813441
3106.000000	12.817088
3105.000000	12.821036
3104.000000	12.824999
3103.000000	12.828932
3102.000000	12.833033
3101.000000	12.837482
3100.000000	12.842233
3099.000000	12.847051
3098.000000	12.851748
3097.000000	12.856345
3096.000000	12.861018
3095.000000	12.865886
3094.000000	12.870834
3093.000000	12.875534
3092.000000	12.879683
3091.000000	12.883240
3090.000000	12.886460
3089.000000	12.889779
3088.000000	12.893672
3087.000000	12.898424
3086.000000	12.903828
3085.000000	12.909104
3084.000000	12.913381
3083.000000	12.916383
3082.000000	12.918584
3081.000000	12.920705
3080.000000	12.923193
3079.000000	12.926182
3078.000000	12.929679
3077.000000	12.933570
3076.000000	12.937559
3075.000000	12.941283
3074.000000	12.944473
3073.000000	12.946943
3072.000000	12.948536
3071.000000	12.949243
3070.000000	12.949346
3069.000000	12.949315
3068.000000	12.949608
3067.000000	12.950643
3066.000000	12.952804
3065.000000	12.956227
3064.000000	12.960572
3063.000000	12.965246
3062.000000	12.969926
3061.000000	12.974757
3060.000000	12.979922
3059.000000	12.985200
3058.000000	12.990157
3057.000000	12.994713
3056.000000	12.999321
3055.000000	13.004443
3054.000000	13.009970
3053.000000	13.015285
3052.000000	13.019929
3051.000000	13.024067
3050.000000	13.028231
3049.000000	13.032696
3048.000000	13.037212
3047.000000	13.041360
3046.000000	13.045024
3045.000000	13.048411
3044.000000	13.051655
3043.000000	13.054551
3042.000000	13.056755
3041.000000	13.058218
3040.000000	13.059330
3039.000000	13.060585
3038.000000	13.062148
3037.000000	13.063773
3036.000000	13.065050
3035.000000	13.065641
3034.000000	13.065347
3033.000000	13.064207
3032.000000	13.062579
3031.000000	13.060892
3030.000000	13.059088
3029.000000	13.056377
3028.000000	13.051740
3027.000000	13.044735
3026.000000	13.035780
3025.000000	13.025790
3024.000000	13.015710
3023.000000	13.006360
3022.000000	12.998546
3021.000000	12.993165
3020.000000	12.991105
3019.000000	12.992879
3018.000000	12.998326
3017.000000	13.006895
3016.000000	13.018371
3015.000000	13.033018
3014.000000	13.050746
3013.000000	13.070365
3012.000000	13.090094
3011.000000	13.108682
3010.000000	13.125579
3009.000000	13.140219
3008.000000	13.152129
3007.000000	13.162152
3006.000000	13.172668
3005.000000	13.185424
3004.000000	13.199030
3003.000000	13.209458
3002.000000	13.213564
3001.000000	13.211994
3000.000000	13.208445
2999.000000	13.206342
2998.000000	13.206528
2997.000000	13.207867
2996.000000	13.209263
2995.000000	13.210567
2994.000000	13.211832
2993.000000	13.212515
2992.000000	13.211921
2991.000000	13.210190
2990.000000	13.208360
2989.000000	13.207316
2988.000000	13.206895
2987.000000	13.206031
2986.000000	13.203542
2985.000000	13.198778
2984.000000	13.191904
2983.000000	13.183894
2982.000000	13.176110
2981.000000	13.169533
2980.000000	13.164184
2979.000000	13.159210
2978.000000	13.153387
2977.000000	13.145525
2976.000000	13.134677
2975.000000	13.120325
2974.000000	13.102554
2973.000000	13.082000
2972.000000	13.059557
2971.000000	13.036026
2970.000000	13.011885
2969.000000	12.987354
2968.000000	12.962775
2967.000000	12.939002
2966.000000	12.917384
2965.000000	12.899240
2964.000000	12.885346
2963.000000	12.875848
2962.000000	12.870502
2961.000000	12.868936
2960.000000	12.870778
2959.000000	12.875611
2958.000000	12.882794
2957.000000	12.891396
2956.000000	12.900484
2955.000000	12.909525
2954.000000	12.918361
2953.000000	12.926742
2952.000000	12.934004
2951.000000	12.939262
2950.000000	12.941727
2949.000000	12.940750
2948.000000	12.935738
2947.000000	12.926234
2946.000000	12.912016
2945.000000	12.893060
2944.000000	12.869497
2943.000000	12.841755
2942.000000	12.810618
2941.000000	12.777018
2940.000000	12.741829
2939.000000	12.705926
2938.000000	12.670329
2937.000000	12.636063
2936.000000	12.603837
2935.000000	12.573804
2934.000000	12.545527
2933.000000	12.518171
2932.000000	12.491028
2931.000000	12.464133
2930.000000	12.438399
2929.000000	12.415172
2928.000000	12.395852
2927.000000	12.382098
2926.000000	12.376086
2925.000000	12.380140
2924.000000	12.395884
2923.000000	12.423712
2922.000000	12.462737
2921.000000	12.510969
2920.000000	12.565688
2919.000000	12.624235
2918.000000	12.684798
2917.000000	12.746437
2916.000000	12.808307
2915.000000	12.869046
2914.000000	12.926981
2913.000000	12.980757
2912.000000	13.029631
2911.000000	13.073311
2910.000000	13.111798
2909.000000	13.145449
2908.000000	13.175047
2907.000000	13.201613
2906.000000	13.225998
2905.000000	13.248632
2904.000000	13.269689
2903.000000	13.289513
2902.000000	13.308809
2901.000000	13.328299
2900.000000	13.348195
2899.000000	13.368077
2898.000000	13.387300
2897.000000	13.405468
2896.000000	13.422569
2895.000000	13.438804
2894.000000	13.454430
2893.000000	13.469741
2892.000000	13.485076
2891.000000	13.500635
2890.000000	13.516136
2889.000000	13.530688
2888.000000	13.543227
2887.000000	13.553335
2886.000000	13.561663
2885.000000	13.569415
2884.000000	13.577285
2883.000000	13.584862
2882.000000	13.590984
2881.000000	13.594590
2880.000000	13.595313
2879.000000	13.593524
2878.000000	13.589978
2877.000000	13.585268
2876.000000	13.579305
2875.000000	13.571235
2874.000000	13.560003
2873.000000	13.545104
2872.000000	13.526678
2871.000000	13.504806
2870.000000	13.478954
2869.000000	13.448376
2868.000000	13.413096
2867.000000	13.374367
2866.000000	13.334354
2865.000000	13.295715
2864.000000	13.261507
2863.000000	13.234872
2862.000000	13.218195
2861.000000	13.212297
2860.000000	13.216476
2859.000000	13.229161
2858.000000	13.248440
2857.000000	13.272276
2856.000000	13.298764
2855.000000	13.326547
2854.000000	13.355106
2853.000000	13.384831
2852.000000	13.416899
2851.000000	13.452808
2850.000000	13.493458
2849.000000	13.538357
2848.000000	13.585695
2847.000000	13.633151
2846.000000	13.678709
2845.000000	13.720975
2844.000000	13.759256
2843.000000	13.793484
2842.000000	13.823912
2841.000000	13.850786
2840.000000	13.874396
2839.000000	13.895342
2838.000000	13.914420
2837.000000	13.932124
2836.000000	13.948444
2835.000000	13.963248
2834.000000	13.976665
2833.000000	13.989003
2832.000000	14.000529
2831.000000	14.011490
2830.000000	14.022173
2829.000000	14.032706
2828.000000	14.042908
2827.000000	14.052516
2826.000000	14.061545
2825.000000	14.070283
2824.000000	14.078951
2823.000000	14.087489
2822.000000	14.095674
2821.000000	14.103379
2820.000000	14.110657
2819.000000	14.117611
2818.000000	14.124223
2817.000000	14.130409
2816.000000	14.136239
2815.000000	14.142000
2814.000000	14.147915
2813.000000	14.153903
2812.000000	14.159697
2811.000000	14.165122
2810.000000	14.170090
2809.000000	14.174463
2808.000000	14.178208
2807.000000	14.181687
2806.000000	14.185506
2805.000000	14.189960
2804.000000	14.194797
2803.000000	14.199551
2802.000000	14.203926
2801.000000	14.207836
2800.000000	14.211345
2799.000000	14.214693
2798.000000	14.218192
2797.000000	14.221971
2796.000000	14.225944
2795.000000	14.230080
2794.000000	14.234466
2793.000000	14.239060
2792.000000	14.243634
2791.000000	14.248152
2790.000000	14.252966
2789.000000	14.258426
2788.000000	14.264442
2787.000000	14.270664
2786.000000	14.276956
2785.000000	14.283470
2784.000000	14.290307
2783.000000	14.297300
2782.000000	14.304118
2781.000000	14.310457
2780.000000	14.316159
2779.000000	14.321302
2778.000000	14.326171
2777.000000	14.331037
2776.000000	14.335989
2775.000000	14.341008
2774.000000	14.346111
2773.000000	14.351276
2772.000000	14.356325
2771.000000	14.361035
2770.000000	14.365415
2769.000000	14.369721
2768.000000	14.374141
2767.000000	14.378515
2766.000000	14.382468
2765.000000	14.385848
2764.000000	14.388999
2763.000000	14.392521
2762.000000	14.396712
2761.000000	14.401293
2760.000000	14.405727
2759.000000	14.409722
2758.000000	14.413334
2757.000000	14.416672
2756.000000	14.419698
2755.000000	14.422343
2754.000000	14.424744
2753.000000	14.427311
2752.000000	14.430546
2751.000000	14.434629
2750.000000	14.439084
2749.000000	14.443036
2748.000000	14.446068
2747.000000	14.448707
2746.000000	14.451786
2745.000000	14.455416
2744.000000	14.458936
2743.000000	14.461878
2742.000000	14.464532
2741.000000	14.467399
2740.000000	14.470466
2739.000000	14.473354
2738.000000	14.475961
2737.000000	14.478613
2736.000000	14.481608
2735.000000	14.484865
2734.000000	14.488045
2733.000000	14.490881
2732.000000	14.493356
2731.000000	14.495660
2730.000000	14.497977
2729.000000	14.500328
2728.000000	14.502652
2727.000000	14.505004
2726.000000	14.507566
2725.000000	14.510441
2724.000000	14.513500
2723.000000	14.516441
2722.000000	14.518946
2721.000000	14.520888
2720.000000	14.522526
2719.000000	14.524402
2718.000000	14.526839
2717.000000	14.529583
2716.000000	14.532151
2715.000000	14.534488
2714.000000	14.537007
2713.000000	14.539959
2712.000000	14.543049
2711.000000	14.545732
2710.000000	14.547672
2709.000000	14.548880
2708.000000	14.549685
2707.000000	14.550647
2706.000000	14.552185
2705.000000	14.554186
2704.000000	14.556238
2703.000000	14.558378
2702.000000	14.561275
2701.000000	14.565468
2700.000000	14.570658
2699.000000	14.575927
2698.000000	14.580411
2697.000000	14.583618
2696.000000	14.585501
2695.000000	14.586655
2694.000000	14.588241
2693.000000	14.591190
2692.000000	14.595325
2691.000000	14.599491
2690.000000	14.602625
2689.000000	14.604633
2688.000000	14.606291
2687.000000	14.608510
2686.000000	14.611668
2685.000000	14.615479
2684.000000	14.619337
2683.000000	14.622791
2682.000000	14.625748
2681.000000	14.628325
2680.000000	14.630680
2679.000000	14.632973
2678.000000	14.635326
2677.000000	14.637734
2676.000000	14.640105
2675.000000	14.642403
2674.000000	14.644644
2673.000000	14.646746
2672.000000	14.648582
2671.000000	14.650240
2670.000000	14.652013
2669.000000	14.654046
2668.000000	14.656144
2667.000000	14.658040
2666.000000	14.659693
2665.000000	14.661248
2664.000000	14.662867
2663.000000	14.664684
2662.000000	14.666733
2661.000000	14.668837
2660.000000	14.670733
2659.000000	14.672435
2658.000000	14.674247
2657.000000	14.676324
2656.000000	14.678425
2655.000000	14.680288
2654.000000	14.682029
2653.000000	14.683962
2652.000000	14.686169
2651.000000	14.688460
2650.000000	14.690652
2649.000000	14.692671
2648.000000	14.694506
2647.000000	14.696259
2646.000000	14.698139
2645.000000	14.700215
2644.000000	14.702251
2643.000000	14.703992
2642.000000	14.705602
2641.000000	14.707593
2640.000000	14.710314
2639.000000	14.713634
2638.000000	14.717107
2637.000000	14.720310
2636.000000	14.722976
2635.000000	14.724967
2634.000000	14.726276
2633.000000	14.727125
2632.000000	14.728023
2631.000000	14.729573
2630.000000	14.731996
2629.000000	14.734796
2628.000000	14.737063
2627.000000	14.738265
2626.000000	14.738746
2625.000000	14.739354
2624.000000	14.740605
2623.000000	14.742250
2622.000000	14.743647
2621.000000	14.744492
2620.000000	14.745139
2619.000000	14.746166
2618.000000	14.747719
2617.000000	14.749430
2616.000000	14.750968
2615.000000	14.752409
2614.000000	14.753903
2613.000000	14.755273
2612.000000	14.756252
2611.000000	14.756946
2610.000000	14.757713
2609.000000	14.758665
2608.000000	14.759647
2607.000000	14.760669
2606.000000	14.761912
2605.000000	14.763235
2604.000000	14.764109
2603.000000	14.764219
2602.000000	14.763855
2601.000000	14.763494
2600.000000	14.763247
2599.000000	14.762905
2598.000000	14.762336
2597.000000	14.761668
2596.000000	14.761217
2595.000000	14.761349
2594.000000	14.762270
2593.000000	14.763851
2592.000000	14.765763
2591.000000	14.767826
2590.000000	14.770058
2589.000000	14.772458
2588.000000	14.775023
2587.000000	14.777983
2586.000000	14.781641
2585.000000	14.785886
2584.000000	14.790161
2583.000000	14.794073
2582.000000	14.797718
2581.000000	14.801283
2580.000000	14.804676
2579.000000	14.807788
2578.000000	14.810801
2577.000000	14.813938
2576.000000	14.817113
2575.000000	14.820115
2574.000000	14.822948
2573.000000	14.825695
2572.000000	14.828171
2571.000000	14.830012
2570.000000	14.831129
2569.000000	14.831899
2568.000000	14.832924
2567.000000	14.834674
2566.000000	14.837214
2565.000000	14.840149
2564.000000	14.842875
2563.000000	14.845023
2562.000000	14.846634
2561.000000	14.847947
2560.000000	14.849142
2559.000000	14.850283
2558.000000	14.851351
2557.000000	14.852271
2556.000000	14.853075
2555.000000	14.853990
2554.000000	14.855182
2553.000000	14.856443
2552.000000	14.857447
2551.000000	14.858310
2550.000000	14.859524
2549.000000	14.861252
2548.000000	14.863023
2547.000000	14.864284
2546.000000	14.864939
2545.000000	14.865227
2544.000000	14.865451
2543.000000	14.865998
2542.000000	14.867229
2541.000000	14.869001
2540.000000	14.870618
2539.000000	14.871631
2538.000000	14.872477
2537.000000	14.873983
2536.000000	14.876335
2535.000000	14.878865
2534.000000	14.880755
2533.000000	14.881707
2532.000000	14.881999
2531.000000	14.882173
2530.000000	14.882668
2529.000000	14.883552
2528.000000	14.884591
2527.000000	14.885602
2526.000000	14.886657
2525.000000	14.887889
2524.000000	14.889271
2523.000000	14.890712
2522.000000	14.892179
2521.000000	14.893568
2520.000000	14.894589
2519.000000	14.894987
2518.000000	14.894853
2517.000000	14.894609
2516.000000	14.894730
2515.000000	14.895435
2514.000000	14.896497
2513.000000	14.897371
2512.000000	14.897744
2511.000000	14.898005
2510.000000	14.898878
2509.000000	14.900526
2508.000000	14.902300
2507.000000	14.903506
2506.000000	14.904111
2505.000000	14.904547
2504.000000	14.905165
2503.000000	14.906103
2502.000000	14.907385
2501.000000	14.908816
2500.000000	14.910019
2499.000000	14.910867
2498.000000	14.911764
2497.000000	14.913187
2496.000000	14.915057
2495.000000	14.916806
2494.000000	14.917953
2493.000000	14.918422
2492.000000	14.918415
2491.000000	14.918263
2490.000000	14.918368
2489.000000	14.919028
2488.000000	14.920259
2487.000000	14.921848
2486.000000	14.923529
2485.000000	14.925098
2484.000000	14.926472
2483.000000	14.927749
2482.000000	14.929093
2481.000000	14.930466
2480.000000	14.931578
2479.000000	14.932185
2478.000000	14.932336
2477.000000	14.932304
2476.000000	14.932422
2475.000000	14.932983
2474.000000	14.934054
2473.000000	14.935305
2472.000000	14.936242
2471.000000	14.936696
2470.000000	14.936912
2469.000000	14.937118
2468.000000	14.937266
2467.000000	14.937257
2466.000000	14.937153
2465.000000	14.937030
2464.000000	14.936895
2463.000000	14.936871
2462.000000	14.937163
2461.000000	14.937698
2460.000000	14.938096
2459.000000	14.938198
2458.000000	14.938369
2457.000000	14.939047
2456.000000	14.940222
2455.000000	14.941567
2454.000000	14.942840
2453.000000	14.943930
2452.000000	14.944713
2451.000000	14.945155
2450.000000	14.945419
2449.000000	14.945694
2448.000000	14.946059
2447.000000	14.946684
2446.000000	14.947922
2445.000000	14.949939
2444.000000	14.952382
2443.000000	14.954643
2442.000000	14.956385
2441.000000	14.957712
2440.000000	14.958964
2439.000000	14.960486
2438.000000	14.962361
2437.000000	14.964194
2436.000000	14.965358
2435.000000	14.965675
2434.000000	14.965728
2433.000000	14.966301
2432.000000	14.967638
2431.000000	14.969349
2430.000000	14.970901
2429.000000	14.972045
2428.000000	14.972943
2427.000000	14.974026
2426.000000	14.975594
2425.000000	14.977451
2424.000000	14.979125
2423.000000	14.980493
2422.000000	14.981932
2421.000000	14.983697
2420.000000	14.985493
2419.000000	14.986926
2418.000000	14.988106
2417.000000	14.989481
2416.000000	14.991245
2415.000000	14.993198
2414.000000	14.995100
2413.000000	14.996877
2412.000000	14.998533
2411.000000	15.000078
2410.000000	15.001547
2409.000000	15.002981
2408.000000	15.004439
2407.000000	15.006058
2406.000000	15.007968
2405.000000	15.010098
2404.000000	15.012255
2403.000000	15.014474
2402.000000	15.017047
2401.000000	15.020081
2400.000000	15.023263
2399.000000	15.026239
2398.000000	15.029012
2397.000000	15.031781
2396.000000	15.034590
2395.000000	15.037377
2394.000000	15.040240
2393.000000	15.043402
2392.000000	15.046959
2391.000000	15.050756
2390.000000	15.054423
2389.000000	15.057453
2388.000000	15.059404
2387.000000	15.060099
2386.000000	15.059427
2385.000000	15.056801
2384.000000	15.050969
2383.000000	15.040422
2382.000000	15.023892
2381.000000	15.000545
2380.000000	14.970201
2379.000000	14.933676
2378.000000	14.892666
2377.000000	14.848873
2376.000000	14.803157
2375.000000	14.755483
2374.000000	14.705496
2373.000000	14.653079
2372.000000	14.598709
2371.000000	14.543592
2370.000000	14.489353
2369.000000	14.437434
2368.000000	14.388847
2367.000000	14.344560
2366.000000	14.305789
2365.000000	14.273703
2364.000000	14.249038
2363.000000	14.232237
2362.000000	14.223818
2361.000000	14.224368
2360.000000	14.234325
2359.000000	14.254025
2358.000000	14.283824
2357.000000	14.323805
2356.000000	14.373340
2355.000000	14.431225
2354.000000	14.496148
2353.000000	14.566116
2352.000000	14.636304
2351.000000	14.697193
2350.000000	14.736240
2349.000000	14.743605
2348.000000	14.718116
2347.000000	14.668165
2346.000000	14.606497
2345.000000	14.543642
2344.000000	14.485060
2343.000000	14.432739
2342.000000	14.387941
2341.000000	14.352473
2340.000000	14.328338
2339.000000	14.316637
2338.000000	14.316561
2337.000000	14.325394
2336.000000	14.339822
2335.000000	14.357418
2334.000000	14.376864
2333.000000	14.397335
2332.000000	14.418392
2331.000000	14.440345
2330.000000	14.463889
2329.000000	14.489105
2328.000000	14.515255
2327.000000	14.541618
2326.000000	14.568054
2325.000000	14.594664
2324.000000	14.621399
2323.000000	14.648115
2322.000000	14.674536
2321.000000	14.700064
2320.000000	14.724096
2319.000000	14.746630
2318.000000	14.768109
2317.000000	14.788616
2316.000000	14.807697
2315.000000	14.825035
2314.000000	14.840769
2313.000000	14.855077
2312.000000	14.868018
2311.000000	14.879931
2310.000000	14.891388
2309.000000	14.902540
2308.000000	14.913000
2307.000000	14.922487
2306.000000	14.931048
2305.000000	14.938534
2304.000000	14.944560
2303.000000	14.949255
2302.000000	14.953405
2301.000000	14.957483
2300.000000	14.961113
2299.000000	14.963853
2298.000000	14.965991
2297.000000	14.968182
2296.000000	14.970709
2295.000000	14.973478
2294.000000	14.976355
2293.000000	14.979160
2292.000000	14.981681
2291.000000	14.983962
2290.000000	14.986256
2289.000000	14.988520
2288.000000	14.990288
2287.000000	14.991120
2286.000000	14.990728
2285.000000	14.988713
2284.000000	14.985000
2283.000000	14.980739
2282.000000	14.977952
2281.000000	14.977684
2280.000000	14.979000
2279.000000	14.980191
2278.000000	14.980440
2277.000000	14.979972
2276.000000	14.979272
2275.000000	14.978776
2274.000000	14.978830
2273.000000	14.979298
2272.000000	14.979496
2271.000000	14.978977
2270.000000	14.978086
2269.000000	14.977404
2268.000000	14.977027
2267.000000	14.976769
2266.000000	14.976658
2265.000000	14.976800
2264.000000	14.977105
2263.000000	14.977511
2262.000000	14.978132
2261.000000	14.978846
2260.000000	14.979123
2259.000000	14.978623
2258.000000	14.977601
2257.000000	14.976524
2256.000000	14.975772
2255.000000	14.975912
2254.000000	14.977491
2253.000000	14.980062
2252.000000	14.982069
2251.000000	14.982382
2250.000000	14.981474
2249.000000	14.980557
2248.000000	14.980068
2247.000000	14.979715
2246.000000	14.979511
2245.000000	14.979877
2244.000000	14.980884
2243.000000	14.982096
2242.000000	14.983129
2241.000000	14.983867
2240.000000	14.984269
2239.000000	14.984436
2238.000000	14.984742
2237.000000	14.985471
2236.000000	14.986489
2235.000000	14.987579
2234.000000	14.988849
2233.000000	14.990402
2232.000000	14.991892
2231.000000	14.992856
2230.000000	14.993317
2229.000000	14.993673
2228.000000	14.994224
2227.000000	14.995107
2226.000000	14.996430
2225.000000	14.998051
2224.000000	14.999451
2223.000000	15.000204
2222.000000	15.000395
2221.000000	15.000350
2220.000000	15.000266
2219.000000	15.000388
2218.000000	15.001136
2217.000000	15.002625
2216.000000	15.004352
2215.000000	15.005734
2214.000000	15.006695
2213.000000	15.007431
2212.000000	15.007929
2211.000000	15.008119
2210.000000	15.008202
2209.000000	15.008469
2208.000000	15.008995
2207.000000	15.009752
2206.000000	15.010682
2205.000000	15.011490
2204.000000	15.011799
2203.000000	15.011809
2202.000000	15.012293
2201.000000	15.013585
2200.000000	15.015074
2199.000000	15.016122
2198.000000	15.016924
2197.000000	15.017962
2196.000000	15.019084
2195.000000	15.019783
2194.000000	15.020025
2193.000000	15.020220
2192.000000	15.020559
2191.000000	15.020899
2190.000000	15.021101
2189.000000	15.021133
2188.000000	15.021044
2187.000000	15.021144
2186.000000	15.021853
2185.000000	15.023056
2184.000000	15.024046
2183.000000	15.024472
2182.000000	15.024859
2181.000000	15.025781
2180.000000	15.027022
2179.000000	15.028056
2178.000000	15.028862
2177.000000	15.029630
2176.000000	15.030078
2175.000000	15.029704
2174.000000	15.028484
2173.000000	15.026814
2172.000000	15.025083
2171.000000	15.023822
2170.000000	15.023840
2169.000000	15.025500
2168.000000	15.028039
2167.000000	15.030199
2166.000000	15.031430
2165.000000	15.032068
2164.000000	15.032626
2163.000000	15.033406
2162.000000	15.034530
2161.000000	15.035830
2160.000000	15.036878
2159.000000	15.037534
2158.000000	15.038243
2157.000000	15.039403
2156.000000	15.040756
2155.000000	15.041839
2154.000000	15.042686
2153.000000	15.043613
2152.000000	15.044638
2151.000000	15.045634
2150.000000	15.046743
2149.000000	15.048086
2148.000000	15.049341
2147.000000	15.050147
2146.000000	15.050663
2145.000000	15.051246
2144.000000	15.051859
2143.000000	15.052316
2142.000000	15.052838
2141.000000	15.053791
2140.000000	15.055064
2139.000000	15.056281
2138.000000	15.057424
2137.000000	15.058742
2136.000000	15.060215
2135.000000	15.061626
2134.000000	15.063005
2133.000000	15.064525
2132.000000	15.066077
2131.000000	15.067399
2130.000000	15.068513
2129.000000	15.069645
2128.000000	15.070837
2127.000000	15.071981
2126.000000	15.073060
2125.000000	15.074024
2124.000000	15.074660
2123.000000	15.074962
2122.000000	15.075391
2121.000000	15.076381
2120.000000	15.077770
2119.000000	15.079063
2118.000000	15.080092
2117.000000	15.081085
2116.000000	15.082309
2115.000000	15.083931
2114.000000	15.086050
2113.000000	15.088558
2112.000000	15.091133
2111.000000	15.093567
2110.000000	15.095928
2109.000000	15.098288
2108.000000	15.100628
2107.000000	15.103045
2106.000000	15.105632
2105.000000	15.108014
2104.000000	15.109585
2103.000000	15.110410
2102.000000	15.111334
2101.000000	15.112934
2100.000000	15.114912
2099.000000	15.116820
2098.000000	15.118798
2097.000000	15.121171
2096.000000	15.123873
2095.000000	15.126644
2094.000000	15.129354
2093.000000	15.131807
2092.000000	15.133798
2091.000000	15.135632
2090.000000	15.137997
2089.000000	15.140958
2088.000000	15.143720
2087.000000	15.145745
2086.000000	15.147429
2085.000000	15.149327
2084.000000	15.151464
2083.000000	15.153860
2082.000000	15.156903
2081.000000	15.160595
2080.000000	15.164164
2079.000000	15.167065
2078.000000	15.169685
2077.000000	15.172489
2076.000000	15.175174
2075.000000	15.177384
2074.000000	15.179510
2073.000000	15.182047
2072.000000	15.184794
2071.000000	15.187427
2070.000000	15.190167
2069.000000	15.193137
2068.000000	15.195749
2067.000000	15.197666
2066.000000	15.199718
2065.000000	15.202888
2064.000000	15.206883
2063.000000	15.210626
2062.000000	15.213755
2061.000000	15.216707
2060.000000	15.219716
2059.000000	15.222656
2058.000000	15.225585
2057.000000	15.228608
2056.000000	15.231443
2055.000000	15.233857
2054.000000	15.236209
2053.000000	15.238938
2052.000000	15.241864
2051.000000	15.244655
2050.000000	15.247479
2049.000000	15.250501
2048.000000	15.253298
2047.000000	15.255564
2046.000000	15.257859
2045.000000	15.260743
2044.000000	15.263711
2043.000000	15.265924
2042.000000	15.267592
2041.000000	15.269597
2040.000000	15.272123
2039.000000	15.274679
2038.000000	15.277187
2037.000000	15.280025
2036.000000	15.283123
2035.000000	15.285940
2034.000000	15.288186
2033.000000	15.289749
2032.000000	15.290204
2031.000000	15.289406
2030.000000	15.288478
2029.000000	15.289236
2028.000000	15.292453
2027.000000	15.297290
2026.000000	15.302294
2025.000000	15.306355
2024.000000	15.308947
2023.000000	15.310250
2022.000000	15.310983
2021.000000	15.311573
2020.000000	15.311722
2019.000000	15.311406
2018.000000	15.311840
2017.000000	15.314521
2016.000000	15.319459
2015.000000	15.325118
2014.000000	15.330001
2013.000000	15.333614
2012.000000	15.336134
2011.000000	15.337988
2010.000000	15.339711
2009.000000	15.341597
2008.000000	15.343514
2007.000000	15.345373
2006.000000	15.347287
2005.000000	15.348782
2004.000000	15.348724
2003.000000	15.347075
2002.000000	15.346021
2001.000000	15.347958
2000.000000	15.352586
1999.000000	15.357299
1998.000000	15.360230
1997.000000	15.361454
1996.000000	15.361219
1995.000000	15.358922
1994.000000	15.354742
1993.000000	15.350991
1992.000000	15.350464
1991.000000	15.353777
1990.000000	15.359087
1989.000000	15.364092
1988.000000	15.367663
1987.000000	15.369815
1986.000000	15.370992
1985.000000	15.371655
1984.000000	15.372116
1983.000000	15.372423
1982.000000	15.372420
1981.000000	15.372055
1980.000000	15.371602
1979.000000	15.371470
1978.000000	15.371742
1977.000000	15.372038
1976.000000	15.371947
1975.000000	15.371495
1974.000000	15.371015
1973.000000	15.370616
1972.000000	15.369903
1971.000000	15.368149
1970.000000	15.364782
1969.000000	15.360103
1968.000000	15.355710
1967.000000	15.353674
1966.000000	15.354713
1965.000000	15.357366
1964.000000	15.359165
1963.000000	15.358229
1962.000000	15.353678
1961.000000	15.345901
1960.000000	15.337493
1959.000000	15.332764
1958.000000	15.334323
1957.000000	15.340279
1956.000000	15.346196
1955.000000	15.349600
1954.000000	15.351078
1953.000000	15.351502
1952.000000	15.350448
1951.000000	15.347826
1950.000000	15.344980
1949.000000	15.343085
1948.000000	15.341625
1947.000000	15.339123
1946.000000	15.334439
1945.000000	15.327362
1944.000000	15.319431
1943.000000	15.314306
1942.000000	15.315262
1941.000000	15.321457
1940.000000	15.328196
1939.000000	15.331648
1938.000000	15.331871
1937.000000	15.330799
1936.000000	15.329311
1935.000000	15.327443
1934.000000	15.325667
1933.000000	15.324322
1932.000000	15.322829
1931.000000	15.320688
1930.000000	15.318400
1929.000000	15.316483
1928.000000	15.314331
1927.000000	15.310688
1926.000000	15.304661
1925.000000	15.296410
1924.000000	15.287885
1923.000000	15.282052
1922.000000	15.279208
1921.000000	15.274806
1920.000000	15.264425
1919.000000	15.251294
1918.000000	15.244888
1917.000000	15.250213
1916.000000	15.261795
1915.000000	15.270280
1914.000000	15.271758
1913.000000	15.268086
1912.000000	15.261586
1911.000000	15.253624
1910.000000	15.246530
1909.000000	15.242596
1908.000000	15.241278
1907.000000	15.240162
1906.000000	15.238279
1905.000000	15.236263
1904.000000	15.234068
1903.000000	15.230957
1902.000000	15.227238
1901.000000	15.223844
1900.000000	15.220525
1899.000000	15.216208
1898.000000	15.210674
1897.000000	15.204663
1896.000000	15.199150
1895.000000	15.195372
1894.000000	15.193777
1893.000000	15.191812
1892.000000	15.185403
1891.000000	15.174881
1890.000000	15.166935
1889.000000	15.167597
1888.000000	15.175002
1887.000000	15.182113
1886.000000	15.184926
1885.000000	15.184708
1884.000000	15.183660
1883.000000	15.182325
1882.000000	15.180902
1881.000000	15.179742
1880.000000	15.178347
1879.000000	15.176220
1878.000000	15.174260
1877.000000	15.173296
1876.000000	15.172191
1875.000000	15.169366
1874.000000	15.164381
1873.000000	15.155528
1872.000000	15.138762
1871.000000	15.113739
1870.000000	15.089570
1869.000000	15.079119
1868.000000	15.086692
1867.000000	15.104740
1866.000000	15.122515
1865.000000	15.134208
1864.000000	15.138996
1863.000000	15.138279
1862.000000	15.134914
1861.000000	15.131879
1860.000000	15.129768
1859.000000	15.127288
1858.000000	15.124363
1857.000000	15.122264
1856.000000	15.120836
1855.000000	15.118622
1854.000000	15.115718
1853.000000	15.113242
1852.000000	15.110103
1851.000000	15.103952
1850.000000	15.095082
1849.000000	15.084542
1848.000000	15.067993
1847.000000	15.038176
1846.000000	14.997725
1845.000000	14.964799
1844.000000	14.959390
1843.000000	14.983837
1842.000000	15.020227
1841.000000	15.047043
1840.000000	15.055887
1839.000000	15.052589
1838.000000	15.046500
1837.000000	15.041980
1836.000000	15.038589
1835.000000	15.034454
1834.000000	15.026400
1833.000000	15.009676
1832.000000	14.983174
1831.000000	14.955541
1830.000000	14.940372
1829.000000	14.941718
1828.000000	14.948427
1827.000000	14.947408
1826.000000	14.939333
1825.000000	14.935702
1824.000000	14.942620
1823.000000	14.954144
1822.000000	14.961393
1821.000000	14.961627
1820.000000	14.956860
1819.000000	14.949357
1818.000000	14.941439
1817.000000	14.935604
1816.000000	14.931619
1815.000000	14.925812
1814.000000	14.915328
1813.000000	14.901409
1812.000000	14.887620
1811.000000	14.876964
1810.000000	14.871102
1809.000000	14.869623
1808.000000	14.869242
1807.000000	14.865966
1806.000000	14.858329
1805.000000	14.846533
1804.000000	14.829686
1803.000000	14.807748
1802.000000	14.785635
1801.000000	14.770720
1800.000000	14.765508
1799.000000	14.766112
1798.000000	14.767061
1797.000000	14.762593
1796.000000	14.744493
1795.000000	14.707369
1794.000000	14.659784
1793.000000	14.623719
1792.000000	14.617080
1791.000000	14.638223
1790.000000	14.669238
1789.000000	14.690901
1788.000000	14.693397
1787.000000	14.678827
1786.000000	14.658248
1785.000000	14.643160
1784.000000	14.635876
1783.000000	14.629747
1782.000000	14.619875
1781.000000	14.609346
1780.000000	14.602981
1779.000000	14.599845
1778.000000	14.594457
1777.000000	14.579897
1776.000000	14.547425
1775.000000	14.491938
1774.000000	14.425222
1773.000000	14.376562
1772.000000	14.368557
1771.000000	14.393614
1770.000000	14.423326
1769.000000	14.440335
1768.000000	14.451269
1767.000000	14.467204
1766.000000	14.482361
1765.000000	14.479756
1764.000000	14.453490
1763.000000	14.418231
1762.000000	14.395725
1761.000000	14.394238
1760.000000	14.402076
1759.000000	14.401330
1758.000000	14.387476
1757.000000	14.372362
1756.000000	14.365737
1755.000000	14.358486
1754.000000	14.331613
1753.000000	14.281617
1752.000000	14.229110
1751.000000	14.198955
1750.000000	14.197258
1749.000000	14.211196
1748.000000	14.225536
1747.000000	14.233062
1746.000000	14.232576
1745.000000	14.224546
1744.000000	14.209530
1743.000000	14.186824
1742.000000	14.155822
1741.000000	14.122877
1740.000000	14.102434
1739.000000	14.100195
1738.000000	14.094387
1737.000000	14.048768
1736.000000	13.956220
1735.000000	13.861911
1734.000000	13.827891
1733.000000	13.873234
1732.000000	13.959071
1731.000000	14.032433
1730.000000	14.072163
1729.000000	14.088956
1728.000000	14.096637
1727.000000	14.097918
1726.000000	14.092278
1725.000000	14.083261
1724.000000	14.074882
1723.000000	14.065566
1722.000000	14.045201
1721.000000	13.997425
1720.000000	13.913712
1719.000000	13.813266
1718.000000	13.741015
1717.000000	13.732413
1716.000000	13.780886
1715.000000	13.848578
1714.000000	13.904665
1713.000000	13.942006
1712.000000	13.962488
1711.000000	13.965329
1710.000000	13.952579
1709.000000	13.930599
1708.000000	13.901859
1707.000000	13.867873
1706.000000	13.839778
1705.000000	13.826119
1704.000000	13.806517
1703.000000	13.743900
1702.000000	13.638669
1701.000000	13.547677
1700.000000	13.523883
1699.000000	13.551457
1698.000000	13.570013
1697.000000	13.557351
1696.000000	13.556045
1695.000000	13.611351
1694.000000	13.709926
1693.000000	13.796359
1692.000000	13.834559
1691.000000	13.834285
1690.000000	13.822264
1689.000000	13.802444
1688.000000	13.751013
1687.000000	13.650171
1686.000000	13.525512
1685.000000	13.441945
1684.000000	13.450980
1683.000000	13.541346
1682.000000	13.650824
1681.000000	13.725621
1680.000000	13.755655
1679.000000	13.753918
1678.000000	13.726226
1677.000000	13.677549
1676.000000	13.631542
1675.000000	13.617355
1674.000000	13.635265
1673.000000	13.652777
1672.000000	13.641277
1671.000000	13.607022
1670.000000	13.581078
1669.000000	13.586324
1668.000000	13.618824
1667.000000	13.654577
1666.000000	13.668505
1665.000000	13.651925
1664.000000	13.619152
1663.000000	13.596247
1662.000000	13.598140
1661.000000	13.616681
1660.000000	13.632955
1659.000000	13.635340
1658.000000	13.616173
1657.000000	13.555232
1656.000000	13.428266
1655.000000	13.248589
1654.000000	13.090279
1653.000000	13.043389
1652.000000	13.132164
1651.000000	13.285312
1650.000000	13.396904
1649.000000	13.414745
1648.000000	13.368266
1647.000000	13.323393
1646.000000	13.323733
1645.000000	13.368619
1644.000000	13.428062
1643.000000	13.470404
1642.000000	13.482954
1641.000000	13.472467
1640.000000	13.445999
1639.000000	13.396537
1638.000000	13.317207
1637.000000	13.228041
1636.000000	13.173565
1635.000000	13.184307
1634.000000	13.246197
1633.000000	13.314061
1632.000000	13.350715
1631.000000	13.348809
1630.000000	13.322788
1629.000000	13.290607
1628.000000	13.262030
1627.000000	13.235264
1626.000000	13.201665
1625.000000	13.157702
1624.000000	13.113511
1623.000000	13.085258
1622.000000	13.075764
1621.000000	13.064611
1620.000000	13.022471
1619.000000	12.939996
1618.000000	12.843768
1617.000000	12.779313
1616.000000	12.772070
1615.000000	12.803705
1614.000000	12.829679
1613.000000	12.819741
1612.000000	12.778189
1611.000000	12.728064
1610.000000	12.686139
1609.000000	12.657025
1608.000000	12.641560
1607.000000	12.640072
1606.000000	12.649031
1605.000000	12.662395
1604.000000	12.677361
1603.000000	12.694742
1602.000000	12.714135
1601.000000	12.732860
1600.000000	12.749474
1599.000000	12.764565
1598.000000	12.777978
1597.000000	12.788580
1596.000000	12.796911
1595.000000	12.805024
1594.000000	12.813275
1593.000000	12.819731
1592.000000	12.823095
1591.000000	12.824078
1590.000000	12.823576
1589.000000	12.821477
1588.000000	12.817765
1587.000000	12.813242
1586.000000	12.808503
1585.000000	12.803213
1584.000000	12.797201
1583.000000	12.791923
1582.000000	12.788928
1581.000000	12.783823
1580.000000	12.761820
1579.000000	12.706773
1578.000000	12.623728
1577.000000	12.550616
1576.000000	12.534076
1575.000000	12.584560
1574.000000	12.660302
1573.000000	12.703747
1572.000000	12.692878
1571.000000	12.653070
1570.000000	12.623944
1569.000000	12.623053
1568.000000	12.639608
1567.000000	12.652915
1566.000000	12.651357
1565.000000	12.635180
1564.000000	12.602357
1563.000000	12.535431
1562.000000	12.414531
1561.000000	12.253822
1560.000000	12.116380
1559.000000	12.072299
1558.000000	12.134957
1557.000000	12.249729
1556.000000	12.350404
1555.000000	12.415331
1554.000000	12.462767
1553.000000	12.508761
1552.000000	12.549077
1551.000000	12.576714
1550.000000	12.595863
1549.000000	12.611990
1548.000000	12.620498
1547.000000	12.613593
1546.000000	12.591906
1545.000000	12.561669
1544.000000	12.523132
1543.000000	12.469703
1542.000000	12.402863
1541.000000	12.346920
1540.000000	12.342408
1539.000000	12.414276
1538.000000	12.540862
1537.000000	12.661206
1536.000000	12.723920
1535.000000	12.730065
1534.000000	12.722742
1533.000000	12.737813
1532.000000	12.773845
1531.000000	12.806997
1530.000000	12.819859
1529.000000	12.810532
1528.000000	12.786564
1527.000000	12.759874
1526.000000	12.739282
1525.000000	12.718698
1524.000000	12.680601
1523.000000	12.622378
1522.000000	12.572273
1521.000000	12.564099
1520.000000	12.597551
1519.000000	12.637885
1518.000000	12.656336
1517.000000	12.656618
1516.000000	12.656877
1515.000000	12.660710
1514.000000	12.658178
1513.000000	12.645761
1512.000000	12.628144
1511.000000	12.599810
1510.000000	12.540121
1509.000000	12.437843
1508.000000	12.317466
1507.000000	12.231198
1506.000000	12.217210
1505.000000	12.263374
1504.000000	12.312894
1503.000000	12.306469
1502.000000	12.219235
1501.000000	12.060835
1500.000000	11.851277
