PE IR       SUBTECH     SPECTRUM    ASCII       PEDS        4.00        
   -1
TE108B2_002.ASC
20/02/27
13:16:33.00
20/02/27
13:16:33.00
Administrator
Sample 002 By Administrator Date Thursday, February 27 2020
1500.000000
#HDR
-1
-1
#GR
cm-1
EGY
1.0
0.0
4000.000000
-1.000000
2501
8
105.777230
71.398272
#DATA
4000.000000	71.398272
3999.000000	71.430910
3998.000000	71.462149
3997.000000	71.492429
3996.000000	71.522905
3995.000000	71.554325
3994.000000	71.586456
3993.000000	71.618810
3992.000000	71.651451
3991.000000	71.684802
3990.000000	71.719077
3989.000000	71.754042
3988.000000	71.788963
3987.000000	71.822737
3986.000000	71.854630
3985.000000	71.885090
3984.000000	71.915400
3983.000000	71.946415
3982.000000	71.977999
3981.000000	72.009604
3980.000000	72.040763
3979.000000	72.070977
3978.000000	72.099912
3977.000000	72.128028
3976.000000	72.156502
3975.000000	72.186248
3974.000000	72.217351
3973.000000	72.249492
3972.000000	72.282353
3971.000000	72.315520
3970.000000	72.348611
3969.000000	72.381638
3968.000000	72.414675
3967.000000	72.446987
3966.000000	72.477187
3965.000000	72.504643
3964.000000	72.530370
3963.000000	72.556346
3962.000000	72.584243
3961.000000	72.614778
3960.000000	72.647601
3959.000000	72.681542
3958.000000	72.715371
3957.000000	72.748420
3956.000000	72.780142
3955.000000	72.809163
3954.000000	72.833535
3953.000000	72.852329
3952.000000	72.866919
3951.000000	72.880922
3950.000000	72.899087
3949.000000	72.925073
3948.000000	72.958505
3947.000000	72.994011
3946.000000	73.024896
3945.000000	73.049375
3944.000000	73.072929
3943.000000	73.103965
3942.000000	73.146934
3941.000000	73.199369
3940.000000	73.254182
3939.000000	73.303764
3938.000000	73.342484
3937.000000	73.367135
3936.000000	73.377191
3935.000000	73.376180
3934.000000	73.372960
3933.000000	73.379951
3932.000000	73.406909
3931.000000	73.454260
3930.000000	73.511950
3929.000000	73.565589
3928.000000	73.605443
3927.000000	73.631521
3926.000000	73.651923
3925.000000	73.675795
3924.000000	73.706042
3923.000000	73.737015
3922.000000	73.759367
3921.000000	73.768338
3920.000000	73.769013
3919.000000	73.774865
3918.000000	73.800798
3917.000000	73.855014
3916.000000	73.933852
3915.000000	74.023396
3914.000000	74.107216
3913.000000	74.175157
3912.000000	74.225838
3911.000000	74.261207
3910.000000	74.278678
3909.000000	74.268625
3908.000000	74.220531
3907.000000	74.134181
3906.000000	74.026449
3905.000000	73.926554
3904.000000	73.861904
3903.000000	73.846276
3902.000000	73.879958
3901.000000	73.957822
3900.000000	74.074333
3899.000000	74.220161
3898.000000	74.375997
3897.000000	74.512283
3896.000000	74.597888
3895.000000	74.616117
3894.000000	74.579074
3893.000000	74.527015
3892.000000	74.504960
3891.000000	74.529389
3890.000000	74.574741
3889.000000	74.596632
3888.000000	74.574619
3887.000000	74.533514
3886.000000	74.521559
3885.000000	74.565747
3884.000000	74.649466
3883.000000	74.733630
3882.000000	74.797334
3881.000000	74.853316
3880.000000	74.924300
3879.000000	75.010804
3878.000000	75.087836
3877.000000	75.130030
3876.000000	75.131010
3875.000000	75.096661
3874.000000	75.029502
3873.000000	74.931869
3872.000000	74.825013
3871.000000	74.753093
3870.000000	74.756462
3869.000000	74.836304
3868.000000	74.950541
3867.000000	75.048341
3866.000000	75.111044
3865.000000	75.159360
3864.000000	75.225517
3863.000000	75.322834
3862.000000	75.440138
3861.000000	75.551506
3860.000000	75.618437
3859.000000	75.584611
3858.000000	75.391493
3857.000000	75.025414
3856.000000	74.562690
3855.000000	74.161308
3854.000000	73.987004
3853.000000	74.120481
3852.000000	74.513455
3851.000000	75.024166
3850.000000	75.500645
3849.000000	75.849214
3848.000000	76.049376
3847.000000	76.128664
3846.000000	76.130472
3845.000000	76.094411
3844.000000	76.043462
3843.000000	75.975551
3842.000000	75.869813
3841.000000	75.714536
3840.000000	75.537013
3839.000000	75.403217
3838.000000	75.380195
3837.000000	75.489122
3836.000000	75.690366
3835.000000	75.912429
3834.000000	76.100122
3833.000000	76.240708
3832.000000	76.352037
3831.000000	76.451658
3830.000000	76.540450
3829.000000	76.611012
3828.000000	76.661038
3827.000000	76.689689
3826.000000	76.684112
3825.000000	76.622821
3824.000000	76.503890
3823.000000	76.367043
3822.000000	76.274542
3821.000000	76.258105
3820.000000	76.287717
3819.000000	76.302967
3818.000000	76.281265
3817.000000	76.270542
3816.000000	76.347328
3815.000000	76.543600
3814.000000	76.813970
3813.000000	77.068194
3812.000000	77.227096
3811.000000	77.256696
3810.000000	77.174031
3809.000000	77.038930
3808.000000	76.928892
3807.000000	76.891932
3806.000000	76.908448
3805.000000	76.908013
3804.000000	76.840845
3803.000000	76.735885
3802.000000	76.682909
3801.000000	76.753020
3800.000000	76.937799
3799.000000	77.164282
3798.000000	77.360839
3797.000000	77.505815
3796.000000	77.619517
3795.000000	77.725382
3794.000000	77.826159
3793.000000	77.910975
3792.000000	77.973040
3791.000000	78.015413
3790.000000	78.044422
3789.000000	78.063783
3788.000000	78.075841
3787.000000	78.085163
3786.000000	78.097843
3785.000000	78.116091
3784.000000	78.133991
3783.000000	78.140909
3782.000000	78.132606
3781.000000	78.120439
3780.000000	78.126977
3779.000000	78.169124
3778.000000	78.244312
3777.000000	78.332470
3776.000000	78.408767
3775.000000	78.452896
3774.000000	78.452772
3773.000000	78.409318
3772.000000	78.342355
3771.000000	78.285680
3770.000000	78.267762
3769.000000	78.294193
3768.000000	78.350149
3767.000000	78.418211
3766.000000	78.489743
3765.000000	78.559613
3764.000000	78.616051
3763.000000	78.642949
3762.000000	78.634430
3761.000000	78.605872
3760.000000	78.587170
3759.000000	78.599621
3758.000000	78.632437
3757.000000	78.638790
3756.000000	78.559757
3755.000000	78.362556
3754.000000	78.069596
3753.000000	77.759033
3752.000000	77.532812
3751.000000	77.465045
3750.000000	77.551397
3749.000000	77.697511
3748.000000	77.774599
3747.000000	77.719062
3746.000000	77.597044
3745.000000	77.563217
3744.000000	77.737528
3743.000000	78.104415
3742.000000	78.523210
3741.000000	78.831498
3740.000000	78.944305
3739.000000	78.883304
3738.000000	78.737115
3737.000000	78.600078
3736.000000	78.530935
3735.000000	78.543713
3734.000000	78.626695
3733.000000	78.765721
3732.000000	78.948222
3731.000000	79.149604
3730.000000	79.328462
3729.000000	79.447858
3728.000000	79.502365
3727.000000	79.519432
3726.000000	79.533571
3725.000000	79.562444
3724.000000	79.606300
3723.000000	79.661135
3722.000000	79.725727
3721.000000	79.799134
3720.000000	79.877472
3719.000000	79.952940
3718.000000	80.010431
3717.000000	80.024625
3716.000000	79.968766
3715.000000	79.837231
3714.000000	79.664197
3713.000000	79.516114
3712.000000	79.457598
3711.000000	79.515847
3710.000000	79.670401
3709.000000	79.871598
3708.000000	80.067549
3707.000000	80.220168
3706.000000	80.309014
3705.000000	80.333066
3704.000000	80.313372
3703.000000	80.287659
3702.000000	80.292140
3701.000000	80.340938
3700.000000	80.420775
3699.000000	80.504987
3698.000000	80.571832
3697.000000	80.611618
3696.000000	80.620514
3695.000000	80.591602
3694.000000	80.511715
3693.000000	80.367928
3692.000000	80.163811
3691.000000	79.938365
3690.000000	79.768253
3689.000000	79.735095
3688.000000	79.873921
3687.000000	80.143109
3686.000000	80.447166
3685.000000	80.694928
3684.000000	80.843934
3683.000000	80.902074
3682.000000	80.895014
3681.000000	80.831398
3680.000000	80.694603
3679.000000	80.470204
3678.000000	80.189227
3677.000000	79.940542
3676.000000	79.820128
3675.000000	79.853112
3674.000000	79.967129
3673.000000	80.057369
3672.000000	80.084039
3671.000000	80.102419
3670.000000	80.198838
3669.000000	80.405809
3668.000000	80.677858
3667.000000	80.936781
3666.000000	81.128230
3665.000000	81.242453
3664.000000	81.299748
3663.000000	81.325387
3662.000000	81.331797
3661.000000	81.312511
3660.000000	81.252593
3659.000000	81.151828
3658.000000	81.041323
3657.000000	80.970579
3656.000000	80.966374
3655.000000	80.998959
3654.000000	80.993428
3653.000000	80.885325
3652.000000	80.677184
3651.000000	80.446967
3650.000000	80.301391
3649.000000	80.312533
3648.000000	80.481926
3647.000000	80.749780
3646.000000	81.033272
3645.000000	81.267565
3644.000000	81.426311
3643.000000	81.517688
3642.000000	81.565316
3641.000000	81.590607
3640.000000	81.605554
3639.000000	81.613528
3638.000000	81.612901
3637.000000	81.601925
3636.000000	81.581393
3635.000000	81.548084
3634.000000	81.482199
3633.000000	81.350060
3632.000000	81.136335
3631.000000	80.883304
3630.000000	80.690158
3629.000000	80.654197
3628.000000	80.801069
3627.000000	81.065674
3626.000000	81.339058
3625.000000	81.532251
3624.000000	81.608203
3623.000000	81.575051
3622.000000	81.469668
3621.000000	81.346280
3620.000000	81.261905
3619.000000	81.250708
3618.000000	81.304903
3617.000000	81.382049
3616.000000	81.437125
3615.000000	81.450479
3614.000000	81.430174
3613.000000	81.393222
3612.000000	81.350949
3611.000000	81.312161
3610.000000	81.293150
3609.000000	81.315072
3608.000000	81.387649
3607.000000	81.496218
3606.000000	81.607890
3605.000000	81.691176
3604.000000	81.732378
3603.000000	81.737535
3602.000000	81.723386
3601.000000	81.705794
3600.000000	81.692131
3599.000000	81.680270
3598.000000	81.664734
3597.000000	81.645242
3596.000000	81.629880
3595.000000	81.628583
3594.000000	81.641015
3593.000000	81.650185
3592.000000	81.629885
3591.000000	81.564332
3590.000000	81.465559
3589.000000	81.372849
3588.000000	81.330410
3587.000000	81.359817
3586.000000	81.447582
3585.000000	81.557240
3584.000000	81.652680
3583.000000	81.715329
3582.000000	81.745797
3581.000000	81.755192
3580.000000	81.755245
3579.000000	81.753161
3578.000000	81.751484
3577.000000	81.750582
3576.000000	81.750630
3575.000000	81.751390
3574.000000	81.749672
3573.000000	81.736479
3572.000000	81.698094
3571.000000	81.624299
3570.000000	81.520751
3569.000000	81.414234
3568.000000	81.342383
3567.000000	81.331402
3566.000000	81.379934
3565.000000	81.461620
3564.000000	81.543478
3563.000000	81.604159
3562.000000	81.639966
3561.000000	81.658886
3560.000000	81.670753
3559.000000	81.680612
3558.000000	81.687482
3557.000000	81.687053
3556.000000	81.675965
3555.000000	81.655512
3554.000000	81.632413
3553.000000	81.615125
3552.000000	81.607238
3551.000000	81.603476
3550.000000	81.593031
3549.000000	81.568892
3548.000000	81.534935
3547.000000	81.504344
3546.000000	81.490612
3545.000000	81.499044
3544.000000	81.524493
3543.000000	81.555659
3542.000000	81.581211
3541.000000	81.594070
3540.000000	81.592642
3539.000000	81.580037
3538.000000	81.562531
3537.000000	81.547053
3536.000000	81.537821
3535.000000	81.533790
3534.000000	81.529361
3533.000000	81.518199
3532.000000	81.497204
3531.000000	81.467828
3530.000000	81.434628
3529.000000	81.402703
3528.000000	81.375126
3527.000000	81.351788
3526.000000	81.330767
3525.000000	81.311460
3524.000000	81.296018
3523.000000	81.287008
3522.000000	81.283796
3521.000000	81.282179
3520.000000	81.277694
3519.000000	81.268769
3518.000000	81.256525
3517.000000	81.242415
3516.000000	81.226628
3515.000000	81.208165
3514.000000	81.185679
3513.000000	81.158495
3512.000000	81.127823
3511.000000	81.097245
3510.000000	81.071051
3509.000000	81.050652
3508.000000	81.032171
3507.000000	81.008404
3506.000000	80.974572
3505.000000	80.933168
3504.000000	80.892997
3503.000000	80.862902
3502.000000	80.845324
3501.000000	80.835129
3500.000000	80.823967
3499.000000	80.806102
3498.000000	80.781344
3497.000000	80.753610
3496.000000	80.727167
3495.000000	80.703564
3494.000000	80.681301
3493.000000	80.657743
3492.000000	80.631240
3491.000000	80.602002
3490.000000	80.571807
3489.000000	80.543189
3488.000000	80.518171
3487.000000	80.496822
3486.000000	80.476974
3485.000000	80.455972
3484.000000	80.433306
3483.000000	80.411554
3482.000000	80.394663
3481.000000	80.385105
3480.000000	80.382231
3479.000000	80.382932
3478.000000	80.383855
3477.000000	80.383535
3476.000000	80.382862
3475.000000	80.383636
3474.000000	80.386639
3473.000000	80.390977
3472.000000	80.395074
3471.000000	80.398122
3470.000000	80.400842
3469.000000	80.405236
3468.000000	80.413513
3467.000000	80.426665
3466.000000	80.443680
3465.000000	80.462256
3464.000000	80.480588
3463.000000	80.498491
3462.000000	80.516862
3461.000000	80.536297
3460.000000	80.556397
3459.000000	80.576238
3458.000000	80.595127
3457.000000	80.612843
3456.000000	80.629405
3455.000000	80.644843
3454.000000	80.659096
3453.000000	80.671711
3452.000000	80.681401
3451.000000	80.686361
3450.000000	80.686045
3449.000000	80.683201
3448.000000	80.683554
3447.000000	80.692324
3446.000000	80.710606
3445.000000	80.735371
3444.000000	80.763001
3443.000000	80.792397
3442.000000	80.824653
3441.000000	80.860725
3440.000000	80.900249
3439.000000	80.942365
3438.000000	80.986927
3437.000000	81.034765
3436.000000	81.087200
3435.000000	81.145288
3434.000000	81.209030
3433.000000	81.277044
3432.000000	81.347238
3431.000000	81.418013
3430.000000	81.488862
3429.000000	81.559863
3428.000000	81.630792
3427.000000	81.700633
3426.000000	81.767630
3425.000000	81.829897
3424.000000	81.886596
3423.000000	81.938993
3422.000000	81.990258
3421.000000	82.043646
3420.000000	82.100371
3419.000000	82.158880
3418.000000	82.215983
3417.000000	82.268798
3416.000000	82.316183
3415.000000	82.358858
3414.000000	82.398406
3413.000000	82.436083
3412.000000	82.472319
3411.000000	82.507024
3410.000000	82.540125
3409.000000	82.571802
3408.000000	82.602367
3407.000000	82.631952
3406.000000	82.660207
3405.000000	82.686396
3404.000000	82.710121
3403.000000	82.732210
3402.000000	82.754866
3401.000000	82.780766
3400.000000	82.811808
3399.000000	82.848344
3398.000000	82.889062
3397.000000	82.931325
3396.000000	82.971955
3395.000000	83.008636
3394.000000	83.041368
3393.000000	83.072825
3392.000000	83.106805
3391.000000	83.145524
3390.000000	83.187836
3389.000000	83.229992
3388.000000	83.268426
3387.000000	83.302078
3386.000000	83.332422
3385.000000	83.361701
3384.000000	83.391314
3383.000000	83.421434
3382.000000	83.451440
3381.000000	83.480511
3380.000000	83.508133
3379.000000	83.534385
3378.000000	83.559792
3377.000000	83.584885
3376.000000	83.609871
3375.000000	83.634496
3374.000000	83.657940
3373.000000	83.679016
3372.000000	83.697043
3371.000000	83.712831
3370.000000	83.728614
3369.000000	83.746744
3368.000000	83.768332
3367.000000	83.792996
3366.000000	83.819492
3365.000000	83.846440
3364.000000	83.872816
3363.000000	83.898224
3362.000000	83.922811
3361.000000	83.946829
3360.000000	83.970297
3359.000000	83.993121
3358.000000	84.015400
3357.000000	84.037440
3356.000000	84.059448
3355.000000	84.081248
3354.000000	84.102322
3353.000000	84.122258
3352.000000	84.141374
3351.000000	84.160886
3350.000000	84.182165
3349.000000	84.205611
3348.000000	84.230262
3347.000000	84.254508
3346.000000	84.277180
3345.000000	84.298112
3344.000000	84.317973
3343.000000	84.337596
3342.000000	84.357195
3341.000000	84.376197
3340.000000	84.394070
3339.000000	84.411388
3338.000000	84.429750
3337.000000	84.450472
3336.000000	84.473501
3335.000000	84.497653
3334.000000	84.521578
3333.000000	84.544376
3332.000000	84.565649
3331.000000	84.585410
3330.000000	84.603908
3329.000000	84.621410
3328.000000	84.638231
3327.000000	84.655035
3326.000000	84.672800
3325.000000	84.692211
3324.000000	84.713138
3323.000000	84.734818
3322.000000	84.756413
3321.000000	84.777295
3320.000000	84.797082
3319.000000	84.815699
3318.000000	84.833343
3317.000000	84.850275
3316.000000	84.866697
3315.000000	84.882874
3314.000000	84.899054
3313.000000	84.915089
3312.000000	84.930358
3311.000000	84.944308
3310.000000	84.956976
3309.000000	84.968899
3308.000000	84.980885
3307.000000	84.994185
3306.000000	85.010537
3305.000000	85.031300
3304.000000	85.056212
3303.000000	85.083155
3302.000000	85.109302
3301.000000	85.132651
3300.000000	85.152797
3299.000000	85.170649
3298.000000	85.187482
3297.000000	85.204031
3296.000000	85.220262
3295.000000	85.235958
3294.000000	85.251459
3293.000000	85.267791
3292.000000	85.286088
3291.000000	85.306826
3290.000000	85.329431
3289.000000	85.352549
3288.000000	85.374854
3287.000000	85.395801
3286.000000	85.415695
3285.000000	85.435138
3284.000000	85.454514
3283.000000	85.473930
3282.000000	85.493314
3281.000000	85.512411
3280.000000	85.530829
3279.000000	85.548306
3278.000000	85.564966
3277.000000	85.581310
3276.000000	85.597997
3275.000000	85.615532
3274.000000	85.634020
3273.000000	85.653321
3272.000000	85.673592
3271.000000	85.695495
3270.000000	85.719488
3269.000000	85.744957
3268.000000	85.770439
3267.000000	85.794808
3266.000000	85.817920
3265.000000	85.840154
3264.000000	85.861826
3263.000000	85.883237
3262.000000	85.904820
3261.000000	85.926809
3260.000000	85.948942
3259.000000	85.970737
3258.000000	85.991971
3257.000000	86.012852
3256.000000	86.033954
3255.000000	86.056092
3254.000000	86.079871
3253.000000	86.105120
3252.000000	86.130923
3251.000000	86.156278
3250.000000	86.180516
3249.000000	86.203203
3248.000000	86.224346
3247.000000	86.245026
3246.000000	86.267233
3245.000000	86.292386
3244.000000	86.320081
3243.000000	86.348575
3242.000000	86.376365
3241.000000	86.403026
3240.000000	86.428842
3239.000000	86.454080
3238.000000	86.478573
3237.000000	86.501741
3236.000000	86.523181
3235.000000	86.543568
3234.000000	86.564777
3233.000000	86.588652
3232.000000	86.615526
3231.000000	86.644098
3230.000000	86.672693
3229.000000	86.700443
3228.000000	86.727364
3227.000000	86.753744
3226.000000	86.779656
3225.000000	86.804922
3224.000000	86.829356
3223.000000	86.852976
3222.000000	86.876056
3221.000000	86.899105
3220.000000	86.922760
3219.000000	86.947432
3218.000000	86.972804
3217.000000	86.997935
3216.000000	87.022244
3215.000000	87.046274
3214.000000	87.071058
3213.000000	87.096838
3212.000000	87.123003
3211.000000	87.149326
3210.000000	87.176590
3209.000000	87.205684
3208.000000	87.236584
3207.000000	87.268631
3206.000000	87.301407
3205.000000	87.334937
3204.000000	87.369259
3203.000000	87.404158
3202.000000	87.439209
3201.000000	87.473942
3200.000000	87.508241
3199.000000	87.542758
3198.000000	87.578591
3197.000000	87.616244
3196.000000	87.655097
3195.000000	87.694074
3194.000000	87.732521
3193.000000	87.770291
3192.000000	87.807392
3191.000000	87.843926
3190.000000	87.880080
3189.000000	87.915838
3188.000000	87.950964
3187.000000	87.985583
3186.000000	88.020487
3185.000000	88.056463
3184.000000	88.093412
3183.000000	88.130388
3182.000000	88.166387
3181.000000	88.201036
3180.000000	88.234857
3179.000000	88.269113
3178.000000	88.305076
3177.000000	88.343020
3176.000000	88.382004
3175.000000	88.420772
3174.000000	88.458675
3173.000000	88.495662
3172.000000	88.531931
3171.000000	88.567985
3170.000000	88.604634
3169.000000	88.642413
3168.000000	88.681085
3167.000000	88.720023
3166.000000	88.758901
3165.000000	88.797717
3164.000000	88.836414
3163.000000	88.874921
3162.000000	88.913456
3161.000000	88.952417
3160.000000	88.991990
3159.000000	89.032058
3158.000000	89.072292
3157.000000	89.112046
3156.000000	89.150380
3155.000000	89.186752
3154.000000	89.221891
3153.000000	89.257751
3152.000000	89.296313
3151.000000	89.338201
3150.000000	89.382210
3149.000000	89.426143
3148.000000	89.468329
3147.000000	89.508543
3146.000000	89.547525
3145.000000	89.585820
3144.000000	89.623343
3143.000000	89.659913
3142.000000	89.695704
3141.000000	89.731137
3140.000000	89.766692
3139.000000	89.802847
3138.000000	89.839669
3137.000000	89.876317
3136.000000	89.911528
3135.000000	89.944964
3134.000000	89.977702
3133.000000	90.011096
3132.000000	90.045474
3131.000000	90.080174
3130.000000	90.114461
3129.000000	90.148005
3128.000000	90.180762
3127.000000	90.212762
3126.000000	90.243894
3125.000000	90.273712
3124.000000	90.301701
3123.000000	90.327948
3122.000000	90.353286
3121.000000	90.378546
3120.000000	90.403950
3119.000000	90.429470
3118.000000	90.455537
3117.000000	90.483067
3116.000000	90.512832
3115.000000	90.544806
3114.000000	90.577825
3113.000000	90.609880
3112.000000	90.639251
3111.000000	90.665798
3110.000000	90.691064
3109.000000	90.717011
3108.000000	90.744760
3107.000000	90.774323
3106.000000	90.804929
3105.000000	90.835417
3104.000000	90.864953
3103.000000	90.893842
3102.000000	90.923368
3101.000000	90.954537
3100.000000	90.987166
3099.000000	91.020335
3098.000000	91.053409
3097.000000	91.086411
3096.000000	91.119744
3095.000000	91.153727
3094.000000	91.188115
3093.000000	91.221943
3092.000000	91.254201
3091.000000	91.284808
3090.000000	91.314561
3089.000000	91.344014
3088.000000	91.372826
3087.000000	91.400320
3086.000000	91.426187
3085.000000	91.450423
3084.000000	91.473073
3083.000000	91.494336
3082.000000	91.514563
3081.000000	91.534008
3080.000000	91.553002
3079.000000	91.572439
3078.000000	91.593351
3077.000000	91.615536
3076.000000	91.637086
3075.000000	91.655711
3074.000000	91.670313
3073.000000	91.681125
3072.000000	91.688858
3071.000000	91.694192
3070.000000	91.697797
3069.000000	91.700528
3068.000000	91.703750
3067.000000	91.709502
3066.000000	91.719810
3065.000000	91.735492
3064.000000	91.755924
3063.000000	91.779985
3062.000000	91.806704
3061.000000	91.834944
3060.000000	91.863363
3059.000000	91.891357
3058.000000	91.919633
3057.000000	91.949345
3056.000000	91.980841
3055.000000	92.013391
3054.000000	92.045653
3053.000000	92.076163
3052.000000	92.103989
3051.000000	92.129426
3050.000000	92.153745
3049.000000	92.177839
3048.000000	92.201301
3047.000000	92.222957
3046.000000	92.241876
3045.000000	92.257732
3044.000000	92.270860
3043.000000	92.282392
3042.000000	92.293826
3041.000000	92.305843
3040.000000	92.317688
3039.000000	92.327897
3038.000000	92.335348
3037.000000	92.339504
3036.000000	92.340232
3035.000000	92.337863
3034.000000	92.333020
3033.000000	92.325890
3032.000000	92.315656
3031.000000	92.300643
3030.000000	92.278691
3029.000000	92.247461
3028.000000	92.205197
3027.000000	92.151823
3026.000000	92.089265
3025.000000	92.020790
3024.000000	91.950443
3023.000000	91.882959
3022.000000	91.823406
3021.000000	91.776522
3020.000000	91.746775
3019.000000	91.738921
3018.000000	91.757387
3017.000000	91.804370
3016.000000	91.878792
3015.000000	91.977060
3014.000000	92.094075
3013.000000	92.223362
3012.000000	92.357334
3011.000000	92.488544
3010.000000	92.610784
3009.000000	92.719249
3008.000000	92.810804
3007.000000	92.884753
3006.000000	92.942794
3005.000000	92.987628
3004.000000	93.021714
3003.000000	93.047257
3002.000000	93.066361
3001.000000	93.080560
3000.000000	93.090765
2999.000000	93.098081
2998.000000	93.104092
2997.000000	93.109887
2996.000000	93.115220
2995.000000	93.118848
2994.000000	93.119153
2993.000000	93.114447
2992.000000	93.103860
2991.000000	93.088701
2990.000000	93.072272
2989.000000	93.057329
2988.000000	93.043551
2987.000000	93.027180
2986.000000	93.002592
2985.000000	92.964855
2984.000000	92.913119
2983.000000	92.852846
2982.000000	92.793609
2981.000000	92.742645
2980.000000	92.699787
2979.000000	92.658243
2978.000000	92.609306
2977.000000	92.545804
2976.000000	92.462804
2975.000000	92.357495
2974.000000	92.229552
2973.000000	92.081394
2972.000000	91.917654
2971.000000	91.743901
2970.000000	91.564935
2969.000000	91.383981
2968.000000	91.204094
2967.000000	91.030577
2966.000000	90.871228
2965.000000	90.733499
2964.000000	90.621949
2963.000000	90.538489
2962.000000	90.483777
2961.000000	90.457157
2960.000000	90.455736
2959.000000	90.474689
2958.000000	90.508541
2957.000000	90.552061
2956.000000	90.600592
2955.000000	90.650496
2954.000000	90.699105
2953.000000	90.743620
2952.000000	90.780077
2951.000000	90.803416
2950.000000	90.808185
2949.000000	90.789150
2948.000000	90.742142
2947.000000	90.665098
2946.000000	90.557848
2945.000000	90.420652
2944.000000	90.253540
2943.000000	90.057498
2942.000000	89.835726
2941.000000	89.593517
2940.000000	89.337764
2939.000000	89.077005
2938.000000	88.820520
2937.000000	88.575666
2936.000000	88.345542
2935.000000	88.128968
2934.000000	87.922024
2933.000000	87.719749
2932.000000	87.518332
2931.000000	87.317904
2930.000000	87.123846
2929.000000	86.945618
2928.000000	86.794978
2927.000000	86.685538
2926.000000	86.632008
2925.000000	86.647600
2924.000000	86.740780
2923.000000	86.913765
2922.000000	87.162406
2921.000000	87.476529
2920.000000	87.841440
2919.000000	88.241252
2918.000000	88.661649
2917.000000	89.090203
2916.000000	89.515347
2915.000000	89.926654
2914.000000	90.315874
2913.000000	90.677057
2912.000000	91.006022
2911.000000	91.300596
2910.000000	91.561298
2909.000000	91.791104
2908.000000	91.994423
2907.000000	92.176227
2906.000000	92.341082
2905.000000	92.492103
2904.000000	92.631212
2903.000000	92.761063
2902.000000	92.886076
2901.000000	93.010600
2900.000000	93.136099
2899.000000	93.260757
2898.000000	93.381613
2897.000000	93.496656
2896.000000	93.605573
2895.000000	93.709495
2894.000000	93.810144
2893.000000	93.908583
2892.000000	94.004667
2891.000000	94.097626
2890.000000	94.186641
2889.000000	94.270450
2888.000000	94.347104
2887.000000	94.414864
2886.000000	94.473188
2885.000000	94.522496
2884.000000	94.563316
2883.000000	94.595943
2882.000000	94.620269
2881.000000	94.635333
2880.000000	94.639321
2879.000000	94.630413
2878.000000	94.607242
2877.000000	94.568355
2876.000000	94.512032
2875.000000	94.437169
2874.000000	94.343583
2873.000000	94.230608
2872.000000	94.095670
2871.000000	93.934746
2870.000000	93.744050
2869.000000	93.521511
2868.000000	93.268431
2867.000000	92.991651
2866.000000	92.704618
2865.000000	92.425879
2864.000000	92.176070
2863.000000	91.974782
2862.000000	91.837536
2861.000000	91.772370
2860.000000	91.778163
2859.000000	91.845813
2858.000000	91.961433
2857.000000	92.109855
2856.000000	92.278034
2855.000000	92.458119
2854.000000	92.648502
2853.000000	92.852278
2852.000000	93.074801
2851.000000	93.321656
2850.000000	93.596121
2849.000000	93.895970
2848.000000	94.212145
2847.000000	94.531124
2846.000000	94.839378
2845.000000	95.126585
2844.000000	95.386863
2843.000000	95.618620
2842.000000	95.823412
2841.000000	96.004240
2840.000000	96.164584
2839.000000	96.308242
2838.000000	96.438651
2837.000000	96.557593
2836.000000	96.665289
2835.000000	96.762249
2834.000000	96.850343
2833.000000	96.931706
2832.000000	97.007518
2831.000000	97.078455
2830.000000	97.145448
2829.000000	97.209219
2828.000000	97.269811
2827.000000	97.327314
2826.000000	97.382418
2825.000000	97.435648
2824.000000	97.486704
2823.000000	97.535238
2822.000000	97.581611
2821.000000	97.626279
2820.000000	97.669152
2819.000000	97.710170
2818.000000	97.749782
2817.000000	97.788166
2816.000000	97.824697
2815.000000	97.858898
2814.000000	97.891218
2813.000000	97.922183
2812.000000	97.951537
2811.000000	97.979031
2810.000000	98.005336
2809.000000	98.031275
2808.000000	98.056745
2807.000000	98.081211
2806.000000	98.104782
2805.000000	98.127986
2804.000000	98.150983
2803.000000	98.173696
2802.000000	98.196230
2801.000000	98.218490
2800.000000	98.239954
2799.000000	98.260482
2798.000000	98.280848
2797.000000	98.301801
2796.000000	98.323179
2795.000000	98.344588
2794.000000	98.366361
2793.000000	98.389209
2792.000000	98.413559
2791.000000	98.439966
2790.000000	98.469553
2789.000000	98.503207
2788.000000	98.540681
2787.000000	98.581000
2786.000000	98.623201
2785.000000	98.666162
2784.000000	98.708479
2783.000000	98.749279
2782.000000	98.788680
2781.000000	98.826864
2780.000000	98.863332
2779.000000	98.897647
2778.000000	98.930203
2777.000000	98.961560
2776.000000	98.991705
2775.000000	99.020636
2774.000000	99.048966
2773.000000	99.077144
2772.000000	99.104717
2771.000000	99.131136
2770.000000	99.156739
2769.000000	99.182164
2768.000000	99.207370
2767.000000	99.231971
2766.000000	99.256027
2765.000000	99.279810
2764.000000	99.303312
2763.000000	99.326608
2762.000000	99.350140
2761.000000	99.373978
2760.000000	99.397397
2759.000000	99.419818
2758.000000	99.441606
2757.000000	99.463317
2756.000000	99.484802
2755.000000	99.505700
2754.000000	99.526202
2753.000000	99.546620
2752.000000	99.566753
2751.000000	99.586336
2750.000000	99.605575
2749.000000	99.624680
2748.000000	99.643437
2747.000000	99.661767
2746.000000	99.680050
2745.000000	99.698391
2744.000000	99.716278
2743.000000	99.733517
2742.000000	99.750733
2741.000000	99.768389
2740.000000	99.786111
2739.000000	99.803566
2738.000000	99.821134
2737.000000	99.839042
2736.000000	99.856695
2735.000000	99.873628
2734.000000	99.890312
2733.000000	99.907256
2732.000000	99.924158
2731.000000	99.940722
2730.000000	99.957446
2729.000000	99.974743
2728.000000	99.992028
2727.000000	100.008562
2726.000000	100.024549
2725.000000	100.040559
2724.000000	100.056595
2723.000000	100.072519
2722.000000	100.088699
2721.000000	100.105351
2720.000000	100.121886
2719.000000	100.137734
2718.000000	100.153221
2717.000000	100.168839
2716.000000	100.184295
2715.000000	100.198992
2714.000000	100.212844
2713.000000	100.225916
2712.000000	100.237996
2711.000000	100.249257
2710.000000	100.260658
2709.000000	100.272912
2708.000000	100.285718
2707.000000	100.298654
2706.000000	100.312086
2705.000000	100.326555
2704.000000	100.342117
2703.000000	100.359021
2702.000000	100.378103
2701.000000	100.399643
2700.000000	100.422617
2699.000000	100.445924
2698.000000	100.469546
2697.000000	100.493650
2696.000000	100.517486
2695.000000	100.540228
2694.000000	100.562174
2693.000000	100.584081
2692.000000	100.605924
2691.000000	100.627278
2690.000000	100.648273
2689.000000	100.669230
2688.000000	100.689906
2687.000000	100.709988
2686.000000	100.729766
2685.000000	100.749472
2684.000000	100.768576
2683.000000	100.786602
2682.000000	100.804091
2681.000000	100.821897
2680.000000	100.840052
2679.000000	100.858071
2678.000000	100.875803
2677.000000	100.893234
2676.000000	100.910031
2675.000000	100.926003
2674.000000	100.941471
2673.000000	100.956587
2672.000000	100.970961
2671.000000	100.984594
2670.000000	100.998402
2669.000000	101.013109
2668.000000	101.028335
2667.000000	101.043438
2666.000000	101.058464
2665.000000	101.073576
2664.000000	101.088394
2663.000000	101.102710
2662.000000	101.117034
2661.000000	101.131701
2660.000000	101.146249
2659.000000	101.160468
2658.000000	101.175212
2657.000000	101.191325
2656.000000	101.208546
2655.000000	101.226287
2654.000000	101.244682
2653.000000	101.264013
2652.000000	101.283891
2651.000000	101.303845
2650.000000	101.323991
2649.000000	101.344342
2648.000000	101.364257
2647.000000	101.383370
2646.000000	101.402264
2645.000000	101.421427
2644.000000	101.440372
2643.000000	101.458592
2642.000000	101.476513
2641.000000	101.494684
2640.000000	101.512828
2639.000000	101.530532
2638.000000	101.548013
2637.000000	101.565423
2636.000000	101.582275
2635.000000	101.598370
2634.000000	101.614384
2633.000000	101.630710
2632.000000	101.646644
2631.000000	101.661587
2630.000000	101.676083
2629.000000	101.690759
2628.000000	101.705219
2627.000000	101.718943
2626.000000	101.732363
2625.000000	101.746059
2624.000000	101.759808
2623.000000	101.773368
2622.000000	101.787267
2621.000000	101.801805
2620.000000	101.816192
2619.000000	101.829728
2618.000000	101.842951
2617.000000	101.856574
2616.000000	101.870156
2615.000000	101.882896
2614.000000	101.894938
2613.000000	101.906823
2612.000000	101.918438
2611.000000	101.929505
2610.000000	101.940306
2609.000000	101.950946
2608.000000	101.960710
2607.000000	101.969136
2606.000000	101.976876
2605.000000	101.984542
2604.000000	101.991636
2603.000000	101.997622
2602.000000	102.003081
2601.000000	102.008673
2600.000000	102.013891
2599.000000	102.018071
2598.000000	102.021862
2597.000000	102.026474
2596.000000	102.032196
2595.000000	102.038847
2594.000000	102.046983
2593.000000	102.057480
2592.000000	102.070461
2591.000000	102.085655
2590.000000	102.103277
2589.000000	102.123570
2588.000000	102.146096
2587.000000	102.170363
2586.000000	102.196535
2585.000000	102.224723
2584.000000	102.254318
2583.000000	102.284762
2582.000000	102.316097
2581.000000	102.347966
2580.000000	102.379059
2579.000000	102.408516
2578.000000	102.436922
2577.000000	102.464913
2576.000000	102.491780
2575.000000	102.516527
2574.000000	102.539408
2573.000000	102.561295
2572.000000	102.582350
2571.000000	102.602420
2570.000000	102.621918
2569.000000	102.641230
2568.000000	102.659964
2567.000000	102.677751
2566.000000	102.695034
2565.000000	102.712151
2564.000000	102.728522
2563.000000	102.743663
2562.000000	102.758103
2561.000000	102.772397
2560.000000	102.786228
2559.000000	102.799466
2558.000000	102.812988
2557.000000	102.827322
2556.000000	102.841533
2555.000000	102.854641
2554.000000	102.867191
2553.000000	102.880165
2552.000000	102.893336
2551.000000	102.905975
2550.000000	102.918351
2549.000000	102.931193
2548.000000	102.944374
2547.000000	102.957328
2546.000000	102.970110
2545.000000	102.982973
2544.000000	102.995623
2543.000000	103.007934
2542.000000	103.020591
2541.000000	103.034015
2540.000000	103.047461
2539.000000	103.060236
2538.000000	103.072904
2537.000000	103.086261
2536.000000	103.100021
2535.000000	103.113588
2534.000000	103.127178
2533.000000	103.141040
2532.000000	103.154496
2531.000000	103.166963
2530.000000	103.179072
2529.000000	103.191644
2528.000000	103.204382
2527.000000	103.216693
2526.000000	103.228874
2525.000000	103.241346
2524.000000	103.253637
2523.000000	103.265284
2522.000000	103.276869
2521.000000	103.288993
2520.000000	103.301119
2519.000000	103.312590
2518.000000	103.323887
2517.000000	103.335676
2516.000000	103.347529
2515.000000	103.358824
2514.000000	103.370028
2513.000000	103.381826
2512.000000	103.393777
2511.000000	103.405056
2510.000000	103.415746
2509.000000	103.426290
2508.000000	103.436465
2507.000000	103.446046
2506.000000	103.455644
2505.000000	103.465802
2504.000000	103.476130
2503.000000	103.486346
2502.000000	103.497182
2501.000000	103.509104
2500.000000	103.521207
2499.000000	103.532579
2498.000000	103.543797
2497.000000	103.555799
2496.000000	103.568268
2495.000000	103.580436
2494.000000	103.592564
2493.000000	103.605271
2492.000000	103.618231
2491.000000	103.630799
2490.000000	103.643135
2489.000000	103.655562
2488.000000	103.667712
2487.000000	103.679492
2486.000000	103.691889
2485.000000	103.705556
2484.000000	103.719489
2483.000000	103.732413
2482.000000	103.744537
2481.000000	103.756726
2480.000000	103.768883
2479.000000	103.780529
2478.000000	103.792013
2477.000000	103.803771
2476.000000	103.815189
2475.000000	103.825546
2474.000000	103.835319
2473.000000	103.845300
2472.000000	103.855246
2471.000000	103.864608
2470.000000	103.873723
2469.000000	103.883027
2468.000000	103.891974
2467.000000	103.899980
2466.000000	103.907602
2465.000000	103.915541
2464.000000	103.923417
2463.000000	103.930736
2462.000000	103.938101
2461.000000	103.946166
2460.000000	103.954326
2459.000000	103.961788
2458.000000	103.969060
2457.000000	103.977037
2456.000000	103.985463
2455.000000	103.993616
2454.000000	104.001639
2453.000000	104.009930
2452.000000	104.018066
2451.000000	104.025627
2450.000000	104.033232
2449.000000	104.041532
2448.000000	104.050005
2447.000000	104.057906
2446.000000	104.065489
2445.000000	104.073164
2444.000000	104.080507
2443.000000	104.087292
2442.000000	104.094402
2441.000000	104.102405
2440.000000	104.110330
2439.000000	104.117210
2438.000000	104.123718
2437.000000	104.130900
2436.000000	104.138413
2435.000000	104.145457
2434.000000	104.152337
2433.000000	104.159536
2432.000000	104.166312
2431.000000	104.171796
2430.000000	104.176589
2429.000000	104.181756
2428.000000	104.187197
2427.000000	104.192541
2426.000000	104.198597
2425.000000	104.206209
2424.000000	104.214530
2423.000000	104.222104
2422.000000	104.228946
2421.000000	104.235986
2420.000000	104.243206
2419.000000	104.249897
2418.000000	104.256091
2417.000000	104.262253
2416.000000	104.268170
2415.000000	104.273528
2414.000000	104.278905
2413.000000	104.284876
2412.000000	104.290896
2411.000000	104.296325
2410.000000	104.301747
2409.000000	104.307963
2408.000000	104.314586
2407.000000	104.320966
2406.000000	104.327520
2405.000000	104.334761
2404.000000	104.341968
2403.000000	104.348371
2402.000000	104.354726
2401.000000	104.362143
2400.000000	104.370166
2399.000000	104.377599
2398.000000	104.384522
2397.000000	104.391976
2396.000000	104.400278
2395.000000	104.409041
2394.000000	104.418147
2393.000000	104.427351
2392.000000	104.435664
2391.000000	104.442405
2390.000000	104.447975
2389.000000	104.452254
2388.000000	104.453198
2387.000000	104.448418
2386.000000	104.437087
2385.000000	104.418578
2384.000000	104.390001
2383.000000	104.346745
2382.000000	104.284814
2381.000000	104.201111
2380.000000	104.092318
2379.000000	103.955391
2378.000000	103.788980
2377.000000	103.593069
2376.000000	103.367863
2375.000000	103.114435
2374.000000	102.835999
2373.000000	102.537280
2372.000000	102.223277
2371.000000	101.900056
2370.000000	101.576077
2369.000000	101.261165
2368.000000	100.964332
2367.000000	100.693550
2366.000000	100.456819
2365.000000	100.261897
2364.000000	100.115228
2363.000000	100.022131
2362.000000	99.987368
2361.000000	100.014177
2360.000000	100.103290
2359.000000	100.254102
2358.000000	100.466201
2357.000000	100.738275
2356.000000	101.066104
2355.000000	101.443312
2354.000000	101.862972
2353.000000	102.313040
2352.000000	102.764011
2351.000000	103.159325
2350.000000	103.424991
2349.000000	103.501651
2348.000000	103.380024
2347.000000	103.109618
2346.000000	102.770243
2345.000000	102.430732
2344.000000	102.127766
2343.000000	101.873349
2342.000000	101.670218
2341.000000	101.517384
2340.000000	101.409143
2339.000000	101.337426
2338.000000	101.296256
2337.000000	101.282146
2336.000000	101.291677
2335.000000	101.321397
2334.000000	101.369270
2333.000000	101.434351
2332.000000	101.515792
2331.000000	101.613327
2330.000000	101.727129
2329.000000	101.855481
2328.000000	101.993819
2327.000000	102.137559
2326.000000	102.284661
2325.000000	102.434313
2324.000000	102.584878
2323.000000	102.734677
2322.000000	102.883102
2321.000000	103.029195
2320.000000	103.170555
2319.000000	103.305198
2318.000000	103.433085
2317.000000	103.554401
2316.000000	103.667980
2315.000000	103.773004
2314.000000	103.870575
2313.000000	103.961887
2312.000000	104.046368
2311.000000	104.123251
2310.000000	104.193342
2309.000000	104.257560
2308.000000	104.315367
2307.000000	104.366389
2306.000000	104.412015
2305.000000	104.453616
2304.000000	104.490738
2303.000000	104.522797
2302.000000	104.550996
2301.000000	104.576798
2300.000000	104.600110
2299.000000	104.620762
2298.000000	104.640080
2297.000000	104.659097
2296.000000	104.676779
2295.000000	104.692016
2294.000000	104.705821
2293.000000	104.719618
2292.000000	104.732904
2291.000000	104.744628
2290.000000	104.755408
2289.000000	104.766339
2288.000000	104.776925
2287.000000	104.786160
2286.000000	104.794284
2285.000000	104.801553
2284.000000	104.806685
2283.000000	104.808532
2282.000000	104.808029
2281.000000	104.806599
2280.000000	104.804026
2279.000000	104.799755
2278.000000	104.794893
2277.000000	104.790880
2276.000000	104.787429
2275.000000	104.783631
2274.000000	104.779846
2273.000000	104.776721
2272.000000	104.773710
2271.000000	104.770327
2270.000000	104.767472
2269.000000	104.765757
2268.000000	104.764051
2267.000000	104.761443
2266.000000	104.759077
2265.000000	104.758166
2264.000000	104.757790
2263.000000	104.756612
2262.000000	104.755199
2261.000000	104.754651
2260.000000	104.754499
2259.000000	104.753953
2258.000000	104.753758
2257.000000	104.754820
2256.000000	104.756464
2255.000000	104.757973
2254.000000	104.760216
2253.000000	104.763832
2252.000000	104.767471
2251.000000	104.769958
2250.000000	104.772500
2249.000000	104.776624
2248.000000	104.781533
2247.000000	104.785741
2246.000000	104.789752
2245.000000	104.794833
2244.000000	104.800624
2243.000000	104.806212
2242.000000	104.812157
2241.000000	104.819224
2240.000000	104.826531
2239.000000	104.833084
2238.000000	104.839726
2237.000000	104.847480
2236.000000	104.855423
2235.000000	104.862356
2234.000000	104.869015
2233.000000	104.876460
2232.000000	104.883823
2231.000000	104.889910
2230.000000	104.895517
2229.000000	104.901883
2228.000000	104.908330
2227.000000	104.913685
2226.000000	104.918569
2225.000000	104.924018
2224.000000	104.929289
2223.000000	104.933300
2222.000000	104.936804
2221.000000	104.940917
2220.000000	104.944923
2219.000000	104.947770
2218.000000	104.950250
2217.000000	104.953481
2216.000000	104.956733
2215.000000	104.958979
2214.000000	104.961076
2213.000000	104.964154
2212.000000	104.967367
2211.000000	104.969512
2210.000000	104.971339
2209.000000	104.973983
2208.000000	104.976678
2207.000000	104.978307
2206.000000	104.979647
2205.000000	104.981786
2204.000000	104.983919
2203.000000	104.985058
2202.000000	104.986278
2201.000000	104.988855
2200.000000	104.991767
2199.000000	104.993460
2198.000000	104.994527
2197.000000	104.996251
2196.000000	104.998073
2195.000000	104.998926
2194.000000	104.999461
2193.000000	105.000547
2192.000000	105.001180
2191.000000	105.000331
2190.000000	104.999243
2189.000000	104.999433
2188.000000	105.000039
2187.000000	104.999589
2186.000000	104.998715
2185.000000	104.998605
2184.000000	104.998482
2183.000000	104.997204
2182.000000	104.995712
2181.000000	104.995323
2180.000000	104.995202
2179.000000	104.994044
2178.000000	104.992597
2177.000000	104.991963
2176.000000	104.990994
2175.000000	104.987698
2174.000000	104.981428
2173.000000	104.971690
2172.000000	104.957578
2171.000000	104.941491
2170.000000	104.930739
2169.000000	104.931359
2168.000000	104.941524
2167.000000	104.954142
2166.000000	104.964326
2165.000000	104.971276
2164.000000	104.975015
2163.000000	104.975539
2162.000000	104.974368
2161.000000	104.973313
2160.000000	104.972116
2159.000000	104.969934
2158.000000	104.967985
2157.000000	104.967883
2156.000000	104.968621
2155.000000	104.968147
2154.000000	104.966741
2153.000000	104.965931
2152.000000	104.965400
2151.000000	104.963977
2150.000000	104.962421
2149.000000	104.962145
2148.000000	104.962376
2147.000000	104.961585
2146.000000	104.960508
2145.000000	104.960663
2144.000000	104.961105
2143.000000	104.959838
2142.000000	104.957379
2141.000000	104.955727
2140.000000	104.954772
2139.000000	104.952920
2138.000000	104.950451
2137.000000	104.949104
2136.000000	104.948938
2135.000000	104.948539
2134.000000	104.947739
2133.000000	104.947413
2132.000000	104.947198
2131.000000	104.946058
2130.000000	104.944483
2129.000000	104.943666
2128.000000	104.943247
2127.000000	104.942206
2126.000000	104.941105
2125.000000	104.941084
2124.000000	104.941600
2123.000000	104.941491
2122.000000	104.941305
2121.000000	104.942240
2120.000000	104.943775
2119.000000	104.944603
2118.000000	104.944942
2117.000000	104.945826
2116.000000	104.947242
2115.000000	104.948989
2114.000000	104.952088
2113.000000	104.957236
2112.000000	104.963159
2111.000000	104.968464
2110.000000	104.973711
2109.000000	104.979792
2108.000000	104.985946
2107.000000	104.991379
2106.000000	104.997034
2105.000000	105.003736
2104.000000	105.010395
2103.000000	105.016044
2102.000000	105.021688
2101.000000	105.028119
2100.000000	105.034099
2099.000000	105.038815
2098.000000	105.043867
2097.000000	105.050610
2096.000000	105.057852
2095.000000	105.064306
2094.000000	105.070704
2093.000000	105.077313
2092.000000	105.082375
2091.000000	105.085612
2090.000000	105.090250
2089.000000	105.098583
2088.000000	105.108433
2087.000000	105.116985
2086.000000	105.125032
2085.000000	105.134155
2084.000000	105.142904
2083.000000	105.149579
2082.000000	105.155947
2081.000000	105.164266
2080.000000	105.173183
2079.000000	105.180462
2078.000000	105.187259
2077.000000	105.195745
2076.000000	105.204923
2075.000000	105.212873
2074.000000	105.220775
2073.000000	105.230614
2072.000000	105.241091
2071.000000	105.249905
2070.000000	105.257775
2069.000000	105.266072
2068.000000	105.272905
2067.000000	105.276318
2066.000000	105.279437
2065.000000	105.287541
2064.000000	105.301214
2063.000000	105.316631
2062.000000	105.331311
2061.000000	105.345383
2060.000000	105.358495
2059.000000	105.369797
2058.000000	105.380241
2057.000000	105.391270
2056.000000	105.402202
2055.000000	105.411972
2054.000000	105.421872
2053.000000	105.433304
2052.000000	105.444714
2051.000000	105.454168
2050.000000	105.462932
2049.000000	105.472945
2048.000000	105.482936
2047.000000	105.490762
2046.000000	105.497289
2045.000000	105.504100
2044.000000	105.509869
2043.000000	105.513388
2042.000000	105.517762
2041.000000	105.526801
2040.000000	105.539055
2039.000000	105.549977
2038.000000	105.558209
2037.000000	105.565318
2036.000000	105.571335
2035.000000	105.575270
2034.000000	105.578039
2033.000000	105.579974
2032.000000	105.577581
2031.000000	105.568486
2030.000000	105.558385
2029.000000	105.557208
2028.000000	105.568355
2027.000000	105.586207
2026.000000	105.603519
2025.000000	105.616788
2024.000000	105.625169
2023.000000	105.629203
2022.000000	105.630792
2021.000000	105.630729
2020.000000	105.627047
2019.000000	105.619661
2018.000000	105.615092
2017.000000	105.621552
2016.000000	105.639623
2015.000000	105.662044
2014.000000	105.682045
2013.000000	105.697647
2012.000000	105.708907
2011.000000	105.716273
2010.000000	105.722043
2009.000000	105.729035
2008.000000	105.737121
2007.000000	105.744232
2006.000000	105.750323
2005.000000	105.756839
2004.000000	105.763031
2003.000000	105.766753
2002.000000	105.768419
2001.000000	105.770305
2000.000000	105.772607
1999.000000	105.774092
1998.000000	105.775510
1997.000000	105.777230
1996.000000	105.773850
1995.000000	105.757475
1994.000000	105.728893
1993.000000	105.701371
1992.000000	105.690028
1991.000000	105.698773
1990.000000	105.718890
1989.000000	105.738369
1988.000000	105.750962
1987.000000	105.757621
1986.000000	105.761565
1985.000000	105.763423
1984.000000	105.761599
1983.000000	105.756147
1982.000000	105.749792
1981.000000	105.744500
1980.000000	105.739335
1979.000000	105.732890
1978.000000	105.725675
1977.000000	105.718549
1976.000000	105.710895
1975.000000	105.702171
1974.000000	105.693556
1973.000000	105.685864
1972.000000	105.676681
1971.000000	105.661231
1970.000000	105.636463
1969.000000	105.604922
1968.000000	105.575495
1967.000000	105.558664
1966.000000	105.557868
1965.000000	105.565193
1964.000000	105.566727
1963.000000	105.551008
1962.000000	105.512447
1961.000000	105.453698
1960.000000	105.391333
1959.000000	105.353351
1958.000000	105.358698
1957.000000	105.397533
1956.000000	105.439614
1955.000000	105.463164
1954.000000	105.468176
1953.000000	105.463126
1952.000000	105.451238
1951.000000	105.433926
1950.000000	105.416574
1949.000000	105.403094
1948.000000	105.390036
1947.000000	105.370350
1946.000000	105.338648
1945.000000	105.292951
1944.000000	105.240381
1943.000000	105.202122
1942.000000	105.200186
1941.000000	105.232846
1940.000000	105.272414
1939.000000	105.293225
1938.000000	105.293270
1937.000000	105.284066
1936.000000	105.271323
1935.000000	105.254813
1934.000000	105.237575
1933.000000	105.223657
1932.000000	105.211362
1931.000000	105.197164
1930.000000	105.182393
1929.000000	105.169360
1928.000000	105.154470
1927.000000	105.130303
1926.000000	105.092164
1925.000000	105.042019
1924.000000	104.990983
1923.000000	104.954404
1922.000000	104.932570
1921.000000	104.899343
1920.000000	104.829798
1919.000000	104.743333
1918.000000	104.697164
1917.000000	104.724035
1916.000000	104.793511
1915.000000	104.847996
1914.000000	104.860101
1913.000000	104.839024
1912.000000	104.799515
1911.000000	104.750523
1910.000000	104.705582
1909.000000	104.678406
1908.000000	104.666696
1907.000000	104.656287
1906.000000	104.640385
1905.000000	104.621874
1904.000000	104.600784
1903.000000	104.574157
1902.000000	104.545723
1901.000000	104.521939
1900.000000	104.499947
1899.000000	104.470927
1898.000000	104.433422
1897.000000	104.394325
1896.000000	104.360732
1895.000000	104.337882
1894.000000	104.326290
1893.000000	104.311984
1892.000000	104.272774
1891.000000	104.209394
1890.000000	104.158809
1889.000000	104.157225
1888.000000	104.197135
1887.000000	104.239135
1886.000000	104.258689
1885.000000	104.261266
1884.000000	104.257978
1883.000000	104.250395
1882.000000	104.239789
1881.000000	104.230782
1880.000000	104.222313
1879.000000	104.209450
1878.000000	104.194554
1877.000000	104.183828
1876.000000	104.175128
1875.000000	104.160818
1874.000000	104.135233
1873.000000	104.084983
1872.000000	103.985565
1871.000000	103.834956
1870.000000	103.686060
1869.000000	103.615398
1868.000000	103.651834
1867.000000	103.754271
1866.000000	103.859895
1865.000000	103.932962
1864.000000	103.966697
1863.000000	103.967142
1862.000000	103.949069
1861.000000	103.929850
1860.000000	103.914915
1859.000000	103.898507
1858.000000	103.880537
1857.000000	103.868008
1856.000000	103.859043
1855.000000	103.843511
1854.000000	103.821453
1853.000000	103.802017
1852.000000	103.782506
1851.000000	103.749556
1850.000000	103.701707
1849.000000	103.642631
1848.000000	103.546743
1847.000000	103.370229
1846.000000	103.124627
1845.000000	102.915048
1844.000000	102.865151
1843.000000	102.999531
1842.000000	103.218754
1841.000000	103.391537
1840.000000	103.457407
1839.000000	103.442906
1838.000000	103.404090
1837.000000	103.373038
1836.000000	103.351367
1835.000000	103.326971
1834.000000	103.278347
1833.000000	103.176639
1832.000000	103.015480
1831.000000	102.845568
1830.000000	102.748772
1829.000000	102.754344
1828.000000	102.800268
1827.000000	102.805061
1826.000000	102.763569
1825.000000	102.739915
1824.000000	102.775332
1823.000000	102.841485
1822.000000	102.886994
1821.000000	102.892571
1820.000000	102.867778
1819.000000	102.825240
1818.000000	102.778016
1817.000000	102.741129
1816.000000	102.715373
1815.000000	102.680781
1814.000000	102.619154
1813.000000	102.534843
1812.000000	102.447847
1811.000000	102.377976
1810.000000	102.338451
1809.000000	102.329049
1808.000000	102.329621
1807.000000	102.313206
1806.000000	102.268203
1805.000000	102.195975
1804.000000	102.092900
1803.000000	101.958346
1802.000000	101.819629
1801.000000	101.721471
1800.000000	101.683109
1799.000000	101.684500
1798.000000	101.691869
1797.000000	101.667808
1796.000000	101.560792
1795.000000	101.335603
1794.000000	101.040210
1793.000000	100.807216
1792.000000	100.751217
1791.000000	100.870373
1790.000000	101.058977
1789.000000	101.197195
1788.000000	101.220346
1787.000000	101.136918
1786.000000	101.011752
1785.000000	100.916213
1784.000000	100.869274
1783.000000	100.833696
1782.000000	100.777393
1781.000000	100.715079
1780.000000	100.675793
1779.000000	100.656347
1778.000000	100.624372
1777.000000	100.537591
1776.000000	100.343679
1775.000000	100.010489
1774.000000	99.603597
1773.000000	99.296491
1772.000000	99.233048
1771.000000	99.380752
1770.000000	99.571830
1769.000000	99.690411
1768.000000	99.764005
1767.000000	99.859954
1766.000000	99.953865
1765.000000	99.948970
1764.000000	99.803608
1763.000000	99.596170
1762.000000	99.455357
1761.000000	99.438502
1760.000000	99.483969
1759.000000	99.484607
1758.000000	99.406313
1757.000000	99.315598
1756.000000	99.274238
1755.000000	99.231742
1754.000000	99.069838
1753.000000	98.758165
1752.000000	98.419618
1751.000000	98.215813
1750.000000	98.196701
1749.000000	98.286317
1748.000000	98.384026
1747.000000	98.438704
1746.000000	98.441297
1745.000000	98.394646
1744.000000	98.302157
1743.000000	98.162141
1742.000000	97.974545
1741.000000	97.777127
1740.000000	97.653824
1739.000000	97.641516
1738.000000	97.616472
1737.000000	97.358896
1736.000000	96.809009
1735.000000	96.223591
1734.000000	95.984717
1733.000000	96.234875
1732.000000	96.758280
1731.000000	97.227989
1730.000000	97.496177
1729.000000	97.616723
1728.000000	97.675542
1727.000000	97.693056
1726.000000	97.665910
1725.000000	97.615203
1724.000000	97.567374
1723.000000	97.515242
1722.000000	97.399082
1721.000000	97.119840
1720.000000	96.620497
1719.000000	96.006484
1718.000000	95.545319
1717.000000	95.464541
1716.000000	95.745627
1715.000000	96.167388
1714.000000	96.531544
1713.000000	96.779086
1712.000000	96.915595
1711.000000	96.937929
1710.000000	96.860794
1709.000000	96.726177
1708.000000	96.553130
1707.000000	96.349298
1706.000000	96.176295
1705.000000	96.087506
1704.000000	95.969752
1703.000000	95.599501
1702.000000	94.962107
1701.000000	94.388273
1700.000000	94.212020
1699.000000	94.364135
1698.000000	94.484081
1697.000000	94.415964
1696.000000	94.402103
1695.000000	94.729574
1694.000000	95.340227
1693.000000	95.899390
1692.000000	96.166036
1691.000000	96.179645
1690.000000	96.104348
1689.000000	95.980843
1688.000000	95.675085
1687.000000	95.070877
1686.000000	94.305353
1685.000000	93.766606
1684.000000	93.785917
1683.000000	94.322865
1682.000000	95.008621
1681.000000	95.498605
1680.000000	95.708492
1679.000000	95.710776
1678.000000	95.547009
1677.000000	95.249429
1676.000000	94.958076
1675.000000	94.853429
1674.000000	94.950063
1673.000000	95.058594
1672.000000	94.998119
1671.000000	94.793052
1670.000000	94.627363
1669.000000	94.647628
1668.000000	94.840604
1667.000000	95.064341
1666.000000	95.160882
1665.000000	95.066746
1664.000000	94.861641
1663.000000	94.707413
1662.000000	94.706992
1661.000000	94.819865
1660.000000	94.927644
1659.000000	94.949384
1658.000000	94.834783
1657.000000	94.465279
1656.000000	93.691843
1655.000000	92.580242
1654.000000	91.568725
1653.000000	91.219479
1652.000000	91.717879
1651.000000	92.657282
1650.000000	93.381681
1649.000000	93.534511
1648.000000	93.264792
1647.000000	92.974164
1646.000000	92.949394
1645.000000	93.206526
1644.000000	93.569272
1643.000000	93.838154
1642.000000	93.924188
1641.000000	93.861783
1640.000000	93.696651
1639.000000	93.391279
1638.000000	92.900716
1637.000000	92.337275
1636.000000	91.970495
1635.000000	92.000260
1634.000000	92.358299
1633.000000	92.773126
1632.000000	93.006752
1631.000000	93.000919
1630.000000	92.838288
1629.000000	92.630041
1628.000000	92.439420
1627.000000	92.258344
1626.000000	92.033987
1625.000000	91.740309
1624.000000	91.433656
1623.000000	91.213855
1622.000000	91.109025
1621.000000	91.007527
1620.000000	90.733127
1619.000000	90.217536
1618.000000	89.607860
1617.000000	89.177882
1616.000000	89.094030
1615.000000	89.258863
1614.000000	89.402830
1613.000000	89.329711
1612.000000	89.053319
1611.000000	88.712989
1610.000000	88.419474
1609.000000	88.209891
1608.000000	88.094315
1607.000000	88.076824
1606.000000	88.135542
1605.000000	88.229456
1604.000000	88.335180
1603.000000	88.453983
1602.000000	88.584220
1601.000000	88.711904
1600.000000	88.828970
1599.000000	88.938013
1598.000000	89.036503
1597.000000	89.115699
1596.000000	89.177567
1595.000000	89.235179
1594.000000	89.292673
1593.000000	89.339143
1592.000000	89.365436
1591.000000	89.374637
1590.000000	89.372941
1589.000000	89.360920
1588.000000	89.337716
1587.000000	89.306344
1586.000000	89.270932
1585.000000	89.232753
1584.000000	89.192815
1583.000000	89.157996
1582.000000	89.135413
1581.000000	89.100959
1580.000000	88.969583
1579.000000	88.640925
1578.000000	88.134200
1577.000000	87.671368
1576.000000	87.543640
1575.000000	87.834385
1574.000000	88.301813
1573.000000	88.587361
1572.000000	88.536275
1571.000000	88.289154
1570.000000	88.090098
1569.000000	88.059647
1568.000000	88.144177
1567.000000	88.220180
1566.000000	88.210411
1565.000000	88.108690
1564.000000	87.901753
1563.000000	87.487417
1562.000000	86.742747
1561.000000	85.741525
1560.000000	84.858594
1559.000000	84.532507
1558.000000	84.873537
1557.000000	85.568965
1556.000000	86.208705
1555.000000	86.638427
1554.000000	86.955402
1553.000000	87.259363
1552.000000	87.529768
1551.000000	87.722242
1550.000000	87.858153
1549.000000	87.971958
1548.000000	88.039865
1547.000000	88.014424
1546.000000	87.895324
1545.000000	87.718480
1544.000000	87.487808
1543.000000	87.164958
1542.000000	86.755790
1541.000000	86.403871
1540.000000	86.359227
1539.000000	86.787902
1538.000000	87.573654
1537.000000	88.346615
1536.000000	88.775433
1535.000000	88.842879
1534.000000	88.804029
1533.000000	88.891051
1532.000000	89.113176
1531.000000	89.329560
1530.000000	89.425526
1529.000000	89.380744
1528.000000	89.239072
1527.000000	89.074616
1526.000000	88.943241
1525.000000	88.810638
1524.000000	88.570883
1523.000000	88.203903
1522.000000	87.877736
1521.000000	87.803603
1520.000000	87.991903
1519.000000	88.235824
1518.000000	88.350680
1517.000000	88.347238
1516.000000	88.336030
1515.000000	88.347541
1514.000000	88.324442
1513.000000	88.239949
1512.000000	88.119277
1511.000000	87.933215
1510.000000	87.559397
1509.000000	86.921676
1508.000000	86.155720
1507.000000	85.576256
1506.000000	85.430085
1505.000000	85.663131
1504.000000	85.934273
1503.000000	85.864378
1502.000000	85.274216
1501.000000	84.204931
1500.000000	82.778845
