PE IR       SUBTECH     SPECTRUM    ASCII       PEDS        4.00        
   -1
TE110A_049_80K_AFTER_115K_2MIN.ASC
20/05/14
13:44:09.00
20/05/14
13:44:09.00
Administrator
TE110A.Thursday, May 14 2020, 001.
1000.000000
#HDR
-1
-1
#GR
cm-1
A
1.0
0.0
6000.000000
-2.000000
2501
8
1.293330
1.243280
#DATA
6000.000000	1.281353
5998.000000	1.281132
5996.000000	1.281013
5994.000000	1.281036
5992.000000	1.280829
5990.000000	1.280535
5988.000000	1.280688
5986.000000	1.281246
5984.000000	1.281458
5982.000000	1.281284
5980.000000	1.281108
5978.000000	1.281394
5976.000000	1.281695
5974.000000	1.281416
5972.000000	1.280429
5970.000000	1.279836
5968.000000	1.279695
5966.000000	1.280041
5964.000000	1.280381
5962.000000	1.280435
5960.000000	1.280288
5958.000000	1.279981
5956.000000	1.279748
5954.000000	1.279862
5952.000000	1.279869
5950.000000	1.279987
5948.000000	1.280132
5946.000000	1.280458
5944.000000	1.280636
5942.000000	1.280352
5940.000000	1.280022
5938.000000	1.279580
5936.000000	1.279684
5934.000000	1.279738
5932.000000	1.279815
5930.000000	1.279818
5928.000000	1.279641
5926.000000	1.279542
5924.000000	1.279348
5922.000000	1.279284
5920.000000	1.279550
5918.000000	1.279882
5916.000000	1.279821
5914.000000	1.279442
5912.000000	1.279065
5910.000000	1.278940
5908.000000	1.279112
5906.000000	1.279433
5904.000000	1.279664
5902.000000	1.279707
5900.000000	1.279704
5898.000000	1.279452
5896.000000	1.279399
5894.000000	1.279225
5892.000000	1.278953
5890.000000	1.278835
5888.000000	1.279003
5886.000000	1.279289
5884.000000	1.279262
5882.000000	1.278979
5880.000000	1.278946
5878.000000	1.279075
5876.000000	1.279130
5874.000000	1.279268
5872.000000	1.279080
5870.000000	1.278686
5868.000000	1.278314
5866.000000	1.278263
5864.000000	1.278258
5862.000000	1.277780
5860.000000	1.277268
5858.000000	1.277356
5856.000000	1.277684
5854.000000	1.278061
5852.000000	1.278245
5850.000000	1.278356
5848.000000	1.278255
5846.000000	1.278180
5844.000000	1.278219
5842.000000	1.278314
5840.000000	1.278344
5838.000000	1.278264
5836.000000	1.278160
5834.000000	1.278147
5832.000000	1.277966
5830.000000	1.277915
5828.000000	1.277803
5826.000000	1.277888
5824.000000	1.277930
5822.000000	1.277910
5820.000000	1.277920
5818.000000	1.277916
5816.000000	1.277905
5814.000000	1.277962
5812.000000	1.277985
5810.000000	1.278039
5808.000000	1.277886
5806.000000	1.277725
5804.000000	1.277702
5802.000000	1.277627
5800.000000	1.277419
5798.000000	1.277202
5796.000000	1.277447
5794.000000	1.277556
5792.000000	1.277574
5790.000000	1.277444
5788.000000	1.277304
5786.000000	1.277263
5784.000000	1.277152
5782.000000	1.277096
5780.000000	1.276959
5778.000000	1.276806
5776.000000	1.277015
5774.000000	1.277316
5772.000000	1.277530
5770.000000	1.277343
5768.000000	1.277165
5766.000000	1.277075
5764.000000	1.277217
5762.000000	1.277247
5760.000000	1.277008
5758.000000	1.276714
5756.000000	1.276676
5754.000000	1.276836
5752.000000	1.276803
5750.000000	1.276748
5748.000000	1.276871
5746.000000	1.276875
5744.000000	1.276682
5742.000000	1.276260
5740.000000	1.276013
5738.000000	1.276008
5736.000000	1.276208
5734.000000	1.276433
5732.000000	1.276375
5730.000000	1.276083
5728.000000	1.275927
5726.000000	1.276110
5724.000000	1.276141
5722.000000	1.276029
5720.000000	1.276080
5718.000000	1.276406
5716.000000	1.276506
5714.000000	1.276253
5712.000000	1.276071
5710.000000	1.276136
5708.000000	1.276108
5706.000000	1.275861
5704.000000	1.275777
5702.000000	1.275787
5700.000000	1.275703
5698.000000	1.275558
5696.000000	1.275489
5694.000000	1.275630
5692.000000	1.275785
5690.000000	1.275705
5688.000000	1.275551
5686.000000	1.275411
5684.000000	1.275556
5682.000000	1.275693
5680.000000	1.275663
5678.000000	1.275318
5676.000000	1.274895
5674.000000	1.274585
5672.000000	1.274663
5670.000000	1.275044
5668.000000	1.275387
5666.000000	1.275372
5664.000000	1.275213
5662.000000	1.274960
5660.000000	1.274698
5658.000000	1.274572
5656.000000	1.274731
5654.000000	1.274946
5652.000000	1.274829
5650.000000	1.274519
5648.000000	1.274586
5646.000000	1.274796
5644.000000	1.274833
5642.000000	1.274793
5640.000000	1.274847
5638.000000	1.274947
5636.000000	1.274853
5634.000000	1.274788
5632.000000	1.274778
5630.000000	1.274887
5628.000000	1.274915
5626.000000	1.274719
5624.000000	1.274383
5622.000000	1.274109
5620.000000	1.274122
5618.000000	1.274295
5616.000000	1.274522
5614.000000	1.274727
5612.000000	1.274760
5610.000000	1.274400
5608.000000	1.274084
5606.000000	1.273858
5604.000000	1.273823
5602.000000	1.273889
5600.000000	1.274043
5598.000000	1.274190
5596.000000	1.274237
5594.000000	1.274067
5592.000000	1.273857
5590.000000	1.273672
5588.000000	1.273662
5586.000000	1.273826
5584.000000	1.273892
5582.000000	1.273912
5580.000000	1.273566
5578.000000	1.273147
5576.000000	1.272828
5574.000000	1.272977
5572.000000	1.273307
5570.000000	1.273363
5568.000000	1.273194
5566.000000	1.273090
5564.000000	1.273050
5562.000000	1.273062
5560.000000	1.273057
5558.000000	1.273212
5556.000000	1.273391
5554.000000	1.273307
5552.000000	1.273063
5550.000000	1.272957
5548.000000	1.273208
5546.000000	1.273487
5544.000000	1.273512
5542.000000	1.273380
5540.000000	1.273257
5538.000000	1.273314
5536.000000	1.273238
5534.000000	1.273108
5532.000000	1.272912
5530.000000	1.272892
5528.000000	1.272962
5526.000000	1.272990
5524.000000	1.273045
5522.000000	1.273204
5520.000000	1.273089
5518.000000	1.272697
5516.000000	1.272569
5514.000000	1.272732
5512.000000	1.272715
5510.000000	1.272272
5508.000000	1.272050
5506.000000	1.272374
5504.000000	1.272699
5502.000000	1.272701
5500.000000	1.272465
5498.000000	1.272241
5496.000000	1.271998
5494.000000	1.271859
5492.000000	1.271894
5490.000000	1.272089
5488.000000	1.272334
5486.000000	1.272447
5484.000000	1.272482
5482.000000	1.272179
5480.000000	1.271703
5478.000000	1.271346
5476.000000	1.271377
5474.000000	1.271780
5472.000000	1.272120
5470.000000	1.272141
5468.000000	1.271892
5466.000000	1.271546
5464.000000	1.271217
5462.000000	1.271111
5460.000000	1.271327
5458.000000	1.271529
5456.000000	1.271536
5454.000000	1.271510
5452.000000	1.271559
5450.000000	1.271450
5448.000000	1.271139
5446.000000	1.270976
5444.000000	1.270880
5442.000000	1.271054
5440.000000	1.271193
5438.000000	1.271233
5436.000000	1.271220
5434.000000	1.271173
5432.000000	1.271096
5430.000000	1.270983
5428.000000	1.271257
5426.000000	1.271598
5424.000000	1.271538
5422.000000	1.271252
5420.000000	1.271062
5418.000000	1.270796
5416.000000	1.270280
5414.000000	1.270017
5412.000000	1.270316
5410.000000	1.270884
5408.000000	1.271013
5406.000000	1.270904
5404.000000	1.270814
5402.000000	1.270813
5400.000000	1.270634
5398.000000	1.270159
5396.000000	1.269921
5394.000000	1.270155
5392.000000	1.270687
5390.000000	1.270752
5388.000000	1.270300
5386.000000	1.270195
5384.000000	1.270683
5382.000000	1.270971
5380.000000	1.270537
5378.000000	1.270024
5376.000000	1.270116
5374.000000	1.270634
5372.000000	1.270801
5370.000000	1.270625
5368.000000	1.270458
5366.000000	1.270437
5364.000000	1.270499
5362.000000	1.270406
5360.000000	1.270223
5358.000000	1.269783
5356.000000	1.269267
5354.000000	1.269391
5352.000000	1.270023
5350.000000	1.270329
5348.000000	1.269781
5346.000000	1.269300
5344.000000	1.269536
5342.000000	1.269829
5340.000000	1.269759
5338.000000	1.269791
5336.000000	1.270109
5334.000000	1.270223
5332.000000	1.269940
5330.000000	1.269635
5328.000000	1.269703
5326.000000	1.269958
5324.000000	1.270145
5322.000000	1.270072
5320.000000	1.269903
5318.000000	1.269885
5316.000000	1.269979
5314.000000	1.270122
5312.000000	1.270059
5310.000000	1.269782
5308.000000	1.269573
5306.000000	1.269676
5304.000000	1.269831
5302.000000	1.269734
5300.000000	1.269593
5298.000000	1.269637
5296.000000	1.269562
5294.000000	1.269328
5292.000000	1.269373
5290.000000	1.269670
5288.000000	1.269792
5286.000000	1.269576
5284.000000	1.269381
5282.000000	1.269409
5280.000000	1.269455
5278.000000	1.269493
5276.000000	1.269422
5274.000000	1.269355
5272.000000	1.269219
5270.000000	1.269122
5268.000000	1.268932
5266.000000	1.268734
5264.000000	1.268685
5262.000000	1.268871
5260.000000	1.269014
5258.000000	1.268815
5256.000000	1.268767
5254.000000	1.268905
5252.000000	1.268898
5250.000000	1.268687
5248.000000	1.268645
5246.000000	1.268850
5244.000000	1.268950
5242.000000	1.268869
5240.000000	1.268814
5238.000000	1.268808
5236.000000	1.268752
5234.000000	1.268736
5232.000000	1.268851
5230.000000	1.268901
5228.000000	1.268756
5226.000000	1.268675
5224.000000	1.268845
5222.000000	1.268969
5220.000000	1.268967
5218.000000	1.268863
5216.000000	1.268810
5214.000000	1.268758
5212.000000	1.268556
5210.000000	1.268133
5208.000000	1.268039
5206.000000	1.268578
5204.000000	1.269115
5202.000000	1.269011
5200.000000	1.268448
5198.000000	1.268179
5196.000000	1.268288
5194.000000	1.268465
5192.000000	1.268439
5190.000000	1.268288
5188.000000	1.268123
5186.000000	1.268117
5184.000000	1.268240
5182.000000	1.268378
5180.000000	1.268351
5178.000000	1.268357
5176.000000	1.268399
5174.000000	1.268224
5172.000000	1.267990
5170.000000	1.267971
5168.000000	1.268140
5166.000000	1.267973
5164.000000	1.267674
5162.000000	1.267618
5160.000000	1.267759
5158.000000	1.267857
5156.000000	1.268012
5154.000000	1.268190
5152.000000	1.268228
5150.000000	1.268159
5148.000000	1.268249
5146.000000	1.268404
5144.000000	1.268416
5142.000000	1.268260
5140.000000	1.268094
5138.000000	1.267963
5136.000000	1.267884
5134.000000	1.268039
5132.000000	1.268206
5130.000000	1.268213
5128.000000	1.268153
5126.000000	1.268093
5124.000000	1.268008
5122.000000	1.267886
5120.000000	1.267935
5118.000000	1.267943
5116.000000	1.267931
5114.000000	1.267963
5112.000000	1.268062
5110.000000	1.268191
5108.000000	1.268281
5106.000000	1.268173
5104.000000	1.268029
5102.000000	1.268018
5100.000000	1.268110
5098.000000	1.267946
5096.000000	1.267715
5094.000000	1.267734
5092.000000	1.267989
5090.000000	1.268128
5088.000000	1.268047
5086.000000	1.267875
5084.000000	1.267829
5082.000000	1.267853
5080.000000	1.267843
5078.000000	1.267780
5076.000000	1.267757
5074.000000	1.267818
5072.000000	1.267811
5070.000000	1.267791
5068.000000	1.267748
5066.000000	1.267749
5064.000000	1.267727
5062.000000	1.267729
5060.000000	1.267755
5058.000000	1.267811
5056.000000	1.267967
5054.000000	1.268063
5052.000000	1.267936
5050.000000	1.267596
5048.000000	1.267471
5046.000000	1.267636
5044.000000	1.267757
5042.000000	1.267572
5040.000000	1.267453
5038.000000	1.267647
5036.000000	1.267856
5034.000000	1.267833
5032.000000	1.267762
5030.000000	1.267738
5028.000000	1.267737
5026.000000	1.267869
5024.000000	1.268011
5022.000000	1.267941
5020.000000	1.267701
5018.000000	1.267680
5016.000000	1.267916
5014.000000	1.268043
5012.000000	1.267857
5010.000000	1.267597
5008.000000	1.267585
5006.000000	1.267725
5004.000000	1.267812
5002.000000	1.267773
5000.000000	1.267681
4998.000000	1.267619
4996.000000	1.267650
4994.000000	1.267636
4992.000000	1.267555
4990.000000	1.267489
4988.000000	1.267500
4986.000000	1.267495
4984.000000	1.267436
4982.000000	1.267392
4980.000000	1.267401
4978.000000	1.267517
4976.000000	1.267714
4974.000000	1.267807
4972.000000	1.267770
4970.000000	1.267706
4968.000000	1.267701
4966.000000	1.267676
4964.000000	1.267637
4962.000000	1.267657
4960.000000	1.267698
4958.000000	1.267813
4956.000000	1.267853
4954.000000	1.267771
4952.000000	1.267627
4950.000000	1.267624
4948.000000	1.267723
4946.000000	1.267754
4944.000000	1.267690
4942.000000	1.267667
4940.000000	1.267722
4938.000000	1.267772
4936.000000	1.267741
4934.000000	1.267557
4932.000000	1.267330
4930.000000	1.267376
4928.000000	1.267526
4926.000000	1.267560
4924.000000	1.267573
4922.000000	1.267612
4920.000000	1.267565
4918.000000	1.267445
4916.000000	1.267303
4914.000000	1.267105
4912.000000	1.267175
4910.000000	1.267521
4908.000000	1.267666
4906.000000	1.267443
4904.000000	1.267299
4902.000000	1.267428
4900.000000	1.267573
4898.000000	1.267584
4896.000000	1.267576
4894.000000	1.267562
4892.000000	1.267486
4890.000000	1.267307
4888.000000	1.267184
4886.000000	1.267210
4884.000000	1.267303
4882.000000	1.267316
4880.000000	1.267221
4878.000000	1.267109
4876.000000	1.267155
4874.000000	1.267304
4872.000000	1.267272
4870.000000	1.267142
4868.000000	1.267203
4866.000000	1.267379
4864.000000	1.267482
4862.000000	1.267489
4860.000000	1.267490
4858.000000	1.267451
4856.000000	1.267445
4854.000000	1.267490
4852.000000	1.267482
4850.000000	1.267389
4848.000000	1.267285
4846.000000	1.267302
4844.000000	1.267455
4842.000000	1.267589
4840.000000	1.267495
4838.000000	1.267309
4836.000000	1.267238
4834.000000	1.267279
4832.000000	1.267383
4830.000000	1.267452
4828.000000	1.267457
4826.000000	1.267427
4824.000000	1.267390
4822.000000	1.267315
4820.000000	1.267305
4818.000000	1.267366
4816.000000	1.267313
4814.000000	1.267141
4812.000000	1.267016
4810.000000	1.267048
4808.000000	1.267117
4806.000000	1.267198
4804.000000	1.267237
4802.000000	1.267169
4800.000000	1.267067
4798.000000	1.267008
4796.000000	1.266944
4794.000000	1.266876
4792.000000	1.266946
4790.000000	1.267103
4788.000000	1.267224
4786.000000	1.267211
4784.000000	1.267098
4782.000000	1.266915
4780.000000	1.266811
4778.000000	1.266883
4776.000000	1.266980
4774.000000	1.266920
4772.000000	1.266896
4770.000000	1.267041
4768.000000	1.267196
4766.000000	1.267227
4764.000000	1.267195
4762.000000	1.267131
4760.000000	1.267096
4758.000000	1.267036
4756.000000	1.267011
4754.000000	1.267071
4752.000000	1.267118
4750.000000	1.267030
4748.000000	1.266965
4746.000000	1.267028
4744.000000	1.267041
4742.000000	1.267035
4740.000000	1.267045
4738.000000	1.266960
4736.000000	1.266816
4734.000000	1.266813
4732.000000	1.266857
4730.000000	1.266809
4728.000000	1.266788
4726.000000	1.266859
4724.000000	1.266860
4722.000000	1.266755
4720.000000	1.266721
4718.000000	1.266810
4716.000000	1.266932
4714.000000	1.266980
4712.000000	1.266863
4710.000000	1.266717
4708.000000	1.266732
4706.000000	1.266855
4704.000000	1.266975
4702.000000	1.266988
4700.000000	1.266901
4698.000000	1.266815
4696.000000	1.266818
4694.000000	1.266820
4692.000000	1.266870
4690.000000	1.266862
4688.000000	1.266714
4686.000000	1.266532
4684.000000	1.266473
4682.000000	1.266526
4680.000000	1.266610
4678.000000	1.266663
4676.000000	1.266664
4674.000000	1.266686
4672.000000	1.266777
4670.000000	1.266870
4668.000000	1.266876
4666.000000	1.266887
4664.000000	1.266974
4662.000000	1.266966
4660.000000	1.266807
4658.000000	1.266775
4656.000000	1.266836
4654.000000	1.266797
4652.000000	1.266756
4650.000000	1.266762
4648.000000	1.266811
4646.000000	1.266948
4644.000000	1.267049
4642.000000	1.266974
4640.000000	1.266846
4638.000000	1.266673
4636.000000	1.266584
4634.000000	1.266679
4632.000000	1.266694
4630.000000	1.266490
4628.000000	1.266366
4626.000000	1.266494
4624.000000	1.266637
4622.000000	1.266629
4620.000000	1.266510
4618.000000	1.266435
4616.000000	1.266382
4614.000000	1.266303
4612.000000	1.266274
4610.000000	1.266410
4608.000000	1.266543
4606.000000	1.266569
4604.000000	1.266528
4602.000000	1.266474
4600.000000	1.266429
4598.000000	1.266404
4596.000000	1.266409
4594.000000	1.266485
4592.000000	1.266579
4590.000000	1.266593
4588.000000	1.266563
4586.000000	1.266587
4584.000000	1.266643
4582.000000	1.266633
4580.000000	1.266588
4578.000000	1.266615
4576.000000	1.266635
4574.000000	1.266664
4572.000000	1.266771
4570.000000	1.266784
4568.000000	1.266632
4566.000000	1.266484
4564.000000	1.266411
4562.000000	1.266409
4560.000000	1.266469
4558.000000	1.266494
4556.000000	1.266437
4554.000000	1.266452
4552.000000	1.266607
4550.000000	1.266699
4548.000000	1.266555
4546.000000	1.266374
4544.000000	1.266390
4542.000000	1.266462
4540.000000	1.266508
4538.000000	1.266547
4536.000000	1.266532
4534.000000	1.266488
4532.000000	1.266490
4530.000000	1.266406
4528.000000	1.266323
4526.000000	1.266402
4524.000000	1.266440
4522.000000	1.266411
4520.000000	1.266465
4518.000000	1.266471
4516.000000	1.266350
4514.000000	1.266314
4512.000000	1.266355
4510.000000	1.266313
4508.000000	1.266169
4506.000000	1.266087
4504.000000	1.266163
4502.000000	1.266297
4500.000000	1.266355
4498.000000	1.266303
4496.000000	1.266154
4494.000000	1.266094
4492.000000	1.266184
4490.000000	1.266216
4488.000000	1.266158
4486.000000	1.266125
4484.000000	1.266101
4482.000000	1.266133
4480.000000	1.266281
4478.000000	1.266367
4476.000000	1.266284
4474.000000	1.266256
4472.000000	1.266349
4470.000000	1.266405
4468.000000	1.266367
4466.000000	1.266281
4464.000000	1.266154
4462.000000	1.266093
4460.000000	1.266067
4458.000000	1.266010
4456.000000	1.266020
4454.000000	1.266113
4452.000000	1.266171
4450.000000	1.266137
4448.000000	1.266090
4446.000000	1.266153
4444.000000	1.266177
4442.000000	1.266042
4440.000000	1.265941
4438.000000	1.265945
4436.000000	1.265913
4434.000000	1.265850
4432.000000	1.265859
4430.000000	1.265929
4428.000000	1.265977
4426.000000	1.266030
4424.000000	1.266059
4422.000000	1.265979
4420.000000	1.265916
4418.000000	1.266036
4416.000000	1.266199
4414.000000	1.266194
4412.000000	1.266032
4410.000000	1.265880
4408.000000	1.265793
4406.000000	1.265779
4404.000000	1.265808
4402.000000	1.265838
4400.000000	1.265887
4398.000000	1.265904
4396.000000	1.265864
4394.000000	1.265860
4392.000000	1.265854
4390.000000	1.265812
4388.000000	1.265873
4386.000000	1.265945
4384.000000	1.265848
4382.000000	1.265799
4380.000000	1.265850
4378.000000	1.265859
4376.000000	1.265867
4374.000000	1.265849
4372.000000	1.265779
4370.000000	1.265866
4368.000000	1.266009
4366.000000	1.265975
4364.000000	1.265872
4362.000000	1.265874
4360.000000	1.265845
4358.000000	1.265710
4356.000000	1.265667
4354.000000	1.265761
4352.000000	1.265774
4350.000000	1.265699
4348.000000	1.265707
4346.000000	1.265776
4344.000000	1.265697
4342.000000	1.265537
4340.000000	1.265534
4338.000000	1.265620
4336.000000	1.265565
4334.000000	1.265449
4332.000000	1.265438
4330.000000	1.265477
4328.000000	1.265442
4326.000000	1.265341
4324.000000	1.265326
4322.000000	1.265375
4320.000000	1.265291
4318.000000	1.265157
4316.000000	1.265236
4314.000000	1.265421
4312.000000	1.265468
4310.000000	1.265306
4308.000000	1.265197
4306.000000	1.265283
4304.000000	1.265286
4302.000000	1.265215
4300.000000	1.265278
4298.000000	1.265343
4296.000000	1.265351
4294.000000	1.265346
4292.000000	1.265277
4290.000000	1.265232
4288.000000	1.265171
4286.000000	1.265099
4284.000000	1.265139
4282.000000	1.265203
4280.000000	1.265155
4278.000000	1.265110
4276.000000	1.265076
4274.000000	1.265017
4272.000000	1.264972
4270.000000	1.264939
4268.000000	1.264867
4266.000000	1.264851
4264.000000	1.264866
4262.000000	1.264880
4260.000000	1.264919
4258.000000	1.264918
4256.000000	1.264819
4254.000000	1.264776
4252.000000	1.264821
4250.000000	1.264847
4248.000000	1.264779
4246.000000	1.264704
4244.000000	1.264704
4242.000000	1.264730
4240.000000	1.264646
4238.000000	1.264532
4236.000000	1.264565
4234.000000	1.264657
4232.000000	1.264612
4230.000000	1.264471
4228.000000	1.264315
4226.000000	1.264222
4224.000000	1.264274
4222.000000	1.264375
4220.000000	1.264376
4218.000000	1.264390
4216.000000	1.264440
4214.000000	1.264410
4212.000000	1.264327
4210.000000	1.264303
4208.000000	1.264316
4206.000000	1.264298
4204.000000	1.264271
4202.000000	1.264278
4200.000000	1.264188
4198.000000	1.264063
4196.000000	1.264062
4194.000000	1.264090
4192.000000	1.264098
4190.000000	1.264138
4188.000000	1.264131
4186.000000	1.264045
4184.000000	1.263978
4182.000000	1.264007
4180.000000	1.264062
4178.000000	1.264058
4176.000000	1.264026
4174.000000	1.264007
4172.000000	1.263993
4170.000000	1.264009
4168.000000	1.264022
4166.000000	1.263891
4164.000000	1.263722
4162.000000	1.263741
4160.000000	1.263800
4158.000000	1.263773
4156.000000	1.263741
4154.000000	1.263703
4152.000000	1.263595
4150.000000	1.263494
4148.000000	1.263490
4146.000000	1.263534
4144.000000	1.263527
4142.000000	1.263539
4140.000000	1.263533
4138.000000	1.263429
4136.000000	1.263356
4134.000000	1.263333
4132.000000	1.263218
4130.000000	1.263152
4128.000000	1.263171
4126.000000	1.263113
4124.000000	1.262989
4122.000000	1.262967
4120.000000	1.263036
4118.000000	1.263101
4116.000000	1.263050
4114.000000	1.262864
4112.000000	1.262781
4110.000000	1.262873
4108.000000	1.262878
4106.000000	1.262796
4104.000000	1.262794
4102.000000	1.262837
4100.000000	1.262774
4098.000000	1.262691
4096.000000	1.262676
4094.000000	1.262655
4092.000000	1.262655
4090.000000	1.262638
4088.000000	1.262558
4086.000000	1.262580
4084.000000	1.262624
4082.000000	1.262560
4080.000000	1.262495
4078.000000	1.262471
4076.000000	1.262416
4074.000000	1.262357
4072.000000	1.262273
4070.000000	1.262239
4068.000000	1.262268
4066.000000	1.262239
4064.000000	1.262181
4062.000000	1.262177
4060.000000	1.262173
4058.000000	1.262141
4056.000000	1.262061
4054.000000	1.262031
4052.000000	1.262006
4050.000000	1.261892
4048.000000	1.261739
4046.000000	1.261641
4044.000000	1.261631
4042.000000	1.261695
4040.000000	1.261708
4038.000000	1.261677
4036.000000	1.261689
4034.000000	1.261621
4032.000000	1.261449
4030.000000	1.261382
4028.000000	1.261367
4026.000000	1.261378
4024.000000	1.261401
4022.000000	1.261350
4020.000000	1.261245
4018.000000	1.261124
4016.000000	1.261104
4014.000000	1.261193
4012.000000	1.261163
4010.000000	1.261052
4008.000000	1.261053
4006.000000	1.261130
4004.000000	1.261114
4002.000000	1.261054
4000.000000	1.261011
3998.000000	1.260941
3996.000000	1.260854
3994.000000	1.260788
3992.000000	1.260766
3990.000000	1.260792
3988.000000	1.260783
3986.000000	1.260758
3984.000000	1.260740
3982.000000	1.260654
3980.000000	1.260470
3978.000000	1.260322
3976.000000	1.260309
3974.000000	1.260386
3972.000000	1.260396
3970.000000	1.260374
3968.000000	1.260407
3966.000000	1.260321
3964.000000	1.260061
3962.000000	1.259958
3960.000000	1.260048
3958.000000	1.260095
3956.000000	1.260019
3954.000000	1.259813
3952.000000	1.259494
3950.000000	1.259302
3948.000000	1.259452
3946.000000	1.259468
3944.000000	1.259180
3942.000000	1.259355
3940.000000	1.259683
3938.000000	1.259551
3936.000000	1.259069
3934.000000	1.258509
3932.000000	1.258601
3930.000000	1.259199
3928.000000	1.259120
3926.000000	1.258668
3924.000000	1.258723
3922.000000	1.258645
3920.000000	1.258023
3918.000000	1.257965
3916.000000	1.258880
3914.000000	1.259468
3912.000000	1.259142
3910.000000	1.258612
3908.000000	1.257420
3906.000000	1.255496
3904.000000	1.254918
3902.000000	1.256087
3900.000000	1.257606
3898.000000	1.258928
3896.000000	1.258821
3894.000000	1.256958
3892.000000	1.256316
3890.000000	1.257418
3888.000000	1.256554
3886.000000	1.255746
3884.000000	1.257220
3882.000000	1.257326
3880.000000	1.257308
3878.000000	1.258025
3876.000000	1.256954
3874.000000	1.255345
3872.000000	1.253903
3870.000000	1.254480
3868.000000	1.256584
3866.000000	1.256289
3864.000000	1.256057
3862.000000	1.257403
3860.000000	1.257498
3858.000000	1.253795
3856.000000	1.246878
3854.000000	1.246712
3852.000000	1.255781
3850.000000	1.261003
3848.000000	1.259096
3846.000000	1.256459
3844.000000	1.255222
3842.000000	1.253863
3840.000000	1.251421
3838.000000	1.251859
3836.000000	1.255598
3834.000000	1.256977
3832.000000	1.256513
3830.000000	1.256709
3828.000000	1.256458
3826.000000	1.255658
3824.000000	1.253501
3822.000000	1.252251
3820.000000	1.253691
3818.000000	1.253025
3816.000000	1.253517
3814.000000	1.257615
3812.000000	1.257963
3810.000000	1.254436
3808.000000	1.252600
3806.000000	1.253901
3804.000000	1.252911
3802.000000	1.251697
3800.000000	1.255236
3798.000000	1.256975
3796.000000	1.256208
3794.000000	1.256573
3792.000000	1.256592
3790.000000	1.256227
3788.000000	1.255932
3786.000000	1.255686
3784.000000	1.255680
3782.000000	1.255216
3780.000000	1.254916
3778.000000	1.255840
3776.000000	1.256304
3774.000000	1.255325
3772.000000	1.253834
3770.000000	1.253739
3768.000000	1.254739
3766.000000	1.255171
3764.000000	1.255267
3762.000000	1.254371
3760.000000	1.253544
3758.000000	1.254074
3756.000000	1.252781
3754.000000	1.248368
3752.000000	1.246320
3750.000000	1.249634
3748.000000	1.250773
3746.000000	1.247129
3744.000000	1.249978
3742.000000	1.256210
3740.000000	1.254168
3738.000000	1.249600
3736.000000	1.249325
3734.000000	1.251296
3732.000000	1.253266
3730.000000	1.254383
3728.000000	1.253318
3726.000000	1.252478
3724.000000	1.252885
3722.000000	1.253255
3720.000000	1.253686
3718.000000	1.253706
3716.000000	1.252136
3714.000000	1.249393
3712.000000	1.249447
3710.000000	1.252580
3708.000000	1.254450
3706.000000	1.253879
3704.000000	1.252319
3702.000000	1.252061
3700.000000	1.253225
3698.000000	1.253542
3696.000000	1.252912
3694.000000	1.251417
3692.000000	1.248599
3690.000000	1.247036
3688.000000	1.250391
3686.000000	1.254321
3684.000000	1.253666
3682.000000	1.251666
3680.000000	1.249651
3678.000000	1.246111
3676.000000	1.245680
3674.000000	1.248946
3672.000000	1.248455
3670.000000	1.248760
3668.000000	1.252454
3666.000000	1.253093
3664.000000	1.251783
3662.000000	1.251065
3660.000000	1.249871
3658.000000	1.248243
3656.000000	1.248854
3654.000000	1.249163
3652.000000	1.245561
3650.000000	1.244125
3648.000000	1.248132
3646.000000	1.251480
3644.000000	1.251240
3642.000000	1.250141
3640.000000	1.249785
3638.000000	1.249568
3636.000000	1.249004
3634.000000	1.248016
3632.000000	1.245256
3630.000000	1.243280
3628.000000	1.247073
3626.000000	1.250761
3624.000000	1.249435
3622.000000	1.246652
3620.000000	1.245714
3618.000000	1.247229
3616.000000	1.247759
3614.000000	1.246671
3612.000000	1.246104
3610.000000	1.246080
3608.000000	1.247229
3606.000000	1.248442
3604.000000	1.247994
3602.000000	1.247219
3600.000000	1.247067
3598.000000	1.246893
3596.000000	1.246627
3594.000000	1.246847
3592.000000	1.246536
3590.000000	1.245017
3588.000000	1.244846
3586.000000	1.246669
3584.000000	1.247516
3582.000000	1.247011
3580.000000	1.246702
3578.000000	1.246719
3576.000000	1.246684
3574.000000	1.246612
3572.000000	1.246048
3570.000000	1.244709
3568.000000	1.244253
3566.000000	1.245650
3564.000000	1.246695
3562.000000	1.246508
3560.000000	1.246348
3558.000000	1.246419
3556.000000	1.246221
3554.000000	1.245930
3552.000000	1.246036
3550.000000	1.246072
3548.000000	1.245681
3546.000000	1.245763
3544.000000	1.246388
3542.000000	1.246717
3540.000000	1.246589
3538.000000	1.246383
3536.000000	1.246447
3534.000000	1.246605
3532.000000	1.246468
3530.000000	1.246261
3528.000000	1.246304
3526.000000	1.246449
3524.000000	1.246581
3522.000000	1.246910
3520.000000	1.247196
3518.000000	1.247265
3516.000000	1.247252
3514.000000	1.247206
3512.000000	1.247179
3510.000000	1.247327
3508.000000	1.247586
3506.000000	1.247577
3504.000000	1.247521
3502.000000	1.247887
3500.000000	1.248265
3498.000000	1.248396
3496.000000	1.248581
3494.000000	1.248854
3492.000000	1.249033
3490.000000	1.249149
3488.000000	1.249349
3486.000000	1.249607
3484.000000	1.249771
3482.000000	1.250034
3480.000000	1.250452
3478.000000	1.250781
3476.000000	1.251034
3474.000000	1.251354
3472.000000	1.251654
3470.000000	1.251825
3468.000000	1.252026
3466.000000	1.252474
3464.000000	1.252983
3462.000000	1.253371
3460.000000	1.253751
3458.000000	1.254147
3456.000000	1.254462
3454.000000	1.254752
3452.000000	1.255126
3450.000000	1.255396
3448.000000	1.255661
3446.000000	1.256228
3444.000000	1.256862
3442.000000	1.257390
3440.000000	1.257832
3438.000000	1.258239
3436.000000	1.258711
3434.000000	1.259229
3432.000000	1.259704
3430.000000	1.260087
3428.000000	1.260498
3426.000000	1.260906
3424.000000	1.261141
3422.000000	1.261371
3420.000000	1.261858
3418.000000	1.262327
3416.000000	1.262573
3414.000000	1.262851
3412.000000	1.263098
3410.000000	1.263270
3408.000000	1.263566
3406.000000	1.263899
3404.000000	1.264113
3402.000000	1.264221
3400.000000	1.264417
3398.000000	1.264756
3396.000000	1.265004
3394.000000	1.265061
3392.000000	1.265172
3390.000000	1.265440
3388.000000	1.265636
3386.000000	1.265723
3384.000000	1.265890
3382.000000	1.266140
3380.000000	1.266278
3378.000000	1.266326
3376.000000	1.266386
3374.000000	1.266494
3372.000000	1.266562
3370.000000	1.266618
3368.000000	1.266774
3366.000000	1.266926
3364.000000	1.267003
3362.000000	1.267107
3360.000000	1.267248
3358.000000	1.267362
3356.000000	1.267471
3354.000000	1.267519
3352.000000	1.267537
3350.000000	1.267648
3348.000000	1.267754
3346.000000	1.267808
3344.000000	1.267848
3342.000000	1.267896
3340.000000	1.267939
3338.000000	1.267971
3336.000000	1.268081
3334.000000	1.268223
3332.000000	1.268287
3330.000000	1.268340
3328.000000	1.268365
3326.000000	1.268351
3324.000000	1.268455
3322.000000	1.268641
3320.000000	1.268732
3318.000000	1.268711
3316.000000	1.268689
3314.000000	1.268750
3312.000000	1.268829
3310.000000	1.268821
3308.000000	1.268790
3306.000000	1.268821
3304.000000	1.268985
3302.000000	1.269209
3300.000000	1.269246
3298.000000	1.269178
3296.000000	1.269212
3294.000000	1.269256
3292.000000	1.269281
3290.000000	1.269398
3288.000000	1.269496
3286.000000	1.269511
3284.000000	1.269532
3282.000000	1.269584
3280.000000	1.269664
3278.000000	1.269732
3276.000000	1.269717
3274.000000	1.269671
3272.000000	1.269708
3270.000000	1.269827
3268.000000	1.269916
3266.000000	1.269948
3264.000000	1.269927
3262.000000	1.269928
3260.000000	1.269960
3258.000000	1.270027
3256.000000	1.270111
3254.000000	1.270185
3252.000000	1.270305
3250.000000	1.270333
3248.000000	1.270243
3246.000000	1.270253
3244.000000	1.270364
3242.000000	1.270445
3240.000000	1.270490
3238.000000	1.270562
3236.000000	1.270630
3234.000000	1.270643
3232.000000	1.270699
3230.000000	1.270860
3228.000000	1.271013
3226.000000	1.271061
3224.000000	1.271061
3222.000000	1.271133
3220.000000	1.271240
3218.000000	1.271277
3216.000000	1.271229
3214.000000	1.271235
3212.000000	1.271238
3210.000000	1.271283
3208.000000	1.271416
3206.000000	1.271444
3204.000000	1.271455
3202.000000	1.271496
3200.000000	1.271542
3198.000000	1.271552
3196.000000	1.271562
3194.000000	1.271626
3192.000000	1.271665
3190.000000	1.271620
3188.000000	1.271556
3186.000000	1.271620
3184.000000	1.271644
3182.000000	1.271529
3180.000000	1.271476
3178.000000	1.271580
3176.000000	1.271655
3174.000000	1.271689
3172.000000	1.271775
3170.000000	1.271817
3168.000000	1.271833
3166.000000	1.271859
3164.000000	1.271916
3162.000000	1.271960
3160.000000	1.271884
3158.000000	1.271898
3156.000000	1.271961
3154.000000	1.271875
3152.000000	1.271873
3150.000000	1.272030
3148.000000	1.272133
3146.000000	1.272226
3144.000000	1.272336
3142.000000	1.272368
3140.000000	1.272281
3138.000000	1.272250
3136.000000	1.272357
3134.000000	1.272451
3132.000000	1.272508
3130.000000	1.272596
3128.000000	1.272607
3126.000000	1.272532
3124.000000	1.272498
3122.000000	1.272549
3120.000000	1.272616
3118.000000	1.272601
3116.000000	1.272616
3114.000000	1.272685
3112.000000	1.272705
3110.000000	1.272656
3108.000000	1.272641
3106.000000	1.272655
3104.000000	1.272666
3102.000000	1.272627
3100.000000	1.272536
3098.000000	1.272481
3096.000000	1.272476
3094.000000	1.272477
3092.000000	1.272358
3090.000000	1.272227
3088.000000	1.272184
3086.000000	1.272124
3084.000000	1.272048
3082.000000	1.271897
3080.000000	1.271764
3078.000000	1.271764
3076.000000	1.271746
3074.000000	1.271666
3072.000000	1.271618
3070.000000	1.271532
3068.000000	1.271401
3066.000000	1.271393
3064.000000	1.271454
3062.000000	1.271409
3060.000000	1.271242
3058.000000	1.271132
3056.000000	1.271083
3054.000000	1.271047
3052.000000	1.271010
3050.000000	1.270938
3048.000000	1.270856
3046.000000	1.270749
3044.000000	1.270653
3042.000000	1.270600
3040.000000	1.270629
3038.000000	1.270686
3036.000000	1.270609
3034.000000	1.270466
3032.000000	1.270364
3030.000000	1.270299
3028.000000	1.270168
3026.000000	1.269979
3024.000000	1.269897
3022.000000	1.269953
3020.000000	1.270147
3018.000000	1.270413
3016.000000	1.270603
3014.000000	1.270671
3012.000000	1.270742
3010.000000	1.270676
3008.000000	1.270459
3006.000000	1.270263
3004.000000	1.270137
3002.000000	1.270015
3000.000000	1.269881
2998.000000	1.269771
2996.000000	1.269715
2994.000000	1.269638
2992.000000	1.269576
2990.000000	1.269551
2988.000000	1.269480
2986.000000	1.269407
2984.000000	1.269356
2982.000000	1.269273
2980.000000	1.269191
2978.000000	1.269149
2976.000000	1.269096
2974.000000	1.269054
2972.000000	1.269061
2970.000000	1.269073
2968.000000	1.269265
2966.000000	1.269813
2964.000000	1.270562
2962.000000	1.271263
2960.000000	1.271695
2958.000000	1.271640
2956.000000	1.271228
2954.000000	1.270718
2952.000000	1.270244
2950.000000	1.269741
2948.000000	1.269144
2946.000000	1.268571
2944.000000	1.268103
2942.000000	1.267716
2940.000000	1.267470
2938.000000	1.267414
2936.000000	1.267489
2934.000000	1.267582
2932.000000	1.267636
2930.000000	1.267687
2928.000000	1.267942
2926.000000	1.268585
2924.000000	1.269528
2922.000000	1.270508
2920.000000	1.271186
2918.000000	1.271435
2916.000000	1.271334
2914.000000	1.271070
2912.000000	1.270657
2910.000000	1.270215
2908.000000	1.269854
2906.000000	1.269548
2904.000000	1.269366
2902.000000	1.269277
2900.000000	1.269245
2898.000000	1.269212
2896.000000	1.269096
2894.000000	1.268978
2892.000000	1.268908
2890.000000	1.268830
2888.000000	1.268685
2886.000000	1.268450
2884.000000	1.268197
2882.000000	1.267967
2880.000000	1.267781
2878.000000	1.267657
2876.000000	1.267519
2874.000000	1.267311
2872.000000	1.267013
2870.000000	1.266652
2868.000000	1.266314
2866.000000	1.266072
2864.000000	1.266167
2862.000000	1.266727
2860.000000	1.267529
2858.000000	1.268147
2856.000000	1.268433
2854.000000	1.268495
2852.000000	1.268614
2850.000000	1.268960
2848.000000	1.269237
2846.000000	1.269171
2844.000000	1.268867
2842.000000	1.268523
2840.000000	1.268238
2838.000000	1.268070
2836.000000	1.267961
2834.000000	1.267834
2832.000000	1.267738
2830.000000	1.267680
2828.000000	1.267657
2826.000000	1.267646
2824.000000	1.267606
2822.000000	1.267557
2820.000000	1.267515
2818.000000	1.267448
2816.000000	1.267368
2814.000000	1.267275
2812.000000	1.267267
2810.000000	1.267291
2808.000000	1.267193
2806.000000	1.267135
2804.000000	1.267167
2802.000000	1.267109
2800.000000	1.267022
2798.000000	1.266988
2796.000000	1.267000
2794.000000	1.266962
2792.000000	1.266905
2790.000000	1.266928
2788.000000	1.266982
2786.000000	1.267010
2784.000000	1.267063
2782.000000	1.267048
2780.000000	1.266957
2778.000000	1.266895
2776.000000	1.266863
2774.000000	1.266810
2772.000000	1.266784
2770.000000	1.266795
2768.000000	1.266805
2766.000000	1.266784
2764.000000	1.266779
2762.000000	1.266759
2760.000000	1.266729
2758.000000	1.266752
2756.000000	1.266758
2754.000000	1.266769
2752.000000	1.266784
2750.000000	1.266774
2748.000000	1.266804
2746.000000	1.266812
2744.000000	1.266832
2742.000000	1.266826
2740.000000	1.266778
2738.000000	1.266758
2736.000000	1.266771
2734.000000	1.266785
2732.000000	1.266799
2730.000000	1.266829
2728.000000	1.266897
2726.000000	1.266929
2724.000000	1.266985
2722.000000	1.267076
2720.000000	1.267100
2718.000000	1.267113
2716.000000	1.267115
2714.000000	1.267127
2712.000000	1.267193
2710.000000	1.267265
2708.000000	1.267349
2706.000000	1.267449
2704.000000	1.267531
2702.000000	1.267578
2700.000000	1.267713
2698.000000	1.267839
2696.000000	1.267869
2694.000000	1.267872
2692.000000	1.267901
2690.000000	1.267979
2688.000000	1.268089
2686.000000	1.268139
2684.000000	1.268217
2682.000000	1.268348
2680.000000	1.268436
2678.000000	1.268472
2676.000000	1.268479
2674.000000	1.268488
2672.000000	1.268595
2670.000000	1.268704
2668.000000	1.268763
2666.000000	1.268870
2664.000000	1.268980
2662.000000	1.269039
2660.000000	1.269101
2658.000000	1.269150
2656.000000	1.269157
2654.000000	1.269254
2652.000000	1.269374
2650.000000	1.269416
2648.000000	1.269475
2646.000000	1.269548
2644.000000	1.269584
2642.000000	1.269570
2640.000000	1.269629
2638.000000	1.269711
2636.000000	1.269687
2634.000000	1.269720
2632.000000	1.269851
2630.000000	1.269833
2628.000000	1.269752
2626.000000	1.269796
2624.000000	1.269852
2622.000000	1.269866
2620.000000	1.269922
2618.000000	1.269988
2616.000000	1.270043
2614.000000	1.270102
2612.000000	1.270125
2610.000000	1.270080
2608.000000	1.270069
2606.000000	1.270104
2604.000000	1.270120
2602.000000	1.270156
2600.000000	1.270224
2598.000000	1.270245
2596.000000	1.270293
2594.000000	1.270324
2592.000000	1.270333
2590.000000	1.270274
2588.000000	1.270285
2586.000000	1.270389
2584.000000	1.270420
2582.000000	1.270399
2580.000000	1.270431
2578.000000	1.270484
2576.000000	1.270469
2574.000000	1.270445
2572.000000	1.270541
2570.000000	1.270587
2568.000000	1.270543
2566.000000	1.270515
2564.000000	1.270531
2562.000000	1.270561
2560.000000	1.270574
2558.000000	1.270609
2556.000000	1.270648
2554.000000	1.270618
2552.000000	1.270575
2550.000000	1.270542
2548.000000	1.270569
2546.000000	1.270616
2544.000000	1.270629
2542.000000	1.270599
2540.000000	1.270566
2538.000000	1.270551
2536.000000	1.270583
2534.000000	1.270580
2532.000000	1.270559
2530.000000	1.270559
2528.000000	1.270613
2526.000000	1.270639
2524.000000	1.270594
2522.000000	1.270501
2520.000000	1.270408
2518.000000	1.270387
2516.000000	1.270418
2514.000000	1.270409
2512.000000	1.270422
2510.000000	1.270439
2508.000000	1.270395
2506.000000	1.270381
2504.000000	1.270353
2502.000000	1.270307
2500.000000	1.270325
2498.000000	1.270350
2496.000000	1.270344
2494.000000	1.270347
2492.000000	1.270341
2490.000000	1.270250
2488.000000	1.270228
2486.000000	1.270297
2484.000000	1.270337
2482.000000	1.270298
2480.000000	1.270262
2478.000000	1.270296
2476.000000	1.270319
2474.000000	1.270351
2472.000000	1.270392
2470.000000	1.270332
2468.000000	1.270266
2466.000000	1.270245
2464.000000	1.270276
2462.000000	1.270290
2460.000000	1.270265
2458.000000	1.270254
2456.000000	1.270319
2454.000000	1.270354
2452.000000	1.270331
2450.000000	1.270269
2448.000000	1.270260
2446.000000	1.270256
2444.000000	1.270209
2442.000000	1.270174
2440.000000	1.270130
2438.000000	1.270101
2436.000000	1.270130
2434.000000	1.270127
2432.000000	1.270140
2430.000000	1.270215
2428.000000	1.270320
2426.000000	1.270248
2424.000000	1.270148
2422.000000	1.270137
2420.000000	1.270081
2418.000000	1.270110
2416.000000	1.270074
2414.000000	1.269945
2412.000000	1.269903
2410.000000	1.269985
2408.000000	1.270097
2406.000000	1.270046
2404.000000	1.270025
2402.000000	1.270035
2400.000000	1.270030
2398.000000	1.269983
2396.000000	1.269931
2394.000000	1.269954
2392.000000	1.269974
2390.000000	1.269988
2388.000000	1.269960
2386.000000	1.269847
2384.000000	1.269779
2382.000000	1.269701
2380.000000	1.269458
2378.000000	1.269127
2376.000000	1.268809
2374.000000	1.268513
2372.000000	1.268316
2370.000000	1.268063
2368.000000	1.267843
2366.000000	1.267702
2364.000000	1.267665
2362.000000	1.267801
2360.000000	1.268091
2358.000000	1.268468
2356.000000	1.268861
2354.000000	1.269240
2352.000000	1.269595
2350.000000	1.269503
2348.000000	1.268814
2346.000000	1.268333
2344.000000	1.268465
2342.000000	1.269057
2340.000000	1.269822
2338.000000	1.270148
2336.000000	1.269783
2334.000000	1.269211
2332.000000	1.268942
2330.000000	1.268887
2328.000000	1.268949
2326.000000	1.269049
2324.000000	1.269190
2322.000000	1.269349
2320.000000	1.269430
2318.000000	1.269450
2316.000000	1.269435
2314.000000	1.269414
2312.000000	1.269455
2310.000000	1.269498
2308.000000	1.269569
2306.000000	1.269650
2304.000000	1.269712
2302.000000	1.269736
2300.000000	1.269690
2298.000000	1.269619
2296.000000	1.269575
2294.000000	1.269579
2292.000000	1.269663
2290.000000	1.269680
2288.000000	1.269653
2286.000000	1.269776
2284.000000	1.269862
2282.000000	1.269756
2280.000000	1.269696
2278.000000	1.269691
2276.000000	1.269768
2274.000000	1.269792
2272.000000	1.269701
2270.000000	1.269631
2268.000000	1.269568
2266.000000	1.269464
2264.000000	1.269527
2262.000000	1.269614
2260.000000	1.269493
2258.000000	1.269348
2256.000000	1.269415
2254.000000	1.269454
2252.000000	1.269348
2250.000000	1.269283
2248.000000	1.269312
2246.000000	1.269256
2244.000000	1.269280
2242.000000	1.269300
2240.000000	1.269236
2238.000000	1.269156
2236.000000	1.269042
2234.000000	1.268924
2232.000000	1.268975
2230.000000	1.268982
2228.000000	1.268814
2226.000000	1.268773
2224.000000	1.268752
2222.000000	1.268574
2220.000000	1.268482
2218.000000	1.268295
2216.000000	1.268175
2214.000000	1.268220
2212.000000	1.268310
2210.000000	1.268320
2208.000000	1.268163
2206.000000	1.268045
2204.000000	1.267995
2202.000000	1.267917
2200.000000	1.267964
2198.000000	1.268016
2196.000000	1.267951
2194.000000	1.267827
2192.000000	1.267773
2190.000000	1.267818
2188.000000	1.267820
2186.000000	1.267703
2184.000000	1.267604
2182.000000	1.267481
2180.000000	1.267475
2178.000000	1.267500
2176.000000	1.267458
2174.000000	1.267418
2172.000000	1.267280
2170.000000	1.267257
2168.000000	1.267366
2166.000000	1.267256
2164.000000	1.267203
2162.000000	1.267198
2160.000000	1.267070
2158.000000	1.266995
2156.000000	1.266987
2154.000000	1.266899
2152.000000	1.266821
2150.000000	1.266717
2148.000000	1.266612
2146.000000	1.266566
2144.000000	1.266568
2142.000000	1.266543
2140.000000	1.266509
2138.000000	1.266441
2136.000000	1.266482
2134.000000	1.266447
2132.000000	1.266369
2130.000000	1.266268
2128.000000	1.266150
2126.000000	1.266108
2124.000000	1.266067
2122.000000	1.265979
2120.000000	1.265967
2118.000000	1.266006
2116.000000	1.266030
2114.000000	1.265953
2112.000000	1.265893
2110.000000	1.265870
2108.000000	1.265830
2106.000000	1.265744
2104.000000	1.265760
2102.000000	1.265788
2100.000000	1.265739
2098.000000	1.265629
2096.000000	1.265580
2094.000000	1.265555
2092.000000	1.265520
2090.000000	1.265470
2088.000000	1.265460
2086.000000	1.265400
2084.000000	1.265378
2082.000000	1.265383
2080.000000	1.265336
2078.000000	1.265230
2076.000000	1.265203
2074.000000	1.265207
2072.000000	1.265260
2070.000000	1.265219
2068.000000	1.265114
2066.000000	1.265003
2064.000000	1.265035
2062.000000	1.265060
2060.000000	1.265028
2058.000000	1.264965
2056.000000	1.264928
2054.000000	1.264897
2052.000000	1.264872
2050.000000	1.264817
2048.000000	1.264777
2046.000000	1.264687
2044.000000	1.264619
2042.000000	1.264632
2040.000000	1.264714
2038.000000	1.264622
2036.000000	1.264580
2034.000000	1.264552
2032.000000	1.264510
2030.000000	1.264479
2028.000000	1.264532
2026.000000	1.264467
2024.000000	1.264333
2022.000000	1.264261
2020.000000	1.264175
2018.000000	1.264097
2016.000000	1.264180
2014.000000	1.264184
2012.000000	1.264176
2010.000000	1.264150
2008.000000	1.264154
2006.000000	1.264165
2004.000000	1.264161
2002.000000	1.264100
2000.000000	1.264052
1998.000000	1.264048
1996.000000	1.264015
1994.000000	1.263728
1992.000000	1.263669
1990.000000	1.263873
1988.000000	1.263931
1986.000000	1.263885
1984.000000	1.263805
1982.000000	1.263790
1980.000000	1.263812
1978.000000	1.263771
1976.000000	1.263749
1974.000000	1.263746
1972.000000	1.263709
1970.000000	1.263549
1968.000000	1.263398
1966.000000	1.263498
1964.000000	1.263548
1962.000000	1.263467
1960.000000	1.263468
1958.000000	1.263734
1956.000000	1.263819
1954.000000	1.263711
1952.000000	1.263692
1950.000000	1.263656
1948.000000	1.263623
1946.000000	1.263455
1944.000000	1.263152
1942.000000	1.263333
1940.000000	1.263801
1938.000000	1.263794
1936.000000	1.263753
1934.000000	1.263710
1932.000000	1.263797
1930.000000	1.263784
1928.000000	1.263703
1926.000000	1.263534
1924.000000	1.263329
1922.000000	1.263447
1920.000000	1.263098
1918.000000	1.263035
1916.000000	1.263927
1914.000000	1.263990
1912.000000	1.263755
1910.000000	1.263636
1908.000000	1.263867
1906.000000	1.263903
1904.000000	1.263932
1902.000000	1.263975
1900.000000	1.264026
1898.000000	1.263911
1896.000000	1.263850
1894.000000	1.263887
1892.000000	1.263634
1890.000000	1.263406
1888.000000	1.263942
1886.000000	1.263990
1884.000000	1.263982
1882.000000	1.263994
1880.000000	1.264034
1878.000000	1.264037
1876.000000	1.264069
1874.000000	1.263918
1872.000000	1.263266
1870.000000	1.262392
1868.000000	1.263183
1866.000000	1.264025
1864.000000	1.264082
1862.000000	1.263870
1860.000000	1.263885
1858.000000	1.263906
1856.000000	1.263969
1854.000000	1.263864
1852.000000	1.263896
1850.000000	1.263730
1848.000000	1.263178
1846.000000	1.261517
1844.000000	1.261906
1842.000000	1.264011
1840.000000	1.264069
1838.000000	1.263745
1836.000000	1.263862
1834.000000	1.263731
1832.000000	1.262727
1830.000000	1.262524
1828.000000	1.263349
1826.000000	1.263073
1824.000000	1.263748
1822.000000	1.264232
1820.000000	1.264121
1818.000000	1.264025
1816.000000	1.264124
1814.000000	1.263939
1812.000000	1.263648
1810.000000	1.263769
1808.000000	1.264152
1806.000000	1.264091
1804.000000	1.263607
1802.000000	1.262982
1800.000000	1.263328
1798.000000	1.263735
1796.000000	1.263079
1794.000000	1.261171
1792.000000	1.261866
1790.000000	1.264002
1788.000000	1.264011
1786.000000	1.263248
1784.000000	1.263527
1782.000000	1.263495
1780.000000	1.263679
1778.000000	1.263890
1776.000000	1.262722
1774.000000	1.260133
1772.000000	1.260986
1770.000000	1.263053
1768.000000	1.263363
1766.000000	1.264256
1764.000000	1.263049
1762.000000	1.262653
1760.000000	1.263841
1758.000000	1.263380
1756.000000	1.263701
1754.000000	1.263017
1752.000000	1.261082
1750.000000	1.262346
1748.000000	1.263623
1746.000000	1.263915
1744.000000	1.263697
1742.000000	1.262876
1740.000000	1.262798
1738.000000	1.263386
1736.000000	1.259133
1734.000000	1.258926
1732.000000	1.264311
1730.000000	1.265213
1728.000000	1.265277
1726.000000	1.265151
1724.000000	1.265052
1722.000000	1.264449
1720.000000	1.260792
1718.000000	1.258518
1716.000000	1.262495
1714.000000	1.265045
1712.000000	1.265619
1710.000000	1.265018
1708.000000	1.264142
1706.000000	1.263428
1704.000000	1.263259
1702.000000	1.258380
1700.000000	1.258855
1698.000000	1.260753
1696.000000	1.260502
1694.000000	1.265918
1692.000000	1.266401
1690.000000	1.265226
1688.000000	1.263269
1686.000000	1.258017
1684.000000	1.260465
1682.000000	1.266238
1680.000000	1.266203
1678.000000	1.264635
1676.000000	1.262905
1674.000000	1.264866
1672.000000	1.264309
1670.000000	1.263356
1668.000000	1.265864
1666.000000	1.266528
1664.000000	1.264843
1662.000000	1.265728
1660.000000	1.266977
1658.000000	1.266081
1656.000000	1.260311
1654.000000	1.254058
1652.000000	1.261672
1650.000000	1.266652
1648.000000	1.262686
1646.000000	1.263776
1644.000000	1.267339
1642.000000	1.267495
1640.000000	1.266463
1638.000000	1.263220
1636.000000	1.261811
1634.000000	1.266529
1632.000000	1.268173
1630.000000	1.266876
1628.000000	1.266425
1626.000000	1.265958
1624.000000	1.265151
1622.000000	1.266566
1620.000000	1.265785
1618.000000	1.262287
1616.000000	1.264566
1614.000000	1.267918
1612.000000	1.267277
1610.000000	1.267321
1608.000000	1.267936
1606.000000	1.268652
1604.000000	1.268786
1602.000000	1.268960
1600.000000	1.269017
1598.000000	1.269043
1596.000000	1.268941
1594.000000	1.269012
1592.000000	1.268851
1590.000000	1.268670
1588.000000	1.268626
1586.000000	1.268654
1584.000000	1.268687
1582.000000	1.268831
1580.000000	1.267853
1578.000000	1.263967
1576.000000	1.264426
1574.000000	1.268937
1572.000000	1.267270
1570.000000	1.266040
1568.000000	1.267871
1566.000000	1.268169
1564.000000	1.267139
1562.000000	1.261913
1560.000000	1.256422
1558.000000	1.262216
1556.000000	1.266708
1554.000000	1.267332
1552.000000	1.268463
1550.000000	1.268547
1548.000000	1.268280
1546.000000	1.266387
1544.000000	1.264132
1542.000000	1.260557
1540.000000	1.260635
1538.000000	1.267123
1536.000000	1.268093
1534.000000	1.266220
1532.000000	1.268003
1530.000000	1.268132
1528.000000	1.266709
1526.000000	1.265988
1524.000000	1.264333
1522.000000	1.262319
1520.000000	1.265195
1518.000000	1.266250
1516.000000	1.266799
1514.000000	1.267490
1512.000000	1.267001
1510.000000	1.264479
1508.000000	1.259436
1506.000000	1.261718
1504.000000	1.267280
1502.000000	1.266097
1500.000000	1.262647
1498.000000	1.260325
1496.000000	1.263192
1494.000000	1.268628
1492.000000	1.269647
1490.000000	1.269533
1488.000000	1.270159
1486.000000	1.270426
1484.000000	1.270108
1482.000000	1.269236
1480.000000	1.268889
1478.000000	1.267680
1476.000000	1.265979
1474.000000	1.264064
1472.000000	1.265685
1470.000000	1.268434
1468.000000	1.267781
1466.000000	1.266281
1464.000000	1.267226
1462.000000	1.267635
1460.000000	1.264019
1458.000000	1.259881
1456.000000	1.263199
1454.000000	1.267124
1452.000000	1.267533
1450.000000	1.268559
1448.000000	1.269293
1446.000000	1.269592
1444.000000	1.268937
1442.000000	1.268567
1440.000000	1.267282
1438.000000	1.264767
1436.000000	1.266129
1434.000000	1.268396
1432.000000	1.267526
1430.000000	1.267371
1428.000000	1.267974
1426.000000	1.267846
1424.000000	1.267355
1422.000000	1.266008
1420.000000	1.264020
1418.000000	1.266325
1416.000000	1.268034
1414.000000	1.267923
1412.000000	1.267448
1410.000000	1.267193
1408.000000	1.266710
1406.000000	1.266498
1404.000000	1.267311
1402.000000	1.267899
1400.000000	1.267403
1398.000000	1.267569
1396.000000	1.266921
1394.000000	1.267407
1392.000000	1.268108
1390.000000	1.267054
1388.000000	1.266035
1386.000000	1.266938
1384.000000	1.267849
1382.000000	1.268106
1380.000000	1.267784
1378.000000	1.267418
1376.000000	1.266835
1374.000000	1.266798
1372.000000	1.267288
1370.000000	1.267231
1368.000000	1.267192
1366.000000	1.267004
1364.000000	1.266272
1362.000000	1.266386
1360.000000	1.266986
1358.000000	1.267118
1356.000000	1.266920
1354.000000	1.266871
1352.000000	1.266785
1350.000000	1.266727
1348.000000	1.266675
1346.000000	1.266639
1344.000000	1.266463
1342.000000	1.266156
1340.000000	1.266032
1338.000000	1.266405
1336.000000	1.266587
1334.000000	1.266600
1332.000000	1.266480
1330.000000	1.266396
1328.000000	1.266233
1326.000000	1.266215
1324.000000	1.266146
1322.000000	1.265979
1320.000000	1.265783
1318.000000	1.265798
1316.000000	1.265745
1314.000000	1.265614
1312.000000	1.265552
1310.000000	1.265592
1308.000000	1.265517
1306.000000	1.265501
1304.000000	1.265418
1302.000000	1.265369
1300.000000	1.265230
1298.000000	1.265149
1296.000000	1.265081
1294.000000	1.265052
1292.000000	1.265027
1290.000000	1.265070
1288.000000	1.264987
1286.000000	1.265004
1284.000000	1.265094
1282.000000	1.265131
1280.000000	1.265035
1278.000000	1.265032
1276.000000	1.265078
1274.000000	1.265159
1272.000000	1.265218
1270.000000	1.265411
1268.000000	1.265981
1266.000000	1.267267
1264.000000	1.269246
1262.000000	1.271934
1260.000000	1.274178
1258.000000	1.274867
1256.000000	1.273853
1254.000000	1.271994
1252.000000	1.270158
1250.000000	1.268983
1248.000000	1.268431
1246.000000	1.268397
1244.000000	1.268478
1242.000000	1.268649
1240.000000	1.268845
1238.000000	1.269164
1236.000000	1.269440
1234.000000	1.269722
1232.000000	1.269966
1230.000000	1.270189
1228.000000	1.270290
1226.000000	1.270582
1224.000000	1.270894
1222.000000	1.271150
1220.000000	1.271318
1218.000000	1.271553
1216.000000	1.271677
1214.000000	1.271957
1212.000000	1.272400
1210.000000	1.272792
1208.000000	1.273104
1206.000000	1.273377
1204.000000	1.273674
1202.000000	1.274092
1200.000000	1.274265
1198.000000	1.274486
1196.000000	1.274683
1194.000000	1.275114
1192.000000	1.275666
1190.000000	1.275898
1188.000000	1.276030
1186.000000	1.276293
1184.000000	1.276246
1182.000000	1.276483
1180.000000	1.277565
1178.000000	1.278597
1176.000000	1.278771
1174.000000	1.278779
1172.000000	1.279112
1170.000000	1.279602
1168.000000	1.279851
1166.000000	1.280236
1164.000000	1.280754
1162.000000	1.281281
1160.000000	1.281542
1158.000000	1.281770
1156.000000	1.282129
1154.000000	1.282556
1152.000000	1.282903
1150.000000	1.283200
1148.000000	1.283501
1146.000000	1.284062
1144.000000	1.284471
1142.000000	1.285085
1140.000000	1.285379
1138.000000	1.285147
1136.000000	1.285091
1134.000000	1.285464
1132.000000	1.285842
1130.000000	1.286184
1128.000000	1.286247
1126.000000	1.286369
1124.000000	1.286782
1122.000000	1.287236
1120.000000	1.287379
1118.000000	1.287734
1116.000000	1.287958
1114.000000	1.288267
1112.000000	1.288713
1110.000000	1.289219
1108.000000	1.289615
1106.000000	1.290265
1104.000000	1.290898
1102.000000	1.291528
1100.000000	1.292118
1098.000000	1.292578
1096.000000	1.292959
1094.000000	1.293330
1092.000000	1.293215
1090.000000	1.293197
1088.000000	1.293172
1086.000000	1.292868
1084.000000	1.292470
1082.000000	1.292246
1080.000000	1.292239
1078.000000	1.292121
1076.000000	1.291976
1074.000000	1.291913
1072.000000	1.291515
1070.000000	1.291365
1068.000000	1.290971
1066.000000	1.290168
1064.000000	1.289551
1062.000000	1.289528
1060.000000	1.289276
1058.000000	1.288686
1056.000000	1.287380
1054.000000	1.285711
1052.000000	1.285546
1050.000000	1.287026
1048.000000	1.287684
1046.000000	1.287273
1044.000000	1.286426
1042.000000	1.285466
1040.000000	1.284183
1038.000000	1.283435
1036.000000	1.283430
1034.000000	1.283420
1032.000000	1.283090
1030.000000	1.282531
1028.000000	1.281613
1026.000000	1.281263
1024.000000	1.281214
1022.000000	1.281288
1020.000000	1.280677
1018.000000	1.279890
1016.000000	1.278846
1014.000000	1.278023
1012.000000	1.276810
1010.000000	1.274714
1008.000000	1.272379
1006.000000	1.270891
1004.000000	1.269290
1002.000000	1.267777
1000.000000	1.266426
