PE IR       SUBTECH     SPECTRUM    ASCII       PEDS        4.00        
   -1
TE110A_050_80K_AFTER_115K_SB.ASC
20/05/14
13:47:05.00
20/05/14
13:47:05.00
Administrator
TE110A.Thursday, May 14 2020, 002.
1000.000000
#HDR
-1
-1
#GR
cm-1
EGY
1.0
0.0
6000.000000
-2.000000
2501
8
5.737155
0.587136
#DATA
6000.000000	0.882041
5998.000000	0.882721
5996.000000	0.884068
5994.000000	0.886272
5992.000000	0.888079
5990.000000	0.889601
5988.000000	0.891177
5986.000000	0.893413
5984.000000	0.895872
5982.000000	0.898072
5980.000000	0.899981
5978.000000	0.901357
5976.000000	0.902639
5974.000000	0.904480
5972.000000	0.906103
5970.000000	0.907627
5968.000000	0.909937
5966.000000	0.912976
5964.000000	0.915890
5962.000000	0.917382
5960.000000	0.918085
5958.000000	0.919693
5956.000000	0.921836
5954.000000	0.923774
5952.000000	0.926029
5950.000000	0.928307
5948.000000	0.930396
5946.000000	0.931498
5944.000000	0.932468
5942.000000	0.934423
5940.000000	0.936868
5938.000000	0.939101
5936.000000	0.940591
5934.000000	0.941686
5932.000000	0.942744
5930.000000	0.944742
5928.000000	0.947956
5926.000000	0.951087
5924.000000	0.952816
5922.000000	0.953261
5920.000000	0.954854
5918.000000	0.957464
5916.000000	0.960461
5914.000000	0.962171
5912.000000	0.963324
5910.000000	0.965427
5908.000000	0.967396
5906.000000	0.969215
5904.000000	0.971321
5902.000000	0.973747
5900.000000	0.975893
5898.000000	0.977579
5896.000000	0.978849
5894.000000	0.981382
5892.000000	0.983891
5890.000000	0.986010
5888.000000	0.987945
5886.000000	0.989550
5884.000000	0.991506
5882.000000	0.993870
5880.000000	0.996550
5878.000000	0.999329
5876.000000	1.002097
5874.000000	1.003949
5872.000000	1.005020
5870.000000	1.005779
5868.000000	1.006790
5866.000000	1.008843
5864.000000	1.011424
5862.000000	1.014556
5860.000000	1.017851
5858.000000	1.020144
5856.000000	1.021776
5854.000000	1.023616
5852.000000	1.025794
5850.000000	1.028158
5848.000000	1.030120
5846.000000	1.031820
5844.000000	1.033646
5842.000000	1.035584
5840.000000	1.038371
5838.000000	1.041206
5836.000000	1.043515
5834.000000	1.044671
5832.000000	1.046303
5830.000000	1.049024
5828.000000	1.051983
5826.000000	1.054659
5824.000000	1.056792
5822.000000	1.057986
5820.000000	1.059117
5818.000000	1.060232
5816.000000	1.062546
5814.000000	1.065858
5812.000000	1.069423
5810.000000	1.072877
5808.000000	1.074893
5806.000000	1.076351
5804.000000	1.078184
5802.000000	1.080544
5800.000000	1.082262
5798.000000	1.082910
5796.000000	1.084643
5794.000000	1.087872
5792.000000	1.090971
5790.000000	1.093899
5788.000000	1.096471
5786.000000	1.098849
5784.000000	1.101111
5782.000000	1.103470
5780.000000	1.106442
5778.000000	1.109180
5776.000000	1.111227
5774.000000	1.113238
5772.000000	1.115282
5770.000000	1.117187
5768.000000	1.119110
5766.000000	1.121079
5764.000000	1.123492
5762.000000	1.126445
5760.000000	1.128699
5758.000000	1.130386
5756.000000	1.132468
5754.000000	1.135317
5752.000000	1.138559
5750.000000	1.140858
5748.000000	1.142794
5746.000000	1.144670
5744.000000	1.146778
5742.000000	1.149210
5740.000000	1.152048
5738.000000	1.154235
5736.000000	1.156185
5734.000000	1.157971
5732.000000	1.160346
5730.000000	1.162848
5728.000000	1.165109
5726.000000	1.167165
5724.000000	1.169343
5722.000000	1.171834
5720.000000	1.174352
5718.000000	1.176777
5716.000000	1.178993
5714.000000	1.181139
5712.000000	1.183069
5710.000000	1.185129
5708.000000	1.187574
5706.000000	1.190288
5704.000000	1.193055
5702.000000	1.195886
5700.000000	1.199004
5698.000000	1.201567
5696.000000	1.203273
5694.000000	1.205356
5692.000000	1.207670
5690.000000	1.210360
5688.000000	1.212854
5686.000000	1.215519
5684.000000	1.218380
5682.000000	1.221158
5680.000000	1.223512
5678.000000	1.225742
5676.000000	1.227754
5674.000000	1.230426
5672.000000	1.233179
5670.000000	1.236015
5668.000000	1.239328
5666.000000	1.242874
5664.000000	1.245766
5662.000000	1.247970
5660.000000	1.249830
5658.000000	1.251887
5656.000000	1.254069
5654.000000	1.256516
5652.000000	1.259415
5650.000000	1.261849
5648.000000	1.263806
5646.000000	1.265681
5644.000000	1.268251
5642.000000	1.271199
5640.000000	1.273371
5638.000000	1.275506
5636.000000	1.278024
5634.000000	1.281155
5632.000000	1.283792
5630.000000	1.285742
5628.000000	1.287533
5626.000000	1.290016
5624.000000	1.293051
5622.000000	1.295915
5620.000000	1.298267
5618.000000	1.300438
5616.000000	1.303084
5614.000000	1.305660
5612.000000	1.308049
5610.000000	1.310462
5608.000000	1.313754
5606.000000	1.316943
5604.000000	1.318856
5602.000000	1.320240
5600.000000	1.322631
5598.000000	1.326550
5596.000000	1.329844
5594.000000	1.331984
5592.000000	1.333699
5590.000000	1.336320
5588.000000	1.339222
5586.000000	1.342314
5584.000000	1.344908
5582.000000	1.347069
5580.000000	1.349209
5578.000000	1.351515
5576.000000	1.354167
5574.000000	1.357086
5572.000000	1.359799
5570.000000	1.362885
5568.000000	1.365825
5566.000000	1.369158
5564.000000	1.372185
5562.000000	1.374240
5560.000000	1.375862
5558.000000	1.377762
5556.000000	1.380783
5554.000000	1.383754
5552.000000	1.386031
5550.000000	1.388022
5548.000000	1.390767
5546.000000	1.394404
5544.000000	1.398049
5542.000000	1.400927
5540.000000	1.403057
5538.000000	1.404834
5536.000000	1.406611
5534.000000	1.409256
5532.000000	1.412894
5530.000000	1.415729
5528.000000	1.417669
5526.000000	1.420067
5524.000000	1.423893
5522.000000	1.427035
5520.000000	1.428119
5518.000000	1.429648
5516.000000	1.432908
5514.000000	1.436948
5512.000000	1.440192
5510.000000	1.442378
5508.000000	1.444753
5506.000000	1.447322
5504.000000	1.449582
5502.000000	1.452072
5500.000000	1.455089
5498.000000	1.458626
5496.000000	1.461481
5494.000000	1.463014
5492.000000	1.465041
5490.000000	1.467849
5488.000000	1.471401
5486.000000	1.474605
5484.000000	1.477436
5482.000000	1.480325
5480.000000	1.483211
5478.000000	1.486244
5476.000000	1.488010
5474.000000	1.489318
5472.000000	1.491332
5470.000000	1.495102
5468.000000	1.499079
5466.000000	1.501770
5464.000000	1.504115
5462.000000	1.506687
5460.000000	1.508978
5458.000000	1.511404
5456.000000	1.514464
5454.000000	1.517857
5452.000000	1.520242
5450.000000	1.522700
5448.000000	1.525100
5446.000000	1.527099
5444.000000	1.528524
5442.000000	1.530976
5440.000000	1.534700
5438.000000	1.538064
5436.000000	1.540950
5434.000000	1.543292
5432.000000	1.545642
5430.000000	1.547817
5428.000000	1.550138
5426.000000	1.553850
5424.000000	1.557892
5422.000000	1.561241
5420.000000	1.563603
5418.000000	1.566423
5416.000000	1.568592
5414.000000	1.569534
5412.000000	1.571021
5410.000000	1.574275
5408.000000	1.578208
5406.000000	1.581590
5404.000000	1.585095
5402.000000	1.588953
5400.000000	1.592247
5398.000000	1.594996
5396.000000	1.596906
5394.000000	1.598295
5392.000000	1.600247
5390.000000	1.603639
5388.000000	1.607711
5386.000000	1.610746
5384.000000	1.612622
5382.000000	1.615658
5380.000000	1.619991
5378.000000	1.623791
5376.000000	1.626304
5374.000000	1.628346
5372.000000	1.631661
5370.000000	1.635035
5368.000000	1.637952
5366.000000	1.640581
5364.000000	1.643193
5362.000000	1.645823
5360.000000	1.648143
5358.000000	1.650773
5356.000000	1.653451
5354.000000	1.655381
5352.000000	1.657119
5350.000000	1.660062
5348.000000	1.663578
5346.000000	1.665882
5344.000000	1.667488
5342.000000	1.670136
5340.000000	1.673513
5338.000000	1.676218
5336.000000	1.678560
5334.000000	1.682021
5332.000000	1.685705
5330.000000	1.688843
5328.000000	1.691334
5326.000000	1.694154
5324.000000	1.697492
5322.000000	1.701237
5320.000000	1.704687
5318.000000	1.707403
5316.000000	1.709586
5314.000000	1.711999
5312.000000	1.715315
5310.000000	1.718994
5308.000000	1.722171
5306.000000	1.724445
5304.000000	1.727281
5302.000000	1.730611
5300.000000	1.733399
5298.000000	1.735377
5296.000000	1.737874
5294.000000	1.741035
5292.000000	1.743946
5290.000000	1.746947
5288.000000	1.750154
5286.000000	1.753443
5284.000000	1.756943
5282.000000	1.759916
5280.000000	1.762073
5278.000000	1.764593
5276.000000	1.768236
5274.000000	1.771418
5272.000000	1.773190
5270.000000	1.775435
5268.000000	1.778774
5266.000000	1.781888
5264.000000	1.783997
5262.000000	1.785901
5260.000000	1.788617
5258.000000	1.792393
5256.000000	1.795785
5254.000000	1.798012
5252.000000	1.800050
5250.000000	1.802819
5248.000000	1.805404
5246.000000	1.807163
5244.000000	1.809845
5242.000000	1.814145
5240.000000	1.818889
5238.000000	1.822135
5236.000000	1.824807
5234.000000	1.827444
5232.000000	1.829647
5230.000000	1.831948
5228.000000	1.834499
5226.000000	1.837210
5224.000000	1.839679
5222.000000	1.842911
5220.000000	1.847025
5218.000000	1.850965
5216.000000	1.854347
5214.000000	1.857213
5212.000000	1.859892
5210.000000	1.862188
5208.000000	1.863849
5206.000000	1.865241
5204.000000	1.868497
5202.000000	1.873434
5200.000000	1.877745
5198.000000	1.880218
5196.000000	1.882363
5194.000000	1.885834
5192.000000	1.889835
5190.000000	1.893579
5188.000000	1.896455
5186.000000	1.898559
5184.000000	1.901112
5182.000000	1.903730
5180.000000	1.906606
5178.000000	1.909828
5176.000000	1.913504
5174.000000	1.916754
5172.000000	1.919325
5170.000000	1.922158
5168.000000	1.925285
5166.000000	1.928697
5164.000000	1.932058
5162.000000	1.935093
5160.000000	1.938617
5158.000000	1.942259
5156.000000	1.945020
5154.000000	1.946581
5152.000000	1.948557
5150.000000	1.951540
5148.000000	1.955439
5146.000000	1.958704
5144.000000	1.961208
5142.000000	1.963686
5140.000000	1.967314
5138.000000	1.971323
5136.000000	1.974667
5134.000000	1.977098
5132.000000	1.979297
5130.000000	1.982122
5128.000000	1.986222
5126.000000	1.990431
5124.000000	1.993390
5122.000000	1.995107
5120.000000	1.997304
5118.000000	2.000728
5116.000000	2.004131
5114.000000	2.006702
5112.000000	2.009447
5110.000000	2.012808
5108.000000	2.016051
5106.000000	2.018485
5104.000000	2.021279
5102.000000	2.024341
5100.000000	2.027650
5098.000000	2.031111
5096.000000	2.034861
5094.000000	2.038198
5092.000000	2.040541
5090.000000	2.042608
5088.000000	2.044850
5086.000000	2.048515
5084.000000	2.052659
5082.000000	2.056270
5080.000000	2.058911
5078.000000	2.061382
5076.000000	2.064371
5074.000000	2.068038
5072.000000	2.071711
5070.000000	2.074387
5068.000000	2.076727
5066.000000	2.079947
5064.000000	2.083673
5062.000000	2.087224
5060.000000	2.089695
5058.000000	2.091729
5056.000000	2.094523
5054.000000	2.098043
5052.000000	2.100975
5050.000000	2.103714
5048.000000	2.107348
5046.000000	2.111119
5044.000000	2.114184
5042.000000	2.117168
5040.000000	2.120433
5038.000000	2.123617
5036.000000	2.126427
5034.000000	2.128858
5032.000000	2.131185
5030.000000	2.133865
5028.000000	2.137286
5026.000000	2.141069
5024.000000	2.144749
5022.000000	2.147792
5020.000000	2.149987
5018.000000	2.152578
5016.000000	2.156466
5014.000000	2.160255
5012.000000	2.162491
5010.000000	2.164560
5008.000000	2.167868
5006.000000	2.171629
5004.000000	2.175316
5002.000000	2.178632
5000.000000	2.181765
4998.000000	2.184825
4996.000000	2.187676
4994.000000	2.190165
4992.000000	2.193064
4990.000000	2.196751
4988.000000	2.201046
4986.000000	2.204934
4984.000000	2.208019
4982.000000	2.210773
4980.000000	2.214177
4978.000000	2.217798
4976.000000	2.220877
4974.000000	2.223262
4972.000000	2.225382
4970.000000	2.228160
4968.000000	2.231830
4966.000000	2.235562
4964.000000	2.239383
4962.000000	2.243335
4960.000000	2.246743
4958.000000	2.248808
4956.000000	2.250943
4954.000000	2.253635
4952.000000	2.256471
4950.000000	2.259002
4948.000000	2.262173
4946.000000	2.265869
4944.000000	2.268827
4942.000000	2.271619
4940.000000	2.274557
4938.000000	2.277946
4936.000000	2.281401
4934.000000	2.284934
4932.000000	2.287689
4930.000000	2.290743
4928.000000	2.294721
4926.000000	2.298307
4924.000000	2.300411
4922.000000	2.302825
4920.000000	2.306366
4918.000000	2.310005
4916.000000	2.312708
4914.000000	2.315439
4912.000000	2.318736
4910.000000	2.322130
4908.000000	2.324999
4906.000000	2.328026
4904.000000	2.331409
4902.000000	2.335016
4900.000000	2.338468
4898.000000	2.341757
4896.000000	2.344810
4894.000000	2.347994
4892.000000	2.351812
4890.000000	2.355697
4888.000000	2.358766
4886.000000	2.361558
4884.000000	2.364801
4882.000000	2.367986
4880.000000	2.370948
4878.000000	2.374180
4876.000000	2.376855
4874.000000	2.379369
4872.000000	2.382876
4870.000000	2.386859
4868.000000	2.390399
4866.000000	2.393081
4864.000000	2.395417
4862.000000	2.397898
4860.000000	2.400985
4858.000000	2.404087
4856.000000	2.407376
4854.000000	2.411074
4852.000000	2.414567
4850.000000	2.417945
4848.000000	2.421088
4846.000000	2.424020
4844.000000	2.426647
4842.000000	2.430041
4840.000000	2.434203
4838.000000	2.438264
4836.000000	2.441424
4834.000000	2.444129
4832.000000	2.446858
4830.000000	2.449768
4828.000000	2.452994
4826.000000	2.456193
4824.000000	2.459329
4822.000000	2.462201
4820.000000	2.464825
4818.000000	2.467728
4816.000000	2.471631
4814.000000	2.475739
4812.000000	2.479469
4810.000000	2.482518
4808.000000	2.485562
4806.000000	2.489251
4804.000000	2.493144
4802.000000	2.496321
4800.000000	2.498877
4798.000000	2.501750
4796.000000	2.504898
4794.000000	2.508281
4792.000000	2.511826
4790.000000	2.515446
4788.000000	2.518883
4786.000000	2.522626
4784.000000	2.526533
4782.000000	2.530023
4780.000000	2.532732
4778.000000	2.535268
4776.000000	2.537989
4774.000000	2.540907
4772.000000	2.544033
4770.000000	2.547620
4768.000000	2.550901
4766.000000	2.553825
4764.000000	2.557264
4762.000000	2.560781
4760.000000	2.563494
4758.000000	2.566209
4756.000000	2.569774
4754.000000	2.573841
4752.000000	2.577720
4750.000000	2.580784
4748.000000	2.583324
4746.000000	2.586617
4744.000000	2.590332
4742.000000	2.593250
4740.000000	2.595795
4738.000000	2.599226
4736.000000	2.602761
4734.000000	2.605838
4732.000000	2.609350
4730.000000	2.612659
4728.000000	2.615658
4726.000000	2.619121
4724.000000	2.622874
4722.000000	2.626129
4720.000000	2.629374
4718.000000	2.632600
4716.000000	2.635689
4714.000000	2.639017
4712.000000	2.642589
4710.000000	2.646136
4708.000000	2.649589
4706.000000	2.652607
4704.000000	2.655095
4702.000000	2.658082
4700.000000	2.661758
4698.000000	2.665844
4696.000000	2.670244
4694.000000	2.674329
4692.000000	2.677512
4690.000000	2.680899
4688.000000	2.684618
4686.000000	2.687402
4684.000000	2.689789
4682.000000	2.692906
4680.000000	2.697002
4678.000000	2.700694
4676.000000	2.703545
4674.000000	2.706592
4672.000000	2.710389
4670.000000	2.713669
4668.000000	2.715783
4666.000000	2.718524
4664.000000	2.722628
4662.000000	2.726719
4660.000000	2.729423
4658.000000	2.732572
4656.000000	2.736739
4654.000000	2.740567
4652.000000	2.743988
4650.000000	2.747675
4648.000000	2.750668
4646.000000	2.753610
4644.000000	2.757765
4642.000000	2.761831
4640.000000	2.764703
4638.000000	2.767529
4636.000000	2.770631
4634.000000	2.773467
4632.000000	2.776525
4630.000000	2.780314
4628.000000	2.783684
4626.000000	2.786848
4624.000000	2.790604
4622.000000	2.794380
4620.000000	2.797361
4618.000000	2.800603
4616.000000	2.804300
4614.000000	2.808019
4612.000000	2.812062
4610.000000	2.816142
4608.000000	2.819698
4606.000000	2.822927
4604.000000	2.826193
4602.000000	2.829407
4600.000000	2.832820
4598.000000	2.836198
4596.000000	2.839572
4594.000000	2.842803
4592.000000	2.846324
4590.000000	2.850575
4588.000000	2.854939
4586.000000	2.858003
4584.000000	2.860691
4582.000000	2.864070
4580.000000	2.867644
4578.000000	2.870779
4576.000000	2.873804
4574.000000	2.877177
4572.000000	2.880695
4570.000000	2.884525
4568.000000	2.888205
4566.000000	2.891395
4564.000000	2.894220
4562.000000	2.897416
4560.000000	2.901242
4558.000000	2.905579
4556.000000	2.909640
4554.000000	2.913068
4552.000000	2.916207
4550.000000	2.919592
4548.000000	2.922770
4546.000000	2.925709
4544.000000	2.929451
4542.000000	2.933805
4540.000000	2.937297
4538.000000	2.940404
4536.000000	2.943999
4534.000000	2.947556
4532.000000	2.950632
4530.000000	2.953707
4528.000000	2.957282
4526.000000	2.960712
4524.000000	2.964397
4522.000000	2.968605
4520.000000	2.972908
4518.000000	2.976531
4516.000000	2.979717
4514.000000	2.982724
4512.000000	2.986194
4510.000000	2.989724
4508.000000	2.993241
4506.000000	2.997363
4504.000000	3.001756
4502.000000	3.005260
4500.000000	3.008251
4498.000000	3.010932
4496.000000	3.013413
4494.000000	3.016958
4492.000000	3.021954
4490.000000	3.026669
4488.000000	3.030382
4486.000000	3.033914
4484.000000	3.036855
4482.000000	3.039553
4480.000000	3.042932
4478.000000	3.046577
4476.000000	3.049873
4474.000000	3.053560
4472.000000	3.057515
4470.000000	3.061045
4468.000000	3.063819
4466.000000	3.066406
4464.000000	3.069787
4462.000000	3.073538
4460.000000	3.077542
4458.000000	3.081588
4456.000000	3.085189
4454.000000	3.088468
4452.000000	3.092069
4450.000000	3.095426
4448.000000	3.098069
4446.000000	3.100694
4444.000000	3.104284
4442.000000	3.108635
4440.000000	3.112705
4438.000000	3.116576
4436.000000	3.120324
4434.000000	3.123721
4432.000000	3.126986
4430.000000	3.130476
4428.000000	3.133748
4426.000000	3.137025
4424.000000	3.140742
4422.000000	3.143928
4420.000000	3.146513
4418.000000	3.149959
4416.000000	3.154458
4414.000000	3.158422
4412.000000	3.161495
4410.000000	3.164437
4408.000000	3.168002
4406.000000	3.172084
4404.000000	3.175981
4402.000000	3.179766
4400.000000	3.183852
4398.000000	3.187928
4396.000000	3.191554
4394.000000	3.194812
4392.000000	3.197685
4390.000000	3.200573
4388.000000	3.203920
4386.000000	3.207850
4384.000000	3.211425
4382.000000	3.214694
4380.000000	3.218431
4378.000000	3.222045
4376.000000	3.225211
4374.000000	3.228720
4372.000000	3.232012
4370.000000	3.234614
4368.000000	3.237285
4366.000000	3.240053
4364.000000	3.242895
4362.000000	3.246631
4360.000000	3.250784
4358.000000	3.254086
4356.000000	3.257093
4354.000000	3.260938
4352.000000	3.264544
4350.000000	3.267412
4348.000000	3.270777
4346.000000	3.275080
4344.000000	3.279389
4342.000000	3.282993
4340.000000	3.286249
4338.000000	3.289864
4336.000000	3.293735
4334.000000	3.297061
4332.000000	3.299947
4330.000000	3.303152
4328.000000	3.306747
4326.000000	3.310852
4324.000000	3.315374
4322.000000	3.319292
4320.000000	3.322388
4318.000000	3.326034
4316.000000	3.330660
4314.000000	3.335168
4312.000000	3.338503
4310.000000	3.342061
4308.000000	3.346305
4306.000000	3.349879
4304.000000	3.353402
4302.000000	3.357598
4300.000000	3.361498
4298.000000	3.364997
4296.000000	3.368314
4294.000000	3.371486
4292.000000	3.374662
4290.000000	3.378062
4288.000000	3.381651
4286.000000	3.384864
4284.000000	3.387967
4282.000000	3.391459
4280.000000	3.395179
4278.000000	3.398656
4276.000000	3.401796
4274.000000	3.405333
4272.000000	3.408775
4270.000000	3.411593
4268.000000	3.414810
4266.000000	3.418346
4264.000000	3.421914
4262.000000	3.425735
4260.000000	3.429315
4258.000000	3.432562
4256.000000	3.436080
4254.000000	3.440103
4252.000000	3.444185
4250.000000	3.447725
4248.000000	3.450701
4246.000000	3.453957
4244.000000	3.458178
4242.000000	3.462281
4240.000000	3.465991
4238.000000	3.470153
4236.000000	3.473941
4234.000000	3.476986
4232.000000	3.480174
4230.000000	3.483809
4228.000000	3.487835
4226.000000	3.491716
4224.000000	3.495566
4222.000000	3.499573
4220.000000	3.502894
4218.000000	3.505996
4216.000000	3.510276
4214.000000	3.514684
4212.000000	3.518111
4210.000000	3.521471
4208.000000	3.525173
4206.000000	3.528798
4204.000000	3.533089
4202.000000	3.537690
4200.000000	3.541526
4198.000000	3.545069
4196.000000	3.549241
4194.000000	3.553584
4192.000000	3.557315
4190.000000	3.560569
4188.000000	3.563606
4186.000000	3.566629
4184.000000	3.570680
4182.000000	3.575136
4180.000000	3.579052
4178.000000	3.583161
4176.000000	3.587129
4174.000000	3.590104
4172.000000	3.593578
4170.000000	3.598789
4168.000000	3.603449
4166.000000	3.606047
4164.000000	3.608582
4162.000000	3.611860
4160.000000	3.615169
4158.000000	3.618862
4156.000000	3.622874
4154.000000	3.627012
4152.000000	3.631258
4150.000000	3.635051
4148.000000	3.638746
4146.000000	3.642700
4144.000000	3.646419
4142.000000	3.649856
4140.000000	3.653306
4138.000000	3.656979
4136.000000	3.660976
4134.000000	3.665409
4132.000000	3.670402
4130.000000	3.675122
4128.000000	3.679054
4126.000000	3.682404
4124.000000	3.686243
4122.000000	3.690606
4120.000000	3.694742
4118.000000	3.698576
4116.000000	3.702509
4114.000000	3.706650
4112.000000	3.710158
4110.000000	3.713247
4108.000000	3.717254
4106.000000	3.721467
4104.000000	3.724919
4102.000000	3.728166
4100.000000	3.731949
4098.000000	3.735850
4096.000000	3.739317
4094.000000	3.742802
4092.000000	3.746299
4090.000000	3.749994
4088.000000	3.754249
4086.000000	3.758714
4084.000000	3.762905
4082.000000	3.766509
4080.000000	3.769737
4078.000000	3.773115
4076.000000	3.776751
4074.000000	3.780543
4072.000000	3.784478
4070.000000	3.788840
4068.000000	3.793645
4066.000000	3.798094
4064.000000	3.802040
4062.000000	3.805909
4060.000000	3.809591
4058.000000	3.813402
4056.000000	3.817133
4054.000000	3.820905
4052.000000	3.825427
4050.000000	3.829723
4048.000000	3.833385
4046.000000	3.837275
4044.000000	3.840625
4042.000000	3.844113
4040.000000	3.849285
4038.000000	3.853787
4036.000000	3.856929
4034.000000	3.860742
4032.000000	3.864824
4030.000000	3.868670
4028.000000	3.872218
4026.000000	3.876143
4024.000000	3.880792
4022.000000	3.884809
4020.000000	3.888509
4018.000000	3.892806
4016.000000	3.896886
4014.000000	3.900559
4012.000000	3.904668
4010.000000	3.908788
4008.000000	3.912782
4006.000000	3.917250
4004.000000	3.921805
4002.000000	3.926326
4000.000000	3.930369
3998.000000	3.933623
3996.000000	3.937220
3994.000000	3.941560
3992.000000	3.945853
3990.000000	3.949647
3988.000000	3.953491
3986.000000	3.957616
3984.000000	3.960967
3982.000000	3.963731
3980.000000	3.967360
3978.000000	3.971592
3976.000000	3.975178
3974.000000	3.978318
3972.000000	3.982078
3970.000000	3.986177
3968.000000	3.989898
3966.000000	3.993949
3964.000000	3.998390
3962.000000	4.002031
3960.000000	4.005078
3958.000000	4.008397
3956.000000	4.012482
3954.000000	4.016904
3952.000000	4.019677
3950.000000	4.020814
3948.000000	4.023000
3946.000000	4.027434
3944.000000	4.031440
3942.000000	4.033503
3940.000000	4.038185
3938.000000	4.045944
3936.000000	4.051142
3934.000000	4.052261
3932.000000	4.051883
3930.000000	4.054329
3928.000000	4.061343
3926.000000	4.067262
3924.000000	4.069063
3922.000000	4.071495
3920.000000	4.075217
3918.000000	4.075938
3916.000000	4.077789
3914.000000	4.087142
3912.000000	4.099015
3910.000000	4.106382
3908.000000	4.108121
3906.000000	4.101218
3904.000000	4.085712
3902.000000	4.074717
3900.000000	4.078260
3898.000000	4.093423
3896.000000	4.114297
3894.000000	4.127757
3892.000000	4.123251
3890.000000	4.116702
3888.000000	4.121842
3886.000000	4.121330
3884.000000	4.117279
3882.000000	4.126788
3880.000000	4.136541
3878.000000	4.144396
3876.000000	4.155786
3874.000000	4.157120
3872.000000	4.147295
3870.000000	4.133037
3868.000000	4.130509
3866.000000	4.145437
3864.000000	4.155428
3862.000000	4.162924
3860.000000	4.178858
3858.000000	4.188290
3856.000000	4.164987
3854.000000	4.103269
3852.000000	4.070855
3850.000000	4.120612
3848.000000	4.191548
3846.000000	4.221411
3844.000000	4.220593
3842.000000	4.211817
3840.000000	4.197432
3838.000000	4.173646
3836.000000	4.166119
3834.000000	4.192304
3832.000000	4.220890
3830.000000	4.235867
3828.000000	4.247860
3826.000000	4.255176
3824.000000	4.253574
3822.000000	4.237508
3820.000000	4.221596
3818.000000	4.225012
3816.000000	4.225171
3814.000000	4.231473
3812.000000	4.267055
3810.000000	4.292058
3808.000000	4.281161
3806.000000	4.263188
3804.000000	4.263162
3802.000000	4.257148
3800.000000	4.247154
3798.000000	4.269825
3796.000000	4.299806
3794.000000	4.314929
3792.000000	4.328765
3790.000000	4.337261
3788.000000	4.339451
3786.000000	4.340888
3784.000000	4.342770
3782.000000	4.345063
3780.000000	4.343652
3778.000000	4.343183
3776.000000	4.353169
3774.000000	4.365061
3772.000000	4.365162
3770.000000	4.354711
3768.000000	4.350366
3766.000000	4.358363
3764.000000	4.368717
3762.000000	4.376579
3760.000000	4.375381
3758.000000	4.371194
3756.000000	4.374965
3754.000000	4.365753
3752.000000	4.326095
3750.000000	4.291957
3748.000000	4.301603
3746.000000	4.316421
3744.000000	4.300558
3742.000000	4.317853
3740.000000	4.378685
3738.000000	4.400268
3736.000000	4.378750
3734.000000	4.367242
3732.000000	4.379175
3730.000000	4.405040
3728.000000	4.431106
3726.000000	4.439266
3724.000000	4.439575
3722.000000	4.445461
3720.000000	4.452752
3718.000000	4.461916
3716.000000	4.469818
3714.000000	4.463423
3712.000000	4.440101
3710.000000	4.429741
3708.000000	4.451356
3706.000000	4.480619
3704.000000	4.493719
3702.000000	4.491718
3700.000000	4.491934
3698.000000	4.502942
3696.000000	4.512494
3694.000000	4.513250
3692.000000	4.502580
3690.000000	4.475083
3688.000000	4.450746
3686.000000	4.468697
3684.000000	4.513730
3682.000000	4.537117
3680.000000	4.535692
3678.000000	4.517488
3676.000000	4.480522
3674.000000	4.461838
3672.000000	4.479304
3670.000000	4.487435
3668.000000	4.498386
3666.000000	4.537194
3664.000000	4.566360
3662.000000	4.573546
3660.000000	4.573801
3658.000000	4.566944
3656.000000	4.552569
3654.000000	4.550293
3652.000000	4.551375
3650.000000	4.524679
3648.000000	4.501773
3646.000000	4.525083
3644.000000	4.568037
3642.000000	4.591772
3640.000000	4.597530
3638.000000	4.599572
3636.000000	4.601105
3634.000000	4.599356
3632.000000	4.590324
3630.000000	4.562374
3628.000000	4.534764
3626.000000	4.554183
3624.000000	4.595932
3622.000000	4.608404
3620.000000	4.593700
3618.000000	4.580426
3616.000000	4.586645
3614.000000	4.595518
3612.000000	4.593392
3610.000000	4.588859
3608.000000	4.587852
3606.000000	4.598204
3604.000000	4.615314
3602.000000	4.622557
3600.000000	4.621215
3598.000000	4.620696
3596.000000	4.619706
3594.000000	4.617834
3592.000000	4.620166
3590.000000	4.618673
3588.000000	4.605289
3586.000000	4.598931
3584.000000	4.612049
3582.000000	4.626346
3580.000000	4.630682
3578.000000	4.630939
3576.000000	4.631132
3574.000000	4.631612
3572.000000	4.632106
3570.000000	4.627882
3568.000000	4.614246
3566.000000	4.603911
3564.000000	4.610967
3562.000000	4.623609
3560.000000	4.629298
3558.000000	4.631361
3556.000000	4.632364
3554.000000	4.630167
3552.000000	4.625850
3550.000000	4.624125
3548.000000	4.623491
3546.000000	4.619504
3544.000000	4.617234
3542.000000	4.620157
3540.000000	4.622825
3538.000000	4.622183
3536.000000	4.620113
3534.000000	4.618650
3532.000000	4.616798
3530.000000	4.613173
3528.000000	4.608480
3526.000000	4.604363
3524.000000	4.600916
3522.000000	4.597925
3520.000000	4.596401
3518.000000	4.594592
3516.000000	4.592764
3514.000000	4.591212
3512.000000	4.587216
3510.000000	4.581146
3508.000000	4.576453
3506.000000	4.573298
3504.000000	4.567580
3502.000000	4.560412
3500.000000	4.556329
3498.000000	4.553681
3496.000000	4.549688
3494.000000	4.544569
3492.000000	4.539742
3490.000000	4.535349
3488.000000	4.529820
3486.000000	4.523983
3484.000000	4.518545
3482.000000	4.513027
3480.000000	4.509174
3478.000000	4.507098
3476.000000	4.504580
3474.000000	4.501010
3472.000000	4.497826
3470.000000	4.495278
3468.000000	4.493060
3466.000000	4.490156
3464.000000	4.487004
3462.000000	4.485405
3460.000000	4.484473
3458.000000	4.483219
3456.000000	4.481243
3454.000000	4.478545
3452.000000	4.476215
3450.000000	4.474407
3448.000000	4.470565
3446.000000	4.465635
3444.000000	4.463177
3442.000000	4.461869
3440.000000	4.461402
3438.000000	4.461866
3436.000000	4.462485
3434.000000	4.464692
3432.000000	4.467913
3430.000000	4.470794
3428.000000	4.473444
3426.000000	4.476293
3424.000000	4.479366
3422.000000	4.482092
3420.000000	4.484620
3418.000000	4.487248
3416.000000	4.490205
3414.000000	4.491880
3412.000000	4.492787
3410.000000	4.493812
3408.000000	4.494477
3406.000000	4.495324
3404.000000	4.496246
3402.000000	4.496753
3400.000000	4.497454
3398.000000	4.499122
3396.000000	4.501583
3394.000000	4.503430
3392.000000	4.504401
3390.000000	4.506060
3388.000000	4.509003
3386.000000	4.511685
3384.000000	4.513776
3382.000000	4.516029
3380.000000	4.518610
3378.000000	4.520207
3376.000000	4.520648
3374.000000	4.521764
3372.000000	4.522996
3370.000000	4.523414
3368.000000	4.524056
3366.000000	4.525480
3364.000000	4.526849
3362.000000	4.528144
3360.000000	4.530296
3358.000000	4.532198
3356.000000	4.533605
3354.000000	4.535075
3352.000000	4.536516
3350.000000	4.538118
3348.000000	4.539833
3346.000000	4.541387
3344.000000	4.542930
3342.000000	4.543999
3340.000000	4.544924
3338.000000	4.546314
3336.000000	4.547613
3334.000000	4.548879
3332.000000	4.551013
3330.000000	4.553619
3328.000000	4.554758
3326.000000	4.555487
3324.000000	4.557326
3322.000000	4.558898
3320.000000	4.559734
3318.000000	4.560723
3316.000000	4.562745
3314.000000	4.564517
3312.000000	4.564950
3310.000000	4.565632
3308.000000	4.567386
3306.000000	4.568306
3304.000000	4.568525
3302.000000	4.570399
3300.000000	4.573621
3298.000000	4.575576
3296.000000	4.576179
3294.000000	4.576790
3292.000000	4.578121
3290.000000	4.580161
3288.000000	4.582105
3286.000000	4.583497
3284.000000	4.584583
3282.000000	4.585817
3280.000000	4.587634
3278.000000	4.589542
3276.000000	4.590665
3274.000000	4.591357
3272.000000	4.593014
3270.000000	4.594950
3268.000000	4.596348
3266.000000	4.598596
3264.000000	4.601604
3262.000000	4.603009
3260.000000	4.603869
3258.000000	4.606401
3256.000000	4.609446
3254.000000	4.611329
3252.000000	4.613272
3250.000000	4.615781
3248.000000	4.617296
3246.000000	4.617971
3244.000000	4.619467
3242.000000	4.622746
3240.000000	4.626096
3238.000000	4.627882
3236.000000	4.629777
3234.000000	4.632069
3232.000000	4.633623
3230.000000	4.634986
3228.000000	4.637183
3226.000000	4.639390
3224.000000	4.641776
3222.000000	4.643932
3220.000000	4.645094
3218.000000	4.646632
3216.000000	4.649057
3214.000000	4.651219
3212.000000	4.653868
3210.000000	4.657297
3208.000000	4.660172
3206.000000	4.663042
3204.000000	4.666420
3202.000000	4.670121
3200.000000	4.673749
3198.000000	4.677210
3196.000000	4.680738
3194.000000	4.684206
3192.000000	4.687982
3190.000000	4.692363
3188.000000	4.696272
3186.000000	4.699399
3184.000000	4.702847
3182.000000	4.706440
3180.000000	4.709782
3178.000000	4.713210
3176.000000	4.717148
3174.000000	4.721417
3172.000000	4.725736
3170.000000	4.730161
3168.000000	4.733850
3166.000000	4.737043
3164.000000	4.740099
3162.000000	4.743883
3160.000000	4.748281
3158.000000	4.752565
3156.000000	4.756523
3154.000000	4.759563
3152.000000	4.762447
3150.000000	4.766228
3148.000000	4.770411
3146.000000	4.774123
3144.000000	4.778032
3142.000000	4.782036
3140.000000	4.785150
3138.000000	4.788282
3136.000000	4.792430
3134.000000	4.796297
3132.000000	4.798760
3130.000000	4.801532
3128.000000	4.804315
3126.000000	4.806610
3124.000000	4.809306
3122.000000	4.812751
3120.000000	4.816253
3118.000000	4.818524
3116.000000	4.819829
3114.000000	4.822188
3112.000000	4.826126
3110.000000	4.830018
3108.000000	4.832954
3106.000000	4.835924
3104.000000	4.839715
3102.000000	4.843003
3100.000000	4.846468
3098.000000	4.850828
3096.000000	4.854956
3094.000000	4.859143
3092.000000	4.863573
3090.000000	4.867212
3088.000000	4.870447
3086.000000	4.873961
3084.000000	4.877669
3082.000000	4.881346
3080.000000	4.884164
3078.000000	4.887174
3076.000000	4.890751
3074.000000	4.893483
3072.000000	4.895329
3070.000000	4.896411
3068.000000	4.897431
3066.000000	4.899209
3064.000000	4.901988
3062.000000	4.905141
3060.000000	4.908605
3058.000000	4.912106
3056.000000	4.915724
3054.000000	4.919699
3052.000000	4.923670
3050.000000	4.927365
3048.000000	4.930926
3046.000000	4.934571
3044.000000	4.937786
3042.000000	4.939458
3040.000000	4.940007
3038.000000	4.941870
3036.000000	4.944090
3034.000000	4.944802
3032.000000	4.944727
3030.000000	4.942939
3028.000000	4.939937
3026.000000	4.936252
3024.000000	4.931456
3022.000000	4.926265
3020.000000	4.921239
3018.000000	4.919177
3016.000000	4.923671
3014.000000	4.934373
3012.000000	4.949316
3010.000000	4.965004
3008.000000	4.979123
3006.000000	4.990823
3004.000000	4.998766
3002.000000	5.004115
3000.000000	5.008908
2998.000000	5.012597
2996.000000	5.015617
2994.000000	5.017955
2992.000000	5.019080
2990.000000	5.019619
2988.000000	5.019377
2986.000000	5.018196
2984.000000	5.016542
2982.000000	5.012937
2980.000000	5.006334
2978.000000	4.997418
2976.000000	4.985512
2974.000000	4.969774
2972.000000	4.949369
2970.000000	4.922642
2968.000000	4.891396
2966.000000	4.859461
2964.000000	4.831901
2962.000000	4.814604
2960.000000	4.811230
2958.000000	4.819527
2956.000000	4.833881
2954.000000	4.849349
2952.000000	4.862947
2950.000000	4.872710
2948.000000	4.876995
2946.000000	4.874546
2944.000000	4.864373
2942.000000	4.846215
2940.000000	4.821761
2938.000000	4.794304
2936.000000	4.767877
2934.000000	4.743721
2932.000000	4.721548
2930.000000	4.700802
2928.000000	4.680944
2926.000000	4.665992
2924.000000	4.662295
2922.000000	4.674878
2920.000000	4.704278
2918.000000	4.745034
2916.000000	4.790432
2914.000000	4.835897
2912.000000	4.877836
2910.000000	4.913048
2908.000000	4.940424
2906.000000	4.962274
2904.000000	4.981128
2902.000000	4.997155
2900.000000	5.011375
2898.000000	5.024696
2896.000000	5.038778
2894.000000	5.052320
2892.000000	5.064306
2890.000000	5.075301
2888.000000	5.085255
2886.000000	5.094179
2884.000000	5.101654
2882.000000	5.106269
2880.000000	5.107682
2878.000000	5.106358
2876.000000	5.102725
2874.000000	5.095587
2872.000000	5.084950
2870.000000	5.070309
2868.000000	5.049120
2866.000000	5.020471
2864.000000	4.989575
2862.000000	4.964544
2860.000000	4.951580
2858.000000	4.952680
2856.000000	4.965640
2854.000000	4.984647
2852.000000	5.005166
2850.000000	5.028420
2848.000000	5.057603
2846.000000	5.091818
2844.000000	5.125599
2842.000000	5.153163
2840.000000	5.173775
2838.000000	5.189984
2836.000000	5.203300
2834.000000	5.214630
2832.000000	5.224547
2830.000000	5.233308
2828.000000	5.240208
2826.000000	5.246409
2824.000000	5.252443
2822.000000	5.258228
2820.000000	5.263502
2818.000000	5.267807
2816.000000	5.272007
2814.000000	5.276051
2812.000000	5.279830
2810.000000	5.284341
2808.000000	5.287657
2806.000000	5.289965
2804.000000	5.292934
2802.000000	5.295459
2800.000000	5.297778
2798.000000	5.300439
2796.000000	5.302584
2794.000000	5.304717
2792.000000	5.307640
2790.000000	5.311039
2788.000000	5.314973
2786.000000	5.319498
2784.000000	5.324239
2782.000000	5.328632
2780.000000	5.332672
2778.000000	5.337344
2776.000000	5.341811
2774.000000	5.345287
2772.000000	5.348480
2770.000000	5.351983
2768.000000	5.355381
2766.000000	5.357985
2764.000000	5.360551
2762.000000	5.362234
2760.000000	5.364348
2758.000000	5.367025
2756.000000	5.369127
2754.000000	5.371240
2752.000000	5.373405
2750.000000	5.375863
2748.000000	5.378109
2746.000000	5.379682
2744.000000	5.380985
2742.000000	5.382018
2740.000000	5.384156
2738.000000	5.386256
2736.000000	5.387767
2734.000000	5.388890
2732.000000	5.390387
2730.000000	5.391861
2728.000000	5.393302
2726.000000	5.395400
2724.000000	5.396769
2722.000000	5.397454
2720.000000	5.398184
2718.000000	5.399483
2716.000000	5.401037
2714.000000	5.402006
2712.000000	5.403075
2710.000000	5.403350
2708.000000	5.403123
2706.000000	5.403792
2704.000000	5.405211
2702.000000	5.405712
2700.000000	5.406296
2698.000000	5.407861
2696.000000	5.409894
2694.000000	5.411930
2692.000000	5.413652
2690.000000	5.414233
2688.000000	5.414640
2686.000000	5.416080
2684.000000	5.417966
2682.000000	5.419519
2680.000000	5.420561
2678.000000	5.421183
2676.000000	5.421880
2674.000000	5.422823
2672.000000	5.424041
2670.000000	5.425095
2668.000000	5.426136
2666.000000	5.426602
2664.000000	5.426861
2662.000000	5.427255
2660.000000	5.427040
2658.000000	5.426655
2656.000000	5.427382
2654.000000	5.428791
2652.000000	5.430666
2650.000000	5.432412
2648.000000	5.433830
2646.000000	5.435366
2644.000000	5.436702
2642.000000	5.437386
2640.000000	5.438075
2638.000000	5.439921
2636.000000	5.442426
2634.000000	5.443861
2632.000000	5.445337
2630.000000	5.446620
2628.000000	5.447258
2626.000000	5.448465
2624.000000	5.450045
2622.000000	5.451273
2620.000000	5.451998
2618.000000	5.452240
2616.000000	5.453331
2614.000000	5.454828
2612.000000	5.455815
2610.000000	5.457398
2608.000000	5.458220
2606.000000	5.458610
2604.000000	5.458994
2602.000000	5.458358
2600.000000	5.458593
2598.000000	5.459624
2596.000000	5.460179
2594.000000	5.459447
2592.000000	5.458842
2590.000000	5.460242
2588.000000	5.463019
2586.000000	5.466284
2584.000000	5.469286
2582.000000	5.471724
2580.000000	5.474391
2578.000000	5.477095
2576.000000	5.479572
2574.000000	5.481609
2572.000000	5.484089
2570.000000	5.487060
2568.000000	5.488285
2566.000000	5.489123
2564.000000	5.491141
2562.000000	5.493502
2560.000000	5.495072
2558.000000	5.495767
2556.000000	5.496638
2554.000000	5.497744
2552.000000	5.499594
2550.000000	5.500923
2548.000000	5.502389
2546.000000	5.505041
2544.000000	5.506815
2542.000000	5.507405
2540.000000	5.507886
2538.000000	5.509370
2536.000000	5.511801
2534.000000	5.513510
2532.000000	5.514701
2530.000000	5.515777
2528.000000	5.516378
2526.000000	5.517289
2524.000000	5.519289
2522.000000	5.521354
2520.000000	5.522637
2518.000000	5.523999
2516.000000	5.525096
2514.000000	5.526263
2512.000000	5.528063
2510.000000	5.529220
2508.000000	5.529249
2506.000000	5.530449
2504.000000	5.532617
2502.000000	5.533696
2500.000000	5.534639
2498.000000	5.535892
2496.000000	5.536827
2494.000000	5.538430
2492.000000	5.540468
2490.000000	5.542330
2488.000000	5.544736
2486.000000	5.546722
2484.000000	5.547767
2482.000000	5.548818
2480.000000	5.549733
2478.000000	5.550323
2476.000000	5.552112
2474.000000	5.553431
2472.000000	5.553461
2470.000000	5.554563
2468.000000	5.555484
2466.000000	5.556149
2464.000000	5.557498
2462.000000	5.558052
2460.000000	5.557992
2458.000000	5.559499
2456.000000	5.562364
2454.000000	5.564034
2452.000000	5.564163
2450.000000	5.564703
2448.000000	5.565790
2446.000000	5.565957
2444.000000	5.565770
2442.000000	5.565813
2440.000000	5.567453
2438.000000	5.568845
2436.000000	5.569325
2434.000000	5.570649
2432.000000	5.571956
2430.000000	5.573027
2428.000000	5.573870
2426.000000	5.575297
2424.000000	5.577250
2422.000000	5.576830
2420.000000	5.575186
2418.000000	5.575981
2416.000000	5.577772
2414.000000	5.578961
2412.000000	5.580032
2410.000000	5.579932
2408.000000	5.579328
2406.000000	5.580995
2404.000000	5.583002
2402.000000	5.583489
2400.000000	5.583746
2398.000000	5.585130
2396.000000	5.587235
2394.000000	5.588013
2392.000000	5.589162
2390.000000	5.590044
2388.000000	5.589616
2386.000000	5.590289
2384.000000	5.591038
2382.000000	5.589501
2380.000000	5.586542
2378.000000	5.581855
2376.000000	5.574009
2374.000000	5.563230
2372.000000	5.549781
2370.000000	5.534540
2368.000000	5.520395
2366.000000	5.508281
2364.000000	5.498152
2362.000000	5.491705
2360.000000	5.491817
2358.000000	5.499304
2356.000000	5.512795
2354.000000	5.530417
2352.000000	5.551378
2350.000000	5.571453
2348.000000	5.578730
2346.000000	5.567304
2344.000000	5.546682
2342.000000	5.525440
2340.000000	5.508570
2338.000000	5.501477
2336.000000	5.505186
2334.000000	5.514143
2332.000000	5.522515
2330.000000	5.529157
2328.000000	5.535850
2326.000000	5.542968
2324.000000	5.550921
2322.000000	5.559729
2320.000000	5.567787
2318.000000	5.574086
2316.000000	5.579562
2314.000000	5.584133
2312.000000	5.588073
2310.000000	5.592266
2308.000000	5.595999
2306.000000	5.598202
2304.000000	5.600557
2302.000000	5.602952
2300.000000	5.604263
2298.000000	5.605348
2296.000000	5.607092
2294.000000	5.608730
2292.000000	5.610214
2290.000000	5.610639
2288.000000	5.610325
2286.000000	5.610601
2284.000000	5.611655
2282.000000	5.611894
2280.000000	5.611392
2278.000000	5.611849
2276.000000	5.611949
2274.000000	5.610771
2272.000000	5.609465
2270.000000	5.608050
2268.000000	5.607471
2266.000000	5.609056
2264.000000	5.609955
2262.000000	5.609873
2260.000000	5.610938
2258.000000	5.611411
2256.000000	5.612275
2254.000000	5.612452
2252.000000	5.612777
2250.000000	5.613707
2248.000000	5.614998
2246.000000	5.616436
2244.000000	5.616020
2242.000000	5.615623
2240.000000	5.618588
2238.000000	5.621692
2236.000000	5.623082
2234.000000	5.623546
2232.000000	5.624096
2230.000000	5.626024
2228.000000	5.627279
2226.000000	5.628524
2224.000000	5.630612
2222.000000	5.632185
2220.000000	5.632491
2218.000000	5.631096
2216.000000	5.631868
2214.000000	5.634048
2212.000000	5.635613
2210.000000	5.636265
2208.000000	5.636992
2206.000000	5.639596
2204.000000	5.641311
2202.000000	5.641477
2200.000000	5.641120
2198.000000	5.641279
2196.000000	5.642496
2194.000000	5.643069
2192.000000	5.643631
2190.000000	5.644776
2188.000000	5.646488
2186.000000	5.647209
2184.000000	5.646998
2182.000000	5.647346
2180.000000	5.646945
2178.000000	5.645949
2176.000000	5.646869
2174.000000	5.647847
2172.000000	5.648321
2170.000000	5.647718
2168.000000	5.647566
2166.000000	5.649557
2164.000000	5.652411
2162.000000	5.653417
2160.000000	5.652779
2158.000000	5.653380
2156.000000	5.654621
2154.000000	5.655277
2152.000000	5.656143
2150.000000	5.657048
2148.000000	5.657291
2146.000000	5.657863
2144.000000	5.658664
2142.000000	5.659557
2140.000000	5.660214
2138.000000	5.660244
2136.000000	5.660111
2134.000000	5.660756
2132.000000	5.661457
2130.000000	5.662173
2128.000000	5.662647
2126.000000	5.662611
2124.000000	5.663959
2122.000000	5.664779
2120.000000	5.664963
2118.000000	5.665647
2116.000000	5.666025
2114.000000	5.666929
2112.000000	5.668491
2110.000000	5.669039
2108.000000	5.669407
2106.000000	5.669688
2104.000000	5.670257
2102.000000	5.671667
2100.000000	5.673204
2098.000000	5.674847
2096.000000	5.676283
2094.000000	5.676985
2092.000000	5.678081
2090.000000	5.678884
2088.000000	5.680632
2086.000000	5.682416
2084.000000	5.683108
2082.000000	5.683830
2080.000000	5.685233
2078.000000	5.686484
2076.000000	5.687694
2074.000000	5.689213
2072.000000	5.691019
2070.000000	5.692667
2068.000000	5.693242
2066.000000	5.693539
2064.000000	5.695205
2062.000000	5.698046
2060.000000	5.699870
2058.000000	5.701844
2056.000000	5.703124
2054.000000	5.703725
2052.000000	5.705862
2050.000000	5.707962
2048.000000	5.709728
2046.000000	5.711101
2044.000000	5.711713
2042.000000	5.711848
2040.000000	5.713375
2038.000000	5.715609
2036.000000	5.716576
2034.000000	5.717185
2032.000000	5.718166
2030.000000	5.719055
2028.000000	5.719416
2026.000000	5.721659
2024.000000	5.724019
2022.000000	5.724197
2020.000000	5.724467
2018.000000	5.724003
2016.000000	5.724150
2014.000000	5.726710
2012.000000	5.729732
2010.000000	5.731306
2008.000000	5.731595
2006.000000	5.732665
2004.000000	5.733608
2002.000000	5.734283
2000.000000	5.735374
1998.000000	5.735620
1996.000000	5.735800
1994.000000	5.735090
1992.000000	5.732087
1990.000000	5.732659
1988.000000	5.735034
1986.000000	5.735954
1984.000000	5.737076
1982.000000	5.737155
1980.000000	5.736803
1978.000000	5.736047
1976.000000	5.735423
1974.000000	5.734732
1972.000000	5.734435
1970.000000	5.733620
1968.000000	5.730137
1966.000000	5.727116
1964.000000	5.727646
1962.000000	5.726640
1960.000000	5.720975
1958.000000	5.715692
1956.000000	5.718810
1954.000000	5.722746
1952.000000	5.722554
1950.000000	5.720369
1948.000000	5.718371
1946.000000	5.716433
1944.000000	5.711695
1942.000000	5.705852
1940.000000	5.708674
1938.000000	5.712417
1936.000000	5.712101
1934.000000	5.710706
1932.000000	5.709173
1930.000000	5.707858
1928.000000	5.706314
1926.000000	5.703485
1924.000000	5.697012
1922.000000	5.691505
1920.000000	5.688174
1918.000000	5.677129
1916.000000	5.677627
1914.000000	5.686581
1912.000000	5.685139
1910.000000	5.678617
1908.000000	5.674531
1906.000000	5.674008
1904.000000	5.672322
1902.000000	5.669408
1900.000000	5.666403
1898.000000	5.663292
1896.000000	5.658480
1894.000000	5.655599
1892.000000	5.654501
1890.000000	5.647238
1888.000000	5.645202
1886.000000	5.651441
1884.000000	5.652402
1882.000000	5.651799
1880.000000	5.651025
1878.000000	5.650120
1876.000000	5.648676
1874.000000	5.647269
1872.000000	5.642012
1870.000000	5.623361
1868.000000	5.610529
1866.000000	5.623111
1864.000000	5.635776
1862.000000	5.637473
1860.000000	5.635593
1858.000000	5.634261
1856.000000	5.632350
1854.000000	5.630798
1852.000000	5.629110
1850.000000	5.626030
1848.000000	5.618560
1846.000000	5.598982
1844.000000	5.570212
1842.000000	5.581470
1840.000000	5.607074
1838.000000	5.608586
1836.000000	5.604514
1834.000000	5.602165
1832.000000	5.592161
1830.000000	5.570031
1828.000000	5.566451
1826.000000	5.569013
1824.000000	5.565427
1822.000000	5.573949
1820.000000	5.576608
1818.000000	5.571520
1816.000000	5.566588
1814.000000	5.563475
1812.000000	5.553855
1810.000000	5.545290
1808.000000	5.544314
1806.000000	5.543279
1804.000000	5.535814
1802.000000	5.520404
1800.000000	5.506297
1798.000000	5.506435
1796.000000	5.505817
1794.000000	5.481245
1792.000000	5.449069
1790.000000	5.461022
1788.000000	5.483753
1786.000000	5.477668
1784.000000	5.464746
1782.000000	5.460353
1780.000000	5.453086
1778.000000	5.451067
1776.000000	5.442619
1774.000000	5.403785
1772.000000	5.359572
1770.000000	5.372525
1768.000000	5.392620
1766.000000	5.405676
1764.000000	5.409210
1762.000000	5.382773
1760.000000	5.377137
1758.000000	5.381436
1756.000000	5.370720
1754.000000	5.365341
1752.000000	5.329967
1750.000000	5.299312
1748.000000	5.309951
1746.000000	5.320359
1744.000000	5.316820
1742.000000	5.300621
1740.000000	5.275688
1738.000000	5.271086
1736.000000	5.245758
1734.000000	5.168469
1732.000000	5.185686
1730.000000	5.252170
1728.000000	5.273333
1726.000000	5.277626
1724.000000	5.272042
1722.000000	5.264713
1720.000000	5.232178
1718.000000	5.154055
1716.000000	5.131288
1714.000000	5.184273
1712.000000	5.221906
1710.000000	5.229478
1708.000000	5.213941
1706.000000	5.188948
1704.000000	5.174220
1702.000000	5.132200
1700.000000	5.052692
1698.000000	5.062755
1696.000000	5.061199
1694.000000	5.093392
1692.000000	5.170551
1690.000000	5.179523
1688.000000	5.163262
1686.000000	5.092205
1684.000000	5.013949
1682.000000	5.071204
1680.000000	5.144626
1678.000000	5.150210
1676.000000	5.113685
1674.000000	5.093505
1672.000000	5.108735
1670.000000	5.085977
1668.000000	5.083920
1666.000000	5.114105
1664.000000	5.107490
1662.000000	5.085772
1660.000000	5.098529
1658.000000	5.103522
1656.000000	5.059599
1654.000000	4.922367
1652.000000	4.858141
1650.000000	4.970542
1648.000000	5.008340
1646.000000	4.970391
1644.000000	4.997283
1642.000000	5.036547
1640.000000	5.032715
1638.000000	4.996208
1636.000000	4.925499
1634.000000	4.920898
1632.000000	4.977573
1630.000000	4.985556
1628.000000	4.960911
1626.000000	4.939469
1624.000000	4.906879
1622.000000	4.881733
1620.000000	4.874861
1618.000000	4.817414
1616.000000	4.758187
1614.000000	4.777822
1612.000000	4.781685
1610.000000	4.745648
1608.000000	4.720608
1606.000000	4.716725
1604.000000	4.727121
1602.000000	4.739997
1600.000000	4.753568
1598.000000	4.763991
1596.000000	4.771628
1594.000000	4.777472
1592.000000	4.783150
1590.000000	4.784925
1588.000000	4.783691
1586.000000	4.779926
1584.000000	4.776321
1582.000000	4.772154
1580.000000	4.767082
1578.000000	4.728593
1576.000000	4.668431
1574.000000	4.697201
1572.000000	4.739991
1570.000000	4.712877
1568.000000	4.706791
1566.000000	4.720097
1564.000000	4.711087
1562.000000	4.661629
1560.000000	4.537166
1558.000000	4.482893
1556.000000	4.568466
1554.000000	4.630913
1552.000000	4.669142
1550.000000	4.693634
1548.000000	4.706570
1546.000000	4.702688
1544.000000	4.676964
1542.000000	4.633140
1540.000000	4.584137
1538.000000	4.629298
1536.000000	4.729431
1534.000000	4.745282
1532.000000	4.752597
1530.000000	4.780646
1528.000000	4.777174
1526.000000	4.755444
1524.000000	4.737397
1522.000000	4.692653
1520.000000	4.678433
1518.000000	4.711398
1516.000000	4.718044
1514.000000	4.723106
1512.000000	4.715454
1510.000000	4.691716
1508.000000	4.615512
1506.000000	4.541676
1504.000000	4.573034
1502.000000	4.584621
1500.000000	4.476484
1498.000000	4.296563
1496.000000	4.130729
1494.000000	4.083959
1492.000000	4.130239
1490.000000	4.208923
1488.000000	4.313817
1486.000000	4.415078
1484.000000	4.487740
1482.000000	4.523281
1480.000000	4.538703
1478.000000	4.538525
1476.000000	4.515970
1474.000000	4.477576
1472.000000	4.452755
1470.000000	4.478599
1468.000000	4.493157
1466.000000	4.460068
1464.000000	4.427990
1462.000000	4.422055
1460.000000	4.382689
1458.000000	4.276953
1456.000000	4.195550
1454.000000	4.199712
1452.000000	4.191830
1450.000000	4.182900
1448.000000	4.214973
1446.000000	4.272290
1444.000000	4.311486
1442.000000	4.322091
1440.000000	4.319697
1438.000000	4.291269
1436.000000	4.269363
1434.000000	4.303691
1432.000000	4.324284
1430.000000	4.319071
1428.000000	4.321084
1426.000000	4.324884
1424.000000	4.316865
1422.000000	4.305142
1420.000000	4.267074
1418.000000	4.249686
1416.000000	4.274675
1414.000000	4.281784
1412.000000	4.266710
1410.000000	4.241006
1408.000000	4.204504
1406.000000	4.157001
1404.000000	4.123091
1402.000000	4.119852
1400.000000	4.125285
1398.000000	4.142035
1396.000000	4.164719
1394.000000	4.180620
1392.000000	4.207001
1390.000000	4.217082
1388.000000	4.197755
1386.000000	4.180308
1384.000000	4.178820
1382.000000	4.184447
1380.000000	4.192446
1378.000000	4.191754
1376.000000	4.182604
1374.000000	4.170697
1372.000000	4.170281
1370.000000	4.169529
1368.000000	4.161671
1366.000000	4.154003
1364.000000	4.139963
1362.000000	4.126124
1360.000000	4.124406
1358.000000	4.122674
1356.000000	4.114075
1354.000000	4.101993
1352.000000	4.091695
1350.000000	4.080489
1348.000000	4.068187
1346.000000	4.056302
1344.000000	4.043989
1342.000000	4.028900
1340.000000	4.012116
1338.000000	4.002039
1336.000000	4.000619
1334.000000	3.998163
1332.000000	3.991856
1330.000000	3.982304
1328.000000	3.971315
1326.000000	3.959157
1324.000000	3.945902
1322.000000	3.931214
1320.000000	3.915126
1318.000000	3.898822
1316.000000	3.883256
1314.000000	3.866494
1312.000000	3.850076
1310.000000	3.834260
1308.000000	3.817867
1306.000000	3.800084
1304.000000	3.781788
1302.000000	3.763732
1300.000000	3.745534
1298.000000	3.727137
1296.000000	3.708386
1294.000000	3.688276
1292.000000	3.667569
1290.000000	3.647448
1288.000000	3.626369
1286.000000	3.603791
1284.000000	3.581996
1282.000000	3.558632
1280.000000	3.533437
1278.000000	3.506973
1276.000000	3.477428
1274.000000	3.443161
1272.000000	3.402423
1270.000000	3.352112
1268.000000	3.288232
1266.000000	3.208234
1264.000000	3.120044
1262.000000	3.041417
1260.000000	2.995729
1258.000000	2.991714
1256.000000	3.015113
1254.000000	3.041711
1252.000000	3.054233
1250.000000	3.048886
1248.000000	3.030924
1246.000000	3.006389
1244.000000	2.979202
1242.000000	2.950051
1240.000000	2.920439
1238.000000	2.891682
1236.000000	2.864607
1234.000000	2.839091
1232.000000	2.813967
1230.000000	2.787830
1228.000000	2.761851
1226.000000	2.735349
1224.000000	2.709176
1222.000000	2.682742
1220.000000	2.654907
1218.000000	2.626543
1216.000000	2.597902
1214.000000	2.567879
1212.000000	2.539142
1210.000000	2.512687
1208.000000	2.488403
1206.000000	2.465649
1204.000000	2.443626
1202.000000	2.420956
1200.000000	2.398534
1198.000000	2.376235
1196.000000	2.353264
1194.000000	2.329098
1192.000000	2.305295
1190.000000	2.281043
1188.000000	2.256108
1186.000000	2.230212
1184.000000	2.199630
1182.000000	2.160488
1180.000000	2.124930
1178.000000	2.106237
1176.000000	2.093023
1174.000000	2.073426
1172.000000	2.049814
1170.000000	2.025355
1168.000000	1.998971
1166.000000	1.970984
1164.000000	1.944454
1162.000000	1.918766
1160.000000	1.893462
1158.000000	1.869432
1156.000000	1.846203
1154.000000	1.822824
1152.000000	1.798710
1150.000000	1.774446
1148.000000	1.750262
1146.000000	1.725895
1144.000000	1.703050
1142.000000	1.681473
1140.000000	1.663174
1138.000000	1.647133
1136.000000	1.628873
1134.000000	1.607647
1132.000000	1.585515
1130.000000	1.562559
1128.000000	1.539408
1126.000000	1.516687
1124.000000	1.494759
1122.000000	1.471231
1120.000000	1.446323
1118.000000	1.421309
1116.000000	1.396572
1114.000000	1.371658
1112.000000	1.346583
1110.000000	1.320643
1108.000000	1.294985
1106.000000	1.270760
1104.000000	1.247917
1102.000000	1.225617
1100.000000	1.204164
1098.000000	1.182456
1096.000000	1.161129
1094.000000	1.140846
1092.000000	1.121643
1090.000000	1.103617
1088.000000	1.085712
1086.000000	1.068236
1084.000000	1.052004
1082.000000	1.034960
1080.000000	1.018146
1078.000000	1.002586
1076.000000	0.988936
1074.000000	0.977773
1072.000000	0.967967
1070.000000	0.957719
1068.000000	0.946680
1066.000000	0.935506
1064.000000	0.924993
1062.000000	0.913455
1060.000000	0.900664
1058.000000	0.887130
1056.000000	0.870021
1054.000000	0.845535
1052.000000	0.819566
1050.000000	0.802602
1048.000000	0.799603
1046.000000	0.804444
1044.000000	0.806532
1042.000000	0.802107
1040.000000	0.794319
1038.000000	0.783943
1036.000000	0.771879
1034.000000	0.760038
1032.000000	0.748975
1030.000000	0.736604
1028.000000	0.723304
1026.000000	0.709782
1024.000000	0.695850
1022.000000	0.681827
1020.000000	0.669732
1018.000000	0.658881
1016.000000	0.648902
1014.000000	0.639746
1012.000000	0.632277
1010.000000	0.626184
1008.000000	0.620136
1006.000000	0.612887
1004.000000	0.604328
1002.000000	0.595568
1000.000000	0.587136
