PE IR       SUBTECH     SPECTRUM    ASCII       PEDS        4.00        
   -1
TE110A_091_80K_AFTER_150K_SB.ASC
20/05/14
16:37:55.00
20/05/14
16:37:55.00
Administrator
TE110A.Thursday, May 14 2020, 001.
1000.000000
#HDR
-1
-1
#GR
cm-1
EGY
1.0
0.0
6000.000000
-2.000000
2501
8
6.157307
0.629640
#DATA
6000.000000	1.020696
5998.000000	1.023423
5996.000000	1.026622
5994.000000	1.029657
5992.000000	1.030788
5990.000000	1.030909
5988.000000	1.031912
5986.000000	1.034126
5984.000000	1.036915
5982.000000	1.040010
5980.000000	1.043277
5978.000000	1.044799
5976.000000	1.045684
5974.000000	1.045900
5972.000000	1.048016
5970.000000	1.051924
5968.000000	1.055183
5966.000000	1.057481
5964.000000	1.059621
5962.000000	1.061880
5960.000000	1.064473
5958.000000	1.066053
5956.000000	1.067296
5954.000000	1.069875
5952.000000	1.072675
5950.000000	1.074402
5948.000000	1.075504
5946.000000	1.076044
5944.000000	1.077842
5942.000000	1.080494
5940.000000	1.083184
5938.000000	1.085431
5936.000000	1.086953
5934.000000	1.087708
5932.000000	1.089310
5930.000000	1.091540
5928.000000	1.095018
5926.000000	1.098776
5924.000000	1.102062
5922.000000	1.104364
5920.000000	1.106070
5918.000000	1.107850
5916.000000	1.109637
5914.000000	1.111396
5912.000000	1.113281
5910.000000	1.115900
5908.000000	1.119237
5906.000000	1.121382
5904.000000	1.122465
5902.000000	1.122798
5900.000000	1.124622
5898.000000	1.127735
5896.000000	1.131674
5894.000000	1.135044
5892.000000	1.137068
5890.000000	1.138594
5888.000000	1.140131
5886.000000	1.142728
5884.000000	1.145749
5882.000000	1.147598
5880.000000	1.148976
5878.000000	1.150840
5876.000000	1.152838
5874.000000	1.155012
5872.000000	1.157129
5870.000000	1.160240
5868.000000	1.163739
5866.000000	1.166477
5864.000000	1.168329
5862.000000	1.170553
5860.000000	1.173288
5858.000000	1.175488
5856.000000	1.177365
5854.000000	1.178810
5852.000000	1.180371
5850.000000	1.182664
5848.000000	1.184830
5846.000000	1.187146
5844.000000	1.190309
5842.000000	1.193979
5840.000000	1.196687
5838.000000	1.198607
5836.000000	1.200037
5834.000000	1.201902
5832.000000	1.203686
5830.000000	1.205883
5828.000000	1.208761
5826.000000	1.212019
5824.000000	1.214587
5822.000000	1.215984
5820.000000	1.218683
5818.000000	1.221398
5816.000000	1.224778
5814.000000	1.227826
5812.000000	1.229684
5810.000000	1.231581
5808.000000	1.232956
5806.000000	1.235341
5804.000000	1.238491
5802.000000	1.241315
5800.000000	1.244761
5798.000000	1.247329
5796.000000	1.249061
5794.000000	1.250607
5792.000000	1.253044
5790.000000	1.256492
5788.000000	1.259064
5786.000000	1.261025
5784.000000	1.263624
5782.000000	1.266594
5780.000000	1.269306
5778.000000	1.271376
5776.000000	1.273854
5774.000000	1.276758
5772.000000	1.280035
5770.000000	1.283561
5768.000000	1.287078
5766.000000	1.290333
5764.000000	1.293500
5762.000000	1.295383
5760.000000	1.296578
5758.000000	1.297899
5756.000000	1.299972
5754.000000	1.303174
5752.000000	1.306123
5750.000000	1.307938
5748.000000	1.310227
5746.000000	1.312825
5744.000000	1.315629
5742.000000	1.318020
5740.000000	1.319674
5738.000000	1.321511
5736.000000	1.324022
5734.000000	1.326974
5732.000000	1.330435
5730.000000	1.333875
5728.000000	1.336402
5726.000000	1.338377
5724.000000	1.340216
5722.000000	1.342334
5720.000000	1.345212
5718.000000	1.347984
5716.000000	1.351080
5714.000000	1.353692
5712.000000	1.355447
5710.000000	1.356954
5708.000000	1.359906
5706.000000	1.363466
5704.000000	1.366958
5702.000000	1.369648
5700.000000	1.371867
5698.000000	1.374205
5696.000000	1.376406
5694.000000	1.379509
5692.000000	1.382897
5690.000000	1.386618
5688.000000	1.389712
5686.000000	1.392410
5684.000000	1.395381
5682.000000	1.398816
5680.000000	1.401707
5678.000000	1.403270
5676.000000	1.404422
5674.000000	1.406293
5672.000000	1.409867
5670.000000	1.414178
5668.000000	1.417411
5666.000000	1.420047
5664.000000	1.422168
5662.000000	1.424579
5660.000000	1.427375
5658.000000	1.430406
5656.000000	1.433429
5654.000000	1.435604
5652.000000	1.437667
5650.000000	1.441071
5648.000000	1.444861
5646.000000	1.447420
5644.000000	1.449198
5642.000000	1.451432
5640.000000	1.454557
5638.000000	1.457741
5636.000000	1.461342
5634.000000	1.464635
5632.000000	1.467200
5630.000000	1.468684
5628.000000	1.470264
5626.000000	1.473124
5624.000000	1.476134
5622.000000	1.479221
5620.000000	1.482170
5618.000000	1.484865
5616.000000	1.486960
5614.000000	1.489808
5612.000000	1.493263
5610.000000	1.496364
5608.000000	1.498162
5606.000000	1.499713
5604.000000	1.503078
5602.000000	1.507123
5600.000000	1.510745
5598.000000	1.513387
5596.000000	1.515709
5594.000000	1.518302
5592.000000	1.521000
5590.000000	1.524087
5588.000000	1.527340
5586.000000	1.530653
5584.000000	1.533544
5582.000000	1.536537
5580.000000	1.539762
5578.000000	1.543242
5576.000000	1.547096
5574.000000	1.550122
5572.000000	1.552480
5570.000000	1.554908
5568.000000	1.558195
5566.000000	1.561700
5564.000000	1.564168
5562.000000	1.566355
5560.000000	1.568002
5558.000000	1.569229
5556.000000	1.571430
5554.000000	1.575526
5552.000000	1.579150
5550.000000	1.581723
5548.000000	1.584783
5546.000000	1.589548
5544.000000	1.593696
5542.000000	1.595609
5540.000000	1.596622
5538.000000	1.599009
5536.000000	1.602295
5534.000000	1.605831
5532.000000	1.608358
5530.000000	1.611004
5528.000000	1.614350
5526.000000	1.617291
5524.000000	1.619599
5522.000000	1.621063
5520.000000	1.623458
5518.000000	1.627665
5516.000000	1.631961
5514.000000	1.635462
5512.000000	1.637189
5510.000000	1.639528
5508.000000	1.643131
5506.000000	1.647032
5504.000000	1.650226
5502.000000	1.652669
5500.000000	1.655135
5498.000000	1.658108
5496.000000	1.660895
5494.000000	1.663805
5492.000000	1.666452
5490.000000	1.669392
5488.000000	1.672521
5486.000000	1.675966
5484.000000	1.679395
5482.000000	1.682882
5480.000000	1.686326
5478.000000	1.689412
5476.000000	1.691387
5474.000000	1.692400
5472.000000	1.694564
5470.000000	1.698305
5468.000000	1.702376
5466.000000	1.706108
5464.000000	1.708915
5462.000000	1.712002
5460.000000	1.714550
5458.000000	1.717258
5456.000000	1.720309
5454.000000	1.723922
5452.000000	1.727552
5450.000000	1.730236
5448.000000	1.732350
5446.000000	1.733639
5444.000000	1.734785
5442.000000	1.736933
5440.000000	1.741063
5438.000000	1.745925
5436.000000	1.749447
5434.000000	1.751319
5432.000000	1.753582
5430.000000	1.756877
5428.000000	1.760697
5426.000000	1.764185
5424.000000	1.767533
5422.000000	1.771483
5420.000000	1.775651
5418.000000	1.779009
5416.000000	1.780761
5414.000000	1.781321
5412.000000	1.782542
5410.000000	1.785227
5408.000000	1.789578
5406.000000	1.794581
5404.000000	1.798378
5402.000000	1.800704
5400.000000	1.803114
5398.000000	1.806338
5396.000000	1.809381
5394.000000	1.811227
5392.000000	1.813573
5390.000000	1.817433
5388.000000	1.821659
5386.000000	1.825188
5384.000000	1.827998
5382.000000	1.831571
5380.000000	1.834989
5378.000000	1.837935
5376.000000	1.840175
5374.000000	1.842395
5372.000000	1.844746
5370.000000	1.848124
5368.000000	1.853459
5366.000000	1.858286
5364.000000	1.861307
5362.000000	1.862762
5360.000000	1.864996
5358.000000	1.869078
5356.000000	1.872476
5354.000000	1.874625
5352.000000	1.876082
5350.000000	1.878810
5348.000000	1.881688
5346.000000	1.884276
5344.000000	1.887150
5342.000000	1.890140
5340.000000	1.892784
5338.000000	1.895804
5336.000000	1.899912
5334.000000	1.903631
5332.000000	1.906625
5330.000000	1.909618
5328.000000	1.912927
5326.000000	1.915818
5324.000000	1.918865
5322.000000	1.922931
5320.000000	1.927531
5318.000000	1.931626
5316.000000	1.934255
5314.000000	1.936267
5312.000000	1.938824
5310.000000	1.941875
5308.000000	1.944217
5306.000000	1.946639
5304.000000	1.950660
5302.000000	1.955125
5300.000000	1.959201
5298.000000	1.962207
5296.000000	1.965693
5294.000000	1.969245
5292.000000	1.973258
5290.000000	1.976072
5288.000000	1.978015
5286.000000	1.980951
5284.000000	1.985076
5282.000000	1.988765
5280.000000	1.991638
5278.000000	1.994290
5276.000000	1.997376
5274.000000	2.000714
5272.000000	2.004221
5270.000000	2.007050
5268.000000	2.009884
5266.000000	2.012835
5264.000000	2.015393
5262.000000	2.017188
5260.000000	2.019594
5258.000000	2.022472
5256.000000	2.025927
5254.000000	2.029395
5252.000000	2.032845
5250.000000	2.036203
5248.000000	2.039048
5246.000000	2.040722
5244.000000	2.042217
5242.000000	2.045880
5240.000000	2.051270
5238.000000	2.055974
5236.000000	2.059140
5234.000000	2.062104
5232.000000	2.064966
5230.000000	2.068088
5228.000000	2.071384
5226.000000	2.074107
5224.000000	2.076228
5222.000000	2.078853
5220.000000	2.082159
5218.000000	2.085710
5216.000000	2.089720
5214.000000	2.094188
5212.000000	2.097612
5210.000000	2.100724
5208.000000	2.102594
5206.000000	2.103382
5204.000000	2.105827
5202.000000	2.110964
5200.000000	2.116385
5198.000000	2.119414
5196.000000	2.121979
5194.000000	2.125206
5192.000000	2.128886
5190.000000	2.132899
5188.000000	2.136055
5186.000000	2.138906
5184.000000	2.142078
5182.000000	2.146232
5180.000000	2.150834
5178.000000	2.154727
5176.000000	2.158202
5174.000000	2.161482
5172.000000	2.165083
5170.000000	2.167912
5168.000000	2.170242
5166.000000	2.172617
5164.000000	2.175200
5162.000000	2.177994
5160.000000	2.181771
5158.000000	2.185913
5156.000000	2.189448
5154.000000	2.191717
5152.000000	2.194651
5150.000000	2.197862
5148.000000	2.201385
5146.000000	2.205181
5144.000000	2.208874
5142.000000	2.212066
5140.000000	2.214615
5138.000000	2.218204
5136.000000	2.221982
5134.000000	2.225047
5132.000000	2.227649
5130.000000	2.230495
5128.000000	2.233485
5126.000000	2.236706
5124.000000	2.240810
5122.000000	2.245310
5120.000000	2.248112
5118.000000	2.249962
5116.000000	2.253244
5114.000000	2.257577
5112.000000	2.260734
5110.000000	2.263124
5108.000000	2.266966
5106.000000	2.271366
5104.000000	2.274599
5102.000000	2.277134
5100.000000	2.280605
5098.000000	2.284738
5096.000000	2.288881
5094.000000	2.292738
5092.000000	2.296355
5090.000000	2.298651
5088.000000	2.300519
5086.000000	2.303478
5084.000000	2.308048
5082.000000	2.312671
5080.000000	2.315894
5078.000000	2.318315
5076.000000	2.321473
5074.000000	2.324864
5072.000000	2.328162
5070.000000	2.331835
5068.000000	2.335569
5066.000000	2.338135
5064.000000	2.340313
5062.000000	2.344167
5060.000000	2.347799
5058.000000	2.350671
5056.000000	2.353748
5054.000000	2.357478
5052.000000	2.360931
5050.000000	2.364534
5048.000000	2.368454
5046.000000	2.372112
5044.000000	2.375040
5042.000000	2.378372
5040.000000	2.381169
5038.000000	2.383527
5036.000000	2.386192
5034.000000	2.390844
5032.000000	2.395627
5030.000000	2.399184
5028.000000	2.401509
5026.000000	2.404209
5024.000000	2.407131
5022.000000	2.410417
5020.000000	2.414470
5018.000000	2.418549
5016.000000	2.421830
5014.000000	2.424872
5012.000000	2.428333
5010.000000	2.432518
5008.000000	2.435876
5006.000000	2.438324
5004.000000	2.441773
5002.000000	2.446464
5000.000000	2.450166
4998.000000	2.453028
4996.000000	2.457558
4994.000000	2.461887
4992.000000	2.465220
4990.000000	2.468179
4988.000000	2.471141
4986.000000	2.473605
4984.000000	2.476516
4982.000000	2.480283
4980.000000	2.483225
4978.000000	2.486802
4976.000000	2.490106
4974.000000	2.492674
4972.000000	2.495593
4970.000000	2.500060
4968.000000	2.504482
4966.000000	2.507486
4964.000000	2.510628
4962.000000	2.514738
4960.000000	2.519230
4958.000000	2.522317
4956.000000	2.523755
4954.000000	2.525733
4952.000000	2.529477
4950.000000	2.533870
4948.000000	2.538294
4946.000000	2.542259
4944.000000	2.545601
4942.000000	2.548414
4940.000000	2.551068
4938.000000	2.554297
4936.000000	2.557760
4934.000000	2.561156
4932.000000	2.564248
4930.000000	2.567181
4928.000000	2.568941
4926.000000	2.571382
4924.000000	2.576637
4922.000000	2.582475
4920.000000	2.586066
4918.000000	2.588651
4916.000000	2.591883
4914.000000	2.595705
4912.000000	2.599464
4910.000000	2.602724
4908.000000	2.606373
4906.000000	2.610930
4904.000000	2.614941
4902.000000	2.617917
4900.000000	2.621199
4898.000000	2.625030
4896.000000	2.628401
4894.000000	2.632009
4892.000000	2.635156
4890.000000	2.638565
4888.000000	2.642451
4886.000000	2.645693
4884.000000	2.647843
4882.000000	2.650460
4880.000000	2.654583
4878.000000	2.658634
4876.000000	2.661208
4874.000000	2.663864
4872.000000	2.667356
4870.000000	2.670867
4868.000000	2.674403
4866.000000	2.678798
4864.000000	2.683334
4862.000000	2.687433
4860.000000	2.691418
4858.000000	2.694225
4856.000000	2.696225
4854.000000	2.698696
4852.000000	2.701579
4850.000000	2.705305
4848.000000	2.709599
4846.000000	2.713485
4844.000000	2.716153
4842.000000	2.719018
4840.000000	2.723053
4838.000000	2.727271
4836.000000	2.731183
4834.000000	2.734328
4832.000000	2.737302
4830.000000	2.740056
4828.000000	2.743671
4826.000000	2.747648
4824.000000	2.752307
4822.000000	2.756551
4820.000000	2.759964
4818.000000	2.762684
4816.000000	2.765694
4814.000000	2.768757
4812.000000	2.772494
4810.000000	2.776003
4808.000000	2.779382
4806.000000	2.782446
4804.000000	2.786041
4802.000000	2.789776
4800.000000	2.793819
4798.000000	2.797321
4796.000000	2.801085
4794.000000	2.805154
4792.000000	2.808772
4790.000000	2.812538
4788.000000	2.816874
4786.000000	2.820614
4784.000000	2.823266
4782.000000	2.825996
4780.000000	2.829254
4778.000000	2.833234
4776.000000	2.836924
4774.000000	2.839969
4772.000000	2.842895
4770.000000	2.846020
4768.000000	2.849278
4766.000000	2.853217
4764.000000	2.857548
4762.000000	2.861197
4760.000000	2.864212
4758.000000	2.867295
4756.000000	2.871154
4754.000000	2.875452
4752.000000	2.879081
4750.000000	2.881853
4748.000000	2.884917
4746.000000	2.888928
4744.000000	2.893487
4742.000000	2.897709
4740.000000	2.900550
4738.000000	2.902777
4736.000000	2.906181
4734.000000	2.910946
4732.000000	2.915342
4730.000000	2.918784
4728.000000	2.921594
4726.000000	2.924248
4724.000000	2.927502
4722.000000	2.931388
4720.000000	2.935532
4718.000000	2.939558
4716.000000	2.943020
4714.000000	2.945842
4712.000000	2.949414
4710.000000	2.953907
4708.000000	2.958377
4706.000000	2.962290
4704.000000	2.966476
4702.000000	2.970413
4700.000000	2.974064
4698.000000	2.977504
4696.000000	2.981098
4694.000000	2.984866
4692.000000	2.988305
4690.000000	2.990808
4688.000000	2.993615
4686.000000	2.998189
4684.000000	3.003014
4682.000000	3.006792
4680.000000	3.010276
4678.000000	3.014644
4676.000000	3.019181
4674.000000	3.022432
4672.000000	3.025681
4670.000000	3.029030
4668.000000	3.031768
4666.000000	3.034374
4664.000000	3.038277
4662.000000	3.042381
4660.000000	3.046035
4658.000000	3.049509
4656.000000	3.053343
4654.000000	3.057227
4652.000000	3.060544
4650.000000	3.064108
4648.000000	3.067901
4646.000000	3.070801
4644.000000	3.073131
4642.000000	3.076434
4640.000000	3.081186
4638.000000	3.085864
4636.000000	3.089456
4634.000000	3.092987
4632.000000	3.097006
4630.000000	3.100894
4628.000000	3.104570
4626.000000	3.107655
4624.000000	3.110218
4622.000000	3.114337
4620.000000	3.119181
4618.000000	3.123131
4616.000000	3.126454
4614.000000	3.130171
4612.000000	3.134169
4610.000000	3.138878
4608.000000	3.143081
4606.000000	3.146307
4604.000000	3.149474
4602.000000	3.152553
4600.000000	3.155741
4598.000000	3.159951
4596.000000	3.164580
4594.000000	3.168827
4592.000000	3.173097
4590.000000	3.177233
4588.000000	3.180406
4586.000000	3.183060
4584.000000	3.186680
4582.000000	3.191348
4580.000000	3.195538
4578.000000	3.199642
4576.000000	3.203569
4574.000000	3.205974
4572.000000	3.207958
4570.000000	3.211713
4568.000000	3.216323
4566.000000	3.220760
4564.000000	3.225899
4562.000000	3.230715
4560.000000	3.234157
4558.000000	3.236889
4556.000000	3.240602
4554.000000	3.244773
4552.000000	3.248591
4550.000000	3.251851
4548.000000	3.255191
4546.000000	3.258477
4544.000000	3.262237
4542.000000	3.267020
4540.000000	3.271509
4538.000000	3.274709
4536.000000	3.277950
4534.000000	3.281999
4532.000000	3.286025
4530.000000	3.290120
4528.000000	3.294119
4526.000000	3.297742
4524.000000	3.301823
4522.000000	3.305869
4520.000000	3.308775
4518.000000	3.311973
4516.000000	3.316897
4514.000000	3.321653
4512.000000	3.324933
4510.000000	3.328040
4508.000000	3.332148
4506.000000	3.336239
4504.000000	3.339522
4502.000000	3.342596
4500.000000	3.346345
4498.000000	3.351370
4496.000000	3.356308
4494.000000	3.359941
4492.000000	3.363016
4490.000000	3.366636
4488.000000	3.370534
4486.000000	3.373746
4484.000000	3.376581
4482.000000	3.380985
4480.000000	3.386525
4478.000000	3.390996
4476.000000	3.394195
4474.000000	3.397492
4472.000000	3.401631
4470.000000	3.406806
4468.000000	3.411406
4466.000000	3.414268
4464.000000	3.416383
4462.000000	3.419208
4460.000000	3.422531
4458.000000	3.426134
4456.000000	3.429769
4454.000000	3.433924
4452.000000	3.438912
4450.000000	3.442852
4448.000000	3.445425
4446.000000	3.448924
4444.000000	3.453259
4442.000000	3.457242
4440.000000	3.461053
4438.000000	3.464873
4436.000000	3.469036
4434.000000	3.473127
4432.000000	3.476990
4430.000000	3.480634
4428.000000	3.483589
4426.000000	3.486813
4424.000000	3.491288
4422.000000	3.495567
4420.000000	3.499700
4418.000000	3.503896
4416.000000	3.507546
4414.000000	3.511161
4412.000000	3.515379
4410.000000	3.519544
4408.000000	3.522757
4406.000000	3.525140
4404.000000	3.528409
4402.000000	3.533102
4400.000000	3.537806
4398.000000	3.541492
4396.000000	3.545315
4394.000000	3.549250
4392.000000	3.552545
4390.000000	3.555966
4388.000000	3.560130
4386.000000	3.563910
4384.000000	3.567372
4382.000000	3.570446
4380.000000	3.572667
4378.000000	3.575152
4376.000000	3.579509
4374.000000	3.584312
4372.000000	3.588141
4370.000000	3.591552
4368.000000	3.595950
4366.000000	3.601155
4364.000000	3.605244
4362.000000	3.607785
4360.000000	3.611172
4358.000000	3.615040
4356.000000	3.617984
4354.000000	3.620834
4352.000000	3.624182
4350.000000	3.628065
4348.000000	3.632091
4346.000000	3.635676
4344.000000	3.639476
4342.000000	3.644034
4340.000000	3.648065
4338.000000	3.651296
4336.000000	3.654791
4334.000000	3.659915
4332.000000	3.665477
4330.000000	3.669452
4328.000000	3.673058
4326.000000	3.677216
4324.000000	3.680563
4322.000000	3.683602
4320.000000	3.688033
4318.000000	3.692818
4316.000000	3.696819
4314.000000	3.700332
4312.000000	3.704195
4310.000000	3.708938
4308.000000	3.713838
4306.000000	3.717392
4304.000000	3.720704
4302.000000	3.724647
4300.000000	3.728257
4298.000000	3.731721
4296.000000	3.736172
4294.000000	3.740612
4292.000000	3.743511
4290.000000	3.745832
4288.000000	3.749517
4286.000000	3.753985
4284.000000	3.757749
4282.000000	3.760999
4280.000000	3.765079
4278.000000	3.769260
4276.000000	3.772442
4274.000000	3.775210
4272.000000	3.778247
4270.000000	3.781920
4268.000000	3.786831
4266.000000	3.791617
4264.000000	3.794681
4262.000000	3.797157
4260.000000	3.801223
4258.000000	3.805915
4256.000000	3.808953
4254.000000	3.811408
4252.000000	3.815330
4250.000000	3.819933
4248.000000	3.824426
4246.000000	3.828546
4244.000000	3.832288
4242.000000	3.836974
4240.000000	3.841720
4238.000000	3.845045
4236.000000	3.848512
4234.000000	3.852290
4232.000000	3.855748
4230.000000	3.860173
4228.000000	3.864722
4226.000000	3.867555
4224.000000	3.871058
4222.000000	3.876688
4220.000000	3.881043
4218.000000	3.883304
4216.000000	3.887058
4214.000000	3.892594
4212.000000	3.897713
4210.000000	3.901685
4208.000000	3.904677
4206.000000	3.908157
4204.000000	3.912579
4202.000000	3.916369
4200.000000	3.920029
4198.000000	3.924114
4196.000000	3.927892
4194.000000	3.931514
4192.000000	3.935689
4190.000000	3.940284
4188.000000	3.944538
4186.000000	3.948745
4184.000000	3.953385
4182.000000	3.957589
4180.000000	3.961327
4178.000000	3.965145
4176.000000	3.969686
4174.000000	3.974430
4172.000000	3.977672
4170.000000	3.980350
4168.000000	3.983931
4166.000000	3.987862
4164.000000	3.991531
4162.000000	3.995368
4160.000000	4.000022
4158.000000	4.004529
4156.000000	4.007861
4154.000000	4.011734
4152.000000	4.016344
4150.000000	4.020270
4148.000000	4.023880
4146.000000	4.028616
4144.000000	4.033987
4142.000000	4.038257
4140.000000	4.041448
4138.000000	4.045406
4136.000000	4.050612
4134.000000	4.055321
4132.000000	4.058757
4130.000000	4.062734
4128.000000	4.067849
4126.000000	4.072379
4124.000000	4.076434
4122.000000	4.080503
4120.000000	4.083579
4118.000000	4.086388
4116.000000	4.090248
4114.000000	4.094457
4112.000000	4.098711
4110.000000	4.102869
4108.000000	4.106956
4106.000000	4.111252
4104.000000	4.115338
4102.000000	4.118943
4100.000000	4.122697
4098.000000	4.126927
4096.000000	4.131658
4094.000000	4.136229
4092.000000	4.139736
4090.000000	4.143222
4088.000000	4.147563
4086.000000	4.151645
4084.000000	4.155571
4082.000000	4.159822
4080.000000	4.164331
4078.000000	4.168961
4076.000000	4.173361
4074.000000	4.178219
4072.000000	4.183009
4070.000000	4.187109
4068.000000	4.190911
4066.000000	4.194075
4064.000000	4.197306
4062.000000	4.201239
4060.000000	4.205600
4058.000000	4.210529
4056.000000	4.215636
4054.000000	4.220232
4052.000000	4.224170
4050.000000	4.227460
4048.000000	4.230940
4046.000000	4.235093
4044.000000	4.239866
4042.000000	4.244923
4040.000000	4.249305
4038.000000	4.253125
4036.000000	4.257010
4034.000000	4.261331
4032.000000	4.266118
4030.000000	4.270293
4028.000000	4.274175
4026.000000	4.278289
4024.000000	4.282441
4022.000000	4.286958
4020.000000	4.291601
4018.000000	4.295913
4016.000000	4.299428
4014.000000	4.303085
4012.000000	4.308000
4010.000000	4.312614
4008.000000	4.315719
4006.000000	4.319334
4004.000000	4.325012
4002.000000	4.329610
4000.000000	4.331571
3998.000000	4.334903
3996.000000	4.340795
3994.000000	4.345884
3992.000000	4.349212
3990.000000	4.353200
3988.000000	4.358350
3986.000000	4.362558
3984.000000	4.365556
3982.000000	4.368699
3980.000000	4.372854
3978.000000	4.377599
3976.000000	4.381736
3974.000000	4.385576
3972.000000	4.389515
3970.000000	4.392664
3968.000000	4.396465
3966.000000	4.401744
3964.000000	4.406580
3962.000000	4.410317
3960.000000	4.413758
3958.000000	4.417432
3956.000000	4.421238
3954.000000	4.425106
3952.000000	4.428380
3950.000000	4.430153
3948.000000	4.432183
3946.000000	4.436371
3944.000000	4.440540
3942.000000	4.442788
3940.000000	4.447232
3938.000000	4.455272
3936.000000	4.461387
3934.000000	4.462722
3932.000000	4.462109
3930.000000	4.465366
3928.000000	4.472779
3926.000000	4.478061
3924.000000	4.480031
3922.000000	4.482784
3920.000000	4.486265
3918.000000	4.487021
3916.000000	4.489074
3914.000000	4.498796
3912.000000	4.510139
3910.000000	4.516256
3908.000000	4.517928
3906.000000	4.510992
3904.000000	4.495772
3902.000000	4.486290
3900.000000	4.490499
3898.000000	4.506312
3896.000000	4.528226
3894.000000	4.540819
3892.000000	4.535825
3890.000000	4.531388
3888.000000	4.536661
3886.000000	4.533765
3884.000000	4.529491
3882.000000	4.540847
3880.000000	4.551667
3878.000000	4.559040
3876.000000	4.569920
3874.000000	4.572252
3872.000000	4.563132
3870.000000	4.548491
3868.000000	4.546339
3866.000000	4.561629
3864.000000	4.571702
3862.000000	4.579871
3860.000000	4.596893
3858.000000	4.606733
3856.000000	4.580752
3854.000000	4.515936
3852.000000	4.484264
3850.000000	4.536016
3848.000000	4.607656
3846.000000	4.637567
3844.000000	4.637500
3842.000000	4.630590
3840.000000	4.615714
3838.000000	4.589467
3836.000000	4.582758
3834.000000	4.612192
3832.000000	4.641927
3830.000000	4.656937
3828.000000	4.668690
3826.000000	4.675137
3824.000000	4.673936
3822.000000	4.658647
3820.000000	4.642775
3818.000000	4.644514
3816.000000	4.642938
3814.000000	4.650841
3812.000000	4.689479
3810.000000	4.715066
3808.000000	4.702013
3806.000000	4.683920
3804.000000	4.685572
3802.000000	4.678640
3800.000000	4.667691
3798.000000	4.691650
3796.000000	4.722874
3794.000000	4.738312
3792.000000	4.751615
3790.000000	4.759709
3788.000000	4.762440
3786.000000	4.764089
3784.000000	4.766461
3782.000000	4.770373
3780.000000	4.769956
3778.000000	4.769529
3776.000000	4.778446
3774.000000	4.788457
3772.000000	4.789151
3770.000000	4.781140
3768.000000	4.776964
3766.000000	4.784671
3764.000000	4.796506
3762.000000	4.804609
3760.000000	4.802821
3758.000000	4.798108
3756.000000	4.801104
3754.000000	4.791803
3752.000000	4.751620
3750.000000	4.716518
3748.000000	4.726112
3746.000000	4.741315
3744.000000	4.725586
3742.000000	4.743798
3740.000000	4.806304
3738.000000	4.828228
3736.000000	4.805448
3734.000000	4.792861
3732.000000	4.804636
3730.000000	4.830875
3728.000000	4.857464
3726.000000	4.867007
3724.000000	4.868533
3722.000000	4.874568
3720.000000	4.882346
3718.000000	4.891644
3716.000000	4.898441
3714.000000	4.890505
3712.000000	4.866400
3710.000000	4.857292
3708.000000	4.880463
3706.000000	4.910148
3704.000000	4.923111
3702.000000	4.920424
3700.000000	4.920871
3698.000000	4.933453
3696.000000	4.944245
3694.000000	4.945095
3692.000000	4.933282
3690.000000	4.904078
3688.000000	4.879029
3686.000000	4.897866
3684.000000	4.943834
3682.000000	4.966801
3680.000000	4.964983
3678.000000	4.946343
3676.000000	4.908297
3674.000000	4.889585
3672.000000	4.906509
3670.000000	4.914070
3668.000000	4.925983
3666.000000	4.966014
3664.000000	4.996939
3662.000000	5.004919
3660.000000	5.004005
3658.000000	4.996625
3656.000000	4.983075
3654.000000	4.981297
3652.000000	4.981165
3650.000000	4.953188
3648.000000	4.930716
3646.000000	4.954172
3644.000000	4.996804
3642.000000	5.021286
3640.000000	5.028721
3638.000000	5.031451
3636.000000	5.031809
3634.000000	5.028904
3632.000000	5.019398
3630.000000	4.990954
3628.000000	4.963489
3626.000000	4.983759
3624.000000	5.026828
3622.000000	5.039691
3620.000000	5.023498
3618.000000	5.009143
3616.000000	5.016060
3614.000000	5.025757
3612.000000	5.023824
3610.000000	5.018525
3608.000000	5.016699
3606.000000	5.028142
3604.000000	5.046754
3602.000000	5.054168
3600.000000	5.052504
3598.000000	5.052599
3596.000000	5.051716
3594.000000	5.049112
3592.000000	5.051246
3590.000000	5.048803
3588.000000	5.034307
3586.000000	5.028413
3584.000000	5.043035
3582.000000	5.058746
3580.000000	5.064629
3578.000000	5.066330
3576.000000	5.066575
3574.000000	5.066648
3572.000000	5.066663
3570.000000	5.061107
3568.000000	5.046047
3566.000000	5.035489
3564.000000	5.043344
3562.000000	5.057118
3560.000000	5.064102
3558.000000	5.066326
3556.000000	5.066203
3554.000000	5.064225
3552.000000	5.061519
3550.000000	5.060602
3548.000000	5.059151
3546.000000	5.054264
3544.000000	5.052944
3542.000000	5.056687
3540.000000	5.059156
3538.000000	5.059292
3536.000000	5.057806
3534.000000	5.055933
3532.000000	5.055412
3530.000000	5.053157
3528.000000	5.047356
3526.000000	5.041335
3524.000000	5.037075
3522.000000	5.034895
3520.000000	5.034853
3518.000000	5.033768
3516.000000	5.031300
3514.000000	5.028869
3512.000000	5.025261
3510.000000	5.020028
3508.000000	5.015386
3506.000000	5.012253
3504.000000	5.006229
3502.000000	4.998408
3500.000000	4.994597
3498.000000	4.992514
3496.000000	4.987899
3494.000000	4.982770
3492.000000	4.978361
3490.000000	4.972394
3488.000000	4.965368
3486.000000	4.960463
3484.000000	4.957540
3482.000000	4.952561
3480.000000	4.946682
3478.000000	4.943627
3476.000000	4.941687
3474.000000	4.939151
3472.000000	4.937710
3470.000000	4.936081
3468.000000	4.933235
3466.000000	4.930112
3464.000000	4.928766
3462.000000	4.928647
3460.000000	4.928269
3458.000000	4.927220
3456.000000	4.925695
3454.000000	4.924815
3452.000000	4.922994
3450.000000	4.918771
3448.000000	4.913516
3446.000000	4.908595
3444.000000	4.906260
3442.000000	4.905570
3440.000000	4.905172
3438.000000	4.905598
3436.000000	4.905956
3434.000000	4.906023
3432.000000	4.907592
3430.000000	4.910763
3428.000000	4.914539
3426.000000	4.917978
3424.000000	4.921114
3422.000000	4.923691
3420.000000	4.925214
3418.000000	4.926728
3416.000000	4.928760
3414.000000	4.930828
3412.000000	4.932384
3410.000000	4.933048
3408.000000	4.933535
3406.000000	4.934496
3404.000000	4.934411
3402.000000	4.933755
3400.000000	4.934095
3398.000000	4.935460
3396.000000	4.938234
3394.000000	4.940812
3392.000000	4.942235
3390.000000	4.944405
3388.000000	4.947843
3386.000000	4.951098
3384.000000	4.953003
3382.000000	4.954198
3380.000000	4.955860
3378.000000	4.957136
3376.000000	4.958161
3374.000000	4.959832
3372.000000	4.961118
3370.000000	4.962580
3368.000000	4.963929
3366.000000	4.964263
3364.000000	4.964983
3362.000000	4.967423
3360.000000	4.970489
3358.000000	4.971849
3356.000000	4.972800
3354.000000	4.974900
3352.000000	4.976324
3350.000000	4.977225
3348.000000	4.979715
3346.000000	4.982565
3344.000000	4.985028
3342.000000	4.987216
3340.000000	4.988628
3338.000000	4.989188
3336.000000	4.990137
3334.000000	4.992068
3332.000000	4.994650
3330.000000	4.996859
3328.000000	4.997531
3326.000000	4.997551
3324.000000	4.999129
3322.000000	5.000667
3320.000000	5.001576
3318.000000	5.003051
3316.000000	5.004470
3314.000000	5.006147
3312.000000	5.007930
3310.000000	5.008091
3308.000000	5.008593
3306.000000	5.009926
3304.000000	5.010685
3302.000000	5.010671
3300.000000	5.011886
3298.000000	5.013662
3296.000000	5.014477
3294.000000	5.015475
3292.000000	5.016891
3290.000000	5.018281
3288.000000	5.019452
3286.000000	5.021304
3284.000000	5.022934
3282.000000	5.023867
3280.000000	5.025200
3278.000000	5.026158
3276.000000	5.026164
3274.000000	5.026275
3272.000000	5.027827
3270.000000	5.031054
3268.000000	5.034270
3266.000000	5.035775
3264.000000	5.036054
3262.000000	5.037929
3260.000000	5.041544
3258.000000	5.043401
3256.000000	5.043499
3254.000000	5.044943
3252.000000	5.047348
3250.000000	5.049577
3248.000000	5.052403
3246.000000	5.055082
3244.000000	5.057031
3242.000000	5.058944
3240.000000	5.060691
3238.000000	5.062162
3236.000000	5.063581
3234.000000	5.065493
3232.000000	5.068223
3230.000000	5.070442
3228.000000	5.071979
3226.000000	5.073430
3224.000000	5.073911
3222.000000	5.074191
3220.000000	5.076872
3218.000000	5.080562
3216.000000	5.082969
3214.000000	5.084199
3212.000000	5.086436
3210.000000	5.089135
3208.000000	5.091472
3206.000000	5.094305
3204.000000	5.097972
3202.000000	5.101435
3200.000000	5.104767
3198.000000	5.108494
3196.000000	5.113597
3194.000000	5.118332
3192.000000	5.121228
3190.000000	5.125733
3188.000000	5.131244
3186.000000	5.135303
3184.000000	5.139115
3182.000000	5.143033
3180.000000	5.146934
3178.000000	5.150467
3176.000000	5.154334
3174.000000	5.157809
3172.000000	5.160890
3170.000000	5.164509
3168.000000	5.169127
3166.000000	5.173620
3164.000000	5.177044
3162.000000	5.180480
3160.000000	5.185041
3158.000000	5.190030
3156.000000	5.194154
3154.000000	5.197435
3152.000000	5.200441
3150.000000	5.204452
3148.000000	5.209590
3146.000000	5.214215
3144.000000	5.217735
3142.000000	5.220490
3140.000000	5.223220
3138.000000	5.225948
3136.000000	5.228777
3134.000000	5.232177
3132.000000	5.235696
3130.000000	5.238367
3128.000000	5.241102
3126.000000	5.245144
3124.000000	5.248613
3122.000000	5.250658
3120.000000	5.252910
3118.000000	5.254488
3116.000000	5.255301
3114.000000	5.257546
3112.000000	5.261902
3110.000000	5.265533
3108.000000	5.267899
3106.000000	5.271072
3104.000000	5.274962
3102.000000	5.278816
3100.000000	5.282616
3098.000000	5.285819
3096.000000	5.288618
3094.000000	5.291738
3092.000000	5.295862
3090.000000	5.300627
3088.000000	5.304458
3086.000000	5.306684
3084.000000	5.309667
3082.000000	5.313205
3080.000000	5.315312
3078.000000	5.316991
3076.000000	5.320152
3074.000000	5.324143
3072.000000	5.326571
3070.000000	5.327791
3068.000000	5.328628
3066.000000	5.329105
3064.000000	5.330847
3062.000000	5.334033
3060.000000	5.337783
3058.000000	5.341535
3056.000000	5.345092
3054.000000	5.348760
3052.000000	5.352831
3050.000000	5.357232
3048.000000	5.361033
3046.000000	5.363914
3044.000000	5.365709
3042.000000	5.367362
3040.000000	5.369581
3038.000000	5.370700
3036.000000	5.371115
3034.000000	5.372307
3032.000000	5.372952
3030.000000	5.372480
3028.000000	5.370366
3026.000000	5.365976
3024.000000	5.359148
3022.000000	5.350962
3020.000000	5.345072
3018.000000	5.344708
3016.000000	5.349751
3014.000000	5.360362
3012.000000	5.376726
3010.000000	5.394863
3008.000000	5.411224
3006.000000	5.423385
3004.000000	5.430966
3002.000000	5.436773
3000.000000	5.441982
2998.000000	5.445583
2996.000000	5.447951
2994.000000	5.448656
2992.000000	5.448762
2990.000000	5.449106
2988.000000	5.449006
2986.000000	5.447811
2984.000000	5.445296
2982.000000	5.441338
2980.000000	5.435584
2978.000000	5.426323
2976.000000	5.412375
2974.000000	5.394724
2972.000000	5.371700
2970.000000	5.343141
2968.000000	5.310280
2966.000000	5.275532
2964.000000	5.245540
2962.000000	5.227337
2960.000000	5.222844
2958.000000	5.230919
2956.000000	5.247625
2954.000000	5.264485
2952.000000	5.279101
2950.000000	5.290079
2948.000000	5.293876
2946.000000	5.289532
2944.000000	5.277084
2942.000000	5.258235
2940.000000	5.233205
2938.000000	5.202628
2936.000000	5.172664
2934.000000	5.146466
2932.000000	5.122877
2930.000000	5.099822
2928.000000	5.077215
2926.000000	5.060242
2924.000000	5.056633
2922.000000	5.071788
2920.000000	5.105279
2918.000000	5.149683
2916.000000	5.198294
2914.000000	5.247126
2912.000000	5.292546
2910.000000	5.330229
2908.000000	5.359068
2906.000000	5.381202
2904.000000	5.401115
2902.000000	5.420311
2900.000000	5.437582
2898.000000	5.452337
2896.000000	5.464980
2894.000000	5.478319
2892.000000	5.492268
2890.000000	5.504987
2888.000000	5.515983
2886.000000	5.525173
2884.000000	5.531681
2882.000000	5.536537
2880.000000	5.539495
2878.000000	5.538238
2876.000000	5.533996
2874.000000	5.526399
2872.000000	5.514655
2870.000000	5.498017
2868.000000	5.474598
2866.000000	5.444416
2864.000000	5.410471
2862.000000	5.381971
2860.000000	5.368327
2858.000000	5.371260
2856.000000	5.385125
2854.000000	5.404902
2852.000000	5.426511
2850.000000	5.451470
2848.000000	5.483993
2846.000000	5.522118
2844.000000	5.557782
2842.000000	5.586364
2840.000000	5.609469
2838.000000	5.627466
2836.000000	5.641307
2834.000000	5.653254
2832.000000	5.663597
2830.000000	5.672188
2828.000000	5.680228
2826.000000	5.687239
2824.000000	5.694120
2822.000000	5.700241
2820.000000	5.706036
2818.000000	5.711448
2816.000000	5.715759
2814.000000	5.720158
2812.000000	5.724540
2810.000000	5.727982
2808.000000	5.730378
2806.000000	5.733518
2804.000000	5.737548
2802.000000	5.740875
2800.000000	5.743927
2798.000000	5.746765
2796.000000	5.749194
2794.000000	5.750787
2792.000000	5.753433
2790.000000	5.758071
2788.000000	5.761293
2786.000000	5.764144
2784.000000	5.769204
2782.000000	5.774747
2780.000000	5.779210
2778.000000	5.783058
2776.000000	5.787604
2774.000000	5.791683
2772.000000	5.794802
2770.000000	5.797592
2768.000000	5.800967
2766.000000	5.804893
2764.000000	5.809309
2762.000000	5.811753
2760.000000	5.814486
2758.000000	5.818792
2756.000000	5.821972
2754.000000	5.822717
2752.000000	5.824042
2750.000000	5.825719
2748.000000	5.826965
2746.000000	5.828949
2744.000000	5.830945
2742.000000	5.832858
2740.000000	5.835272
2738.000000	5.838059
2736.000000	5.839623
2734.000000	5.841432
2732.000000	5.843208
2730.000000	5.844152
2728.000000	5.846066
2726.000000	5.848599
2724.000000	5.850379
2722.000000	5.851227
2720.000000	5.852307
2718.000000	5.853211
2716.000000	5.853800
2714.000000	5.854234
2712.000000	5.855999
2710.000000	5.858488
2708.000000	5.860379
2706.000000	5.860356
2704.000000	5.859277
2702.000000	5.859937
2700.000000	5.861613
2698.000000	5.863173
2696.000000	5.866263
2694.000000	5.868372
2692.000000	5.867783
2690.000000	5.867928
2688.000000	5.870577
2686.000000	5.872592
2684.000000	5.872979
2682.000000	5.873680
2680.000000	5.874537
2678.000000	5.875119
2676.000000	5.877036
2674.000000	5.878992
2672.000000	5.879119
2670.000000	5.878588
2668.000000	5.879488
2666.000000	5.881711
2664.000000	5.883714
2662.000000	5.883796
2660.000000	5.883734
2658.000000	5.884565
2656.000000	5.885397
2654.000000	5.887283
2652.000000	5.888661
2650.000000	5.888872
2648.000000	5.889842
2646.000000	5.890945
2644.000000	5.893024
2642.000000	5.895449
2640.000000	5.896043
2638.000000	5.896769
2636.000000	5.898605
2634.000000	5.899876
2632.000000	5.900486
2630.000000	5.902269
2628.000000	5.904456
2626.000000	5.904701
2624.000000	5.904431
2622.000000	5.905394
2620.000000	5.906911
2618.000000	5.908014
2616.000000	5.909691
2614.000000	5.910876
2612.000000	5.910841
2610.000000	5.911439
2608.000000	5.912483
2606.000000	5.912677
2604.000000	5.912508
2602.000000	5.912535
2600.000000	5.913089
2598.000000	5.913012
2596.000000	5.912440
2594.000000	5.912483
2592.000000	5.913116
2590.000000	5.913558
2588.000000	5.914251
2586.000000	5.915627
2584.000000	5.917385
2582.000000	5.919846
2580.000000	5.923773
2578.000000	5.927626
2576.000000	5.930151
2574.000000	5.932849
2572.000000	5.936016
2570.000000	5.937779
2568.000000	5.938804
2566.000000	5.940726
2564.000000	5.942447
2562.000000	5.943460
2560.000000	5.944606
2558.000000	5.945726
2556.000000	5.946608
2554.000000	5.947088
2552.000000	5.949098
2550.000000	5.951297
2548.000000	5.953071
2546.000000	5.954419
2544.000000	5.955593
2542.000000	5.957187
2540.000000	5.958244
2538.000000	5.958979
2536.000000	5.959709
2534.000000	5.960573
2532.000000	5.962781
2530.000000	5.964402
2528.000000	5.966490
2526.000000	5.968649
2524.000000	5.969473
2522.000000	5.970035
2520.000000	5.970978
2518.000000	5.972541
2516.000000	5.974496
2514.000000	5.976082
2512.000000	5.976873
2510.000000	5.977330
2508.000000	5.978014
2506.000000	5.979321
2504.000000	5.981942
2502.000000	5.983177
2500.000000	5.984084
2498.000000	5.985615
2496.000000	5.986443
2494.000000	5.986726
2492.000000	5.988088
2490.000000	5.989498
2488.000000	5.990576
2486.000000	5.992314
2484.000000	5.993150
2482.000000	5.993893
2480.000000	5.996044
2478.000000	5.997837
2476.000000	5.999447
2474.000000	6.000889
2472.000000	6.001606
2470.000000	6.002151
2468.000000	6.002419
2466.000000	6.003340
2464.000000	6.004471
2462.000000	6.004287
2460.000000	6.004255
2458.000000	6.005605
2456.000000	6.007052
2454.000000	6.007800
2452.000000	6.009136
2450.000000	6.009356
2448.000000	6.008312
2446.000000	6.008373
2444.000000	6.009496
2442.000000	6.010749
2440.000000	6.011011
2438.000000	6.011017
2436.000000	6.012276
2434.000000	6.013538
2432.000000	6.014318
2430.000000	6.014974
2428.000000	6.015336
2426.000000	6.014619
2424.000000	6.013312
2422.000000	6.013235
2420.000000	6.014001
2418.000000	6.013889
2416.000000	6.013241
2414.000000	6.012233
2412.000000	6.012175
2410.000000	6.012646
2408.000000	6.012708
2406.000000	6.013422
2404.000000	6.014431
2402.000000	6.016358
2400.000000	6.019825
2398.000000	6.022264
2396.000000	6.022973
2394.000000	6.022814
2392.000000	6.023953
2390.000000	6.025442
2388.000000	6.025882
2386.000000	6.026529
2384.000000	6.027081
2382.000000	6.026051
2380.000000	6.024064
2378.000000	6.019218
2376.000000	6.010326
2374.000000	5.998784
2372.000000	5.986245
2370.000000	5.971696
2368.000000	5.957219
2366.000000	5.943468
2364.000000	5.932801
2362.000000	5.927960
2360.000000	5.929423
2358.000000	5.936744
2356.000000	5.947915
2354.000000	5.964531
2352.000000	5.986431
2350.000000	6.006083
2348.000000	6.011880
2346.000000	6.001502
2344.000000	5.987121
2342.000000	5.974742
2340.000000	5.964580
2338.000000	5.960094
2336.000000	5.960242
2334.000000	5.962691
2332.000000	5.965595
2330.000000	5.969528
2328.000000	5.975241
2326.000000	5.981575
2324.000000	5.988428
2322.000000	5.996243
2320.000000	6.004577
2318.000000	6.011428
2316.000000	6.016769
2314.000000	6.021006
2312.000000	6.025081
2310.000000	6.029100
2308.000000	6.032611
2306.000000	6.034604
2304.000000	6.036239
2302.000000	6.039149
2300.000000	6.041821
2298.000000	6.042255
2296.000000	6.041300
2294.000000	6.041895
2292.000000	6.042693
2290.000000	6.043371
2288.000000	6.044276
2286.000000	6.044291
2284.000000	6.043906
2282.000000	6.045879
2280.000000	6.046935
2278.000000	6.045185
2276.000000	6.043867
2274.000000	6.043371
2272.000000	6.043471
2270.000000	6.043284
2268.000000	6.043447
2266.000000	6.043270
2264.000000	6.042237
2262.000000	6.041701
2260.000000	6.041893
2258.000000	6.043369
2256.000000	6.044390
2254.000000	6.043618
2252.000000	6.042583
2250.000000	6.042897
2248.000000	6.044252
2246.000000	6.044971
2244.000000	6.045987
2242.000000	6.047301
2240.000000	6.047941
2238.000000	6.048875
2236.000000	6.049556
2234.000000	6.050993
2232.000000	6.053464
2230.000000	6.054244
2228.000000	6.055087
2226.000000	6.056893
2224.000000	6.058123
2222.000000	6.059218
2220.000000	6.060345
2218.000000	6.061176
2216.000000	6.061833
2214.000000	6.062725
2212.000000	6.063968
2210.000000	6.064494
2208.000000	6.064788
2206.000000	6.066051
2204.000000	6.067927
2202.000000	6.069191
2200.000000	6.070013
2198.000000	6.069854
2196.000000	6.069062
2194.000000	6.068663
2192.000000	6.069838
2190.000000	6.072171
2188.000000	6.073723
2186.000000	6.073398
2184.000000	6.073118
2182.000000	6.073659
2180.000000	6.074001
2178.000000	6.073779
2176.000000	6.073754
2174.000000	6.073361
2172.000000	6.073011
2170.000000	6.071827
2168.000000	6.071073
2166.000000	6.073559
2164.000000	6.076906
2162.000000	6.078563
2160.000000	6.078573
2158.000000	6.077964
2156.000000	6.079303
2154.000000	6.081104
2152.000000	6.080085
2150.000000	6.080870
2148.000000	6.081057
2146.000000	6.079341
2144.000000	6.080692
2142.000000	6.083623
2140.000000	6.083951
2138.000000	6.083074
2136.000000	6.082143
2134.000000	6.083444
2132.000000	6.085749
2130.000000	6.086642
2128.000000	6.086261
2126.000000	6.086524
2124.000000	6.088204
2122.000000	6.089046
2120.000000	6.086937
2118.000000	6.086315
2116.000000	6.086847
2114.000000	6.087062
2112.000000	6.088313
2110.000000	6.090351
2108.000000	6.092689
2106.000000	6.093394
2104.000000	6.095334
2102.000000	6.096854
2100.000000	6.095718
2098.000000	6.094420
2096.000000	6.094573
2094.000000	6.095920
2092.000000	6.099198
2090.000000	6.101419
2088.000000	6.102966
2086.000000	6.105738
2084.000000	6.107311
2082.000000	6.107054
2080.000000	6.107419
2078.000000	6.109515
2076.000000	6.110806
2074.000000	6.111205
2072.000000	6.111892
2070.000000	6.112984
2068.000000	6.113354
2066.000000	6.114098
2064.000000	6.117189
2062.000000	6.120993
2060.000000	6.122218
2058.000000	6.123899
2056.000000	6.126442
2054.000000	6.127173
2052.000000	6.127510
2050.000000	6.129190
2048.000000	6.133082
2046.000000	6.134949
2044.000000	6.134977
2042.000000	6.135392
2040.000000	6.136413
2038.000000	6.138832
2036.000000	6.141338
2034.000000	6.142410
2032.000000	6.141757
2030.000000	6.140167
2028.000000	6.140177
2026.000000	6.142162
2024.000000	6.144607
2022.000000	6.146845
2020.000000	6.147479
2018.000000	6.145650
2016.000000	6.145739
2014.000000	6.149088
2012.000000	6.150620
2010.000000	6.151557
2008.000000	6.153414
2006.000000	6.154932
2004.000000	6.155822
2002.000000	6.156503
2000.000000	6.156452
1998.000000	6.155537
1996.000000	6.155502
1994.000000	6.154582
1992.000000	6.150404
1990.000000	6.150098
1988.000000	6.153832
1986.000000	6.155243
1984.000000	6.155460
1982.000000	6.156894
1980.000000	6.157307
1978.000000	6.155693
1976.000000	6.155458
1974.000000	6.155021
1972.000000	6.153561
1970.000000	6.151823
1968.000000	6.148018
1966.000000	6.145295
1964.000000	6.146231
1962.000000	6.145436
1960.000000	6.139036
1958.000000	6.132491
1956.000000	6.136139
1954.000000	6.139729
1952.000000	6.139811
1950.000000	6.138437
1948.000000	6.135517
1946.000000	6.132708
1944.000000	6.127200
1942.000000	6.119861
1940.000000	6.122034
1938.000000	6.126587
1936.000000	6.126524
1934.000000	6.124771
1932.000000	6.123394
1930.000000	6.120501
1928.000000	6.116964
1926.000000	6.114942
1924.000000	6.108851
1922.000000	6.102372
1920.000000	6.099503
1918.000000	6.088965
1916.000000	6.088878
1914.000000	6.096793
1912.000000	6.094422
1910.000000	6.088463
1908.000000	6.085335
1906.000000	6.084862
1904.000000	6.082118
1902.000000	6.078673
1900.000000	6.075588
1898.000000	6.072879
1896.000000	6.069104
1894.000000	6.066018
1892.000000	6.062858
1890.000000	6.053965
1888.000000	6.051426
1886.000000	6.057338
1884.000000	6.058588
1882.000000	6.057939
1880.000000	6.057712
1878.000000	6.057667
1876.000000	6.054674
1874.000000	6.052116
1872.000000	6.047248
1870.000000	6.030057
1868.000000	6.018255
1866.000000	6.029394
1864.000000	6.040458
1862.000000	6.041288
1860.000000	6.039145
1858.000000	6.038758
1856.000000	6.038302
1854.000000	6.036109
1852.000000	6.032806
1850.000000	6.029039
1848.000000	6.021140
1846.000000	5.999852
1844.000000	5.969720
1842.000000	5.982000
1840.000000	6.008837
1838.000000	6.010174
1836.000000	6.005509
1834.000000	6.002863
1832.000000	5.992069
1830.000000	5.968734
1828.000000	5.964298
1826.000000	5.967085
1824.000000	5.964366
1822.000000	5.972998
1820.000000	5.974847
1818.000000	5.968173
1816.000000	5.962676
1814.000000	5.959924
1812.000000	5.950752
1810.000000	5.941522
1808.000000	5.939386
1806.000000	5.937775
1804.000000	5.930992
1802.000000	5.915774
1800.000000	5.901802
1798.000000	5.902784
1796.000000	5.902545
1794.000000	5.877542
1792.000000	5.844200
1790.000000	5.855683
1788.000000	5.879193
1786.000000	5.872878
1784.000000	5.856868
1782.000000	5.850200
1780.000000	5.842493
1778.000000	5.840561
1776.000000	5.831281
1774.000000	5.791997
1772.000000	5.747548
1770.000000	5.759524
1768.000000	5.778461
1766.000000	5.790953
1764.000000	5.794250
1762.000000	5.769400
1760.000000	5.764567
1758.000000	5.768643
1756.000000	5.756566
1754.000000	5.749693
1752.000000	5.712808
1750.000000	5.680805
1748.000000	5.690222
1746.000000	5.700533
1744.000000	5.697527
1742.000000	5.680055
1740.000000	5.654504
1738.000000	5.650665
1736.000000	5.623390
1734.000000	5.544561
1732.000000	5.563081
1730.000000	5.629581
1728.000000	5.651168
1726.000000	5.655991
1724.000000	5.650221
1722.000000	5.642287
1720.000000	5.607599
1718.000000	5.527267
1716.000000	5.506051
1714.000000	5.561019
1712.000000	5.597881
1710.000000	5.603773
1708.000000	5.587687
1706.000000	5.562134
1704.000000	5.547100
1702.000000	5.504031
1700.000000	5.425659
1698.000000	5.436032
1696.000000	5.432154
1694.000000	5.465837
1692.000000	5.543868
1690.000000	5.552451
1688.000000	5.536074
1686.000000	5.463025
1684.000000	5.384438
1682.000000	5.443484
1680.000000	5.516580
1678.000000	5.521101
1676.000000	5.483890
1674.000000	5.463453
1672.000000	5.477109
1670.000000	5.453502
1668.000000	5.451979
1666.000000	5.483285
1664.000000	5.476107
1662.000000	5.452785
1660.000000	5.465013
1658.000000	5.470041
1656.000000	5.424429
1654.000000	5.284189
1652.000000	5.221125
1650.000000	5.336036
1648.000000	5.372385
1646.000000	5.334017
1644.000000	5.362398
1642.000000	5.401491
1640.000000	5.396673
1638.000000	5.357940
1636.000000	5.284582
1634.000000	5.279336
1632.000000	5.336216
1630.000000	5.343963
1628.000000	5.317413
1626.000000	5.294684
1624.000000	5.261980
1622.000000	5.235928
1620.000000	5.226159
1618.000000	5.166090
1616.000000	5.106326
1614.000000	5.124270
1612.000000	5.125258
1610.000000	5.087327
1608.000000	5.060761
1606.000000	5.055715
1604.000000	5.065635
1602.000000	5.078189
1600.000000	5.091809
1598.000000	5.104269
1596.000000	5.114230
1594.000000	5.120917
1592.000000	5.126496
1590.000000	5.127507
1588.000000	5.126304
1586.000000	5.123212
1584.000000	5.118685
1582.000000	5.114089
1580.000000	5.108652
1578.000000	5.067259
1576.000000	5.006007
1574.000000	5.037903
1572.000000	5.081427
1570.000000	5.052506
1568.000000	5.045053
1566.000000	5.057746
1564.000000	5.047286
1562.000000	4.995084
1560.000000	4.868440
1558.000000	4.815205
1556.000000	4.902494
1554.000000	4.966116
1552.000000	5.004708
1550.000000	5.028635
1548.000000	5.040812
1546.000000	5.036478
1544.000000	5.011746
1542.000000	4.969090
1540.000000	4.920702
1538.000000	4.966895
1536.000000	5.068422
1534.000000	5.084606
1532.000000	5.092238
1530.000000	5.121316
1528.000000	5.119264
1526.000000	5.097917
1524.000000	5.078736
1522.000000	5.032933
1520.000000	5.018932
1518.000000	5.051156
1516.000000	5.056237
1514.000000	5.060014
1512.000000	5.051966
1510.000000	5.027502
1508.000000	4.948911
1506.000000	4.873853
1504.000000	4.903863
1502.000000	4.909654
1500.000000	4.792953
1498.000000	4.601598
1496.000000	4.427505
1494.000000	4.378843
1492.000000	4.427623
1490.000000	4.512807
1488.000000	4.625103
1486.000000	4.731538
1484.000000	4.807143
1482.000000	4.844261
1480.000000	4.860514
1478.000000	4.859785
1476.000000	4.836584
1474.000000	4.797107
1472.000000	4.772286
1470.000000	4.797529
1468.000000	4.809824
1466.000000	4.775096
1464.000000	4.742224
1462.000000	4.735237
1460.000000	4.692740
1458.000000	4.583331
1456.000000	4.498910
1454.000000	4.498908
1452.000000	4.487045
1450.000000	4.477867
1448.000000	4.512467
1446.000000	4.573361
1444.000000	4.614915
1442.000000	4.627043
1440.000000	4.624485
1438.000000	4.595503
1436.000000	4.574336
1434.000000	4.608786
1432.000000	4.628758
1430.000000	4.623529
1428.000000	4.625365
1426.000000	4.628785
1424.000000	4.621116
1422.000000	4.609288
1420.000000	4.570051
1418.000000	4.552621
1416.000000	4.575998
1414.000000	4.581288
1412.000000	4.565308
1410.000000	4.538332
1408.000000	4.499378
1406.000000	4.448355
1404.000000	4.411204
1402.000000	4.406487
1400.000000	4.413599
1398.000000	4.432774
1396.000000	4.457128
1394.000000	4.475298
1392.000000	4.501981
1390.000000	4.510622
1388.000000	4.490000
1386.000000	4.471621
1384.000000	4.469389
1382.000000	4.475193
1380.000000	4.483775
1378.000000	4.482199
1376.000000	4.472557
1374.000000	4.461010
1372.000000	4.459890
1370.000000	4.459142
1368.000000	4.451765
1366.000000	4.444390
1364.000000	4.429910
1362.000000	4.415019
1360.000000	4.411632
1358.000000	4.409278
1356.000000	4.400194
1354.000000	4.387038
1352.000000	4.375927
1350.000000	4.365565
1348.000000	4.353948
1346.000000	4.340409
1344.000000	4.326121
1342.000000	4.309753
1340.000000	4.292584
1338.000000	4.283242
1336.000000	4.281202
1334.000000	4.277785
1332.000000	4.271225
1330.000000	4.260850
1328.000000	4.248726
1326.000000	4.236426
1324.000000	4.222082
1322.000000	4.205711
1320.000000	4.188250
1318.000000	4.169980
1316.000000	4.154000
1314.000000	4.138378
1312.000000	4.121200
1310.000000	4.103262
1308.000000	4.084873
1306.000000	4.066908
1304.000000	4.048521
1302.000000	4.029192
1300.000000	4.009726
1298.000000	3.990646
1296.000000	3.970121
1294.000000	3.949446
1292.000000	3.928345
1290.000000	3.905987
1288.000000	3.884190
1286.000000	3.861530
1284.000000	3.837158
1282.000000	3.812536
1280.000000	3.786736
1278.000000	3.758199
1276.000000	3.726205
1274.000000	3.689101
1272.000000	3.644655
1270.000000	3.590533
1268.000000	3.523585
1266.000000	3.438601
1264.000000	3.343649
1262.000000	3.259433
1260.000000	3.210829
1258.000000	3.206767
1256.000000	3.231679
1254.000000	3.261273
1252.000000	3.275155
1250.000000	3.268937
1248.000000	3.249661
1246.000000	3.223049
1244.000000	3.194193
1242.000000	3.162461
1240.000000	3.130717
1238.000000	3.101843
1236.000000	3.072590
1234.000000	3.042612
1232.000000	3.014794
1230.000000	2.987388
1228.000000	2.959256
1226.000000	2.932300
1224.000000	2.903468
1222.000000	2.873094
1220.000000	2.843846
1218.000000	2.812905
1216.000000	2.781529
1214.000000	2.750882
1212.000000	2.720540
1210.000000	2.693180
1208.000000	2.668145
1206.000000	2.643060
1204.000000	2.617977
1202.000000	2.592290
1200.000000	2.568256
1198.000000	2.544616
1196.000000	2.519749
1194.000000	2.495057
1192.000000	2.470075
1190.000000	2.443264
1188.000000	2.415553
1186.000000	2.386763
1184.000000	2.355216
1182.000000	2.314881
1180.000000	2.275779
1178.000000	2.254679
1176.000000	2.240818
1174.000000	2.220437
1172.000000	2.194210
1170.000000	2.167260
1168.000000	2.139621
1166.000000	2.110427
1164.000000	2.082008
1162.000000	2.054128
1160.000000	2.026373
1158.000000	2.000834
1156.000000	1.975743
1154.000000	1.950607
1152.000000	1.925760
1150.000000	1.900573
1148.000000	1.875252
1146.000000	1.849543
1144.000000	1.822591
1142.000000	1.798614
1140.000000	1.780754
1138.000000	1.763434
1136.000000	1.742461
1134.000000	1.718812
1132.000000	1.695654
1130.000000	1.672150
1128.000000	1.647473
1126.000000	1.623076
1124.000000	1.598276
1122.000000	1.573353
1120.000000	1.547396
1118.000000	1.520630
1116.000000	1.494436
1114.000000	1.467313
1112.000000	1.439135
1110.000000	1.412007
1108.000000	1.386135
1106.000000	1.360641
1104.000000	1.335890
1102.000000	1.311527
1100.000000	1.287649
1098.000000	1.264533
1096.000000	1.241153
1094.000000	1.219293
1092.000000	1.200500
1090.000000	1.181357
1088.000000	1.161604
1086.000000	1.144501
1084.000000	1.127228
1082.000000	1.108256
1080.000000	1.090570
1078.000000	1.074698
1076.000000	1.059854
1074.000000	1.046468
1072.000000	1.034664
1070.000000	1.022992
1068.000000	1.011662
1066.000000	1.001820
1064.000000	0.989885
1062.000000	0.977257
1060.000000	0.965320
1058.000000	0.951981
1056.000000	0.933257
1054.000000	0.907120
1052.000000	0.878797
1050.000000	0.860506
1048.000000	0.856635
1046.000000	0.860356
1044.000000	0.863153
1042.000000	0.858802
1040.000000	0.848801
1038.000000	0.837781
1036.000000	0.827260
1034.000000	0.815694
1032.000000	0.801882
1030.000000	0.787682
1028.000000	0.773111
1026.000000	0.758613
1024.000000	0.744990
1022.000000	0.730508
1020.000000	0.715717
1018.000000	0.704906
1016.000000	0.694771
1014.000000	0.684279
1012.000000	0.677005
1010.000000	0.671543
1008.000000	0.665531
1006.000000	0.656696
1004.000000	0.647379
1002.000000	0.638779
1000.000000	0.629640
