PE IR       SUBTECH     SPECTRUM    ASCII       PEDS        4.00        
   -1
TE110A_090_80K_AFTER_150K_2MIN.ASC
20/05/14
16:34:56.00
20/05/14
16:34:56.00
Administrator
TE110A.Thursday, May 14 2020, 021.
1000.000000
#HDR
-1
-1
#GR
cm-1
A
1.0
0.0
6000.000000
-2.000000
2501
8
1.264531
1.204585
#DATA
6000.000000	1.217217
5998.000000	1.217325
5996.000000	1.217467
5994.000000	1.217377
5992.000000	1.216968
5990.000000	1.216675
5988.000000	1.216572
5986.000000	1.216811
5984.000000	1.217090
5982.000000	1.217100
5980.000000	1.217070
5978.000000	1.217062
5976.000000	1.216858
5974.000000	1.216729
5972.000000	1.216718
5970.000000	1.217048
5968.000000	1.217159
5966.000000	1.217087
5964.000000	1.217031
5962.000000	1.216957
5960.000000	1.216954
5958.000000	1.216856
5956.000000	1.216898
5954.000000	1.216938
5952.000000	1.217072
5950.000000	1.216994
5948.000000	1.217175
5946.000000	1.217116
5944.000000	1.216800
5942.000000	1.216555
5940.000000	1.216350
5938.000000	1.216428
5936.000000	1.216472
5934.000000	1.216465
5932.000000	1.216276
5930.000000	1.216102
5928.000000	1.216074
5926.000000	1.216425
5924.000000	1.216998
5922.000000	1.217079
5920.000000	1.216914
5918.000000	1.216581
5916.000000	1.216196
5914.000000	1.216190
5912.000000	1.216520
5910.000000	1.216987
5908.000000	1.217055
5906.000000	1.216750
5904.000000	1.216510
5902.000000	1.216531
5900.000000	1.216755
5898.000000	1.216834
5896.000000	1.216951
5894.000000	1.216858
5892.000000	1.216974
5890.000000	1.216809
5888.000000	1.216676
5886.000000	1.216498
5884.000000	1.216308
5882.000000	1.216248
5880.000000	1.216172
5878.000000	1.216306
5876.000000	1.216354
5874.000000	1.216358
5872.000000	1.216398
5870.000000	1.216446
5868.000000	1.216515
5866.000000	1.216372
5864.000000	1.216298
5862.000000	1.216077
5860.000000	1.215778
5858.000000	1.215551
5856.000000	1.215652
5854.000000	1.216037
5852.000000	1.216360
5850.000000	1.216400
5848.000000	1.216146
5846.000000	1.216213
5844.000000	1.216404
5842.000000	1.216553
5840.000000	1.216502
5838.000000	1.216408
5836.000000	1.216449
5834.000000	1.216564
5832.000000	1.216674
5830.000000	1.216601
5828.000000	1.216574
5826.000000	1.216489
5824.000000	1.216747
5822.000000	1.216814
5820.000000	1.216795
5818.000000	1.217009
5816.000000	1.217224
5814.000000	1.217157
5812.000000	1.216709
5810.000000	1.216566
5808.000000	1.216795
5806.000000	1.217110
5804.000000	1.217174
5802.000000	1.217008
5800.000000	1.216672
5798.000000	1.216445
5796.000000	1.216726
5794.000000	1.217033
5792.000000	1.217197
5790.000000	1.216924
5788.000000	1.216697
5786.000000	1.216532
5784.000000	1.216620
5782.000000	1.216934
5780.000000	1.217007
5778.000000	1.217044
5776.000000	1.217021
5774.000000	1.216834
5772.000000	1.216578
5770.000000	1.216266
5768.000000	1.216413
5766.000000	1.216780
5764.000000	1.216928
5762.000000	1.216923
5760.000000	1.216595
5758.000000	1.216359
5756.000000	1.216423
5754.000000	1.216624
5752.000000	1.216753
5750.000000	1.216805
5748.000000	1.216774
5746.000000	1.216917
5744.000000	1.216807
5742.000000	1.216574
5740.000000	1.216432
5738.000000	1.216485
5736.000000	1.216719
5734.000000	1.216833
5732.000000	1.216814
5730.000000	1.216789
5728.000000	1.216729
5726.000000	1.216469
5724.000000	1.216372
5722.000000	1.216341
5720.000000	1.216377
5718.000000	1.216345
5716.000000	1.216298
5714.000000	1.216493
5712.000000	1.216581
5710.000000	1.216652
5708.000000	1.216757
5706.000000	1.216777
5704.000000	1.216803
5702.000000	1.216742
5700.000000	1.216745
5698.000000	1.216831
5696.000000	1.216826
5694.000000	1.216825
5692.000000	1.216814
5690.000000	1.216658
5688.000000	1.216661
5686.000000	1.216739
5684.000000	1.216884
5682.000000	1.217026
5680.000000	1.216935
5678.000000	1.216739
5676.000000	1.216538
5674.000000	1.216470
5672.000000	1.216666
5670.000000	1.216669
5668.000000	1.216614
5666.000000	1.216484
5664.000000	1.216428
5662.000000	1.216502
5660.000000	1.216585
5658.000000	1.216535
5656.000000	1.216438
5654.000000	1.216382
5652.000000	1.216503
5650.000000	1.216711
5648.000000	1.216894
5646.000000	1.217096
5644.000000	1.217112
5642.000000	1.217013
5640.000000	1.216894
5638.000000	1.216711
5636.000000	1.216549
5634.000000	1.216444
5632.000000	1.216513
5630.000000	1.216472
5628.000000	1.216437
5626.000000	1.216369
5624.000000	1.216539
5622.000000	1.216790
5620.000000	1.216921
5618.000000	1.216866
5616.000000	1.216742
5614.000000	1.216690
5612.000000	1.216769
5610.000000	1.216731
5608.000000	1.216610
5606.000000	1.216513
5604.000000	1.216446
5602.000000	1.216492
5600.000000	1.216604
5598.000000	1.216728
5596.000000	1.216816
5594.000000	1.216761
5592.000000	1.216726
5590.000000	1.216645
5588.000000	1.216537
5586.000000	1.216467
5584.000000	1.216531
5582.000000	1.216581
5580.000000	1.216620
5578.000000	1.216629
5576.000000	1.216602
5574.000000	1.216607
5572.000000	1.216526
5570.000000	1.216521
5568.000000	1.216651
5566.000000	1.216787
5564.000000	1.216693
5562.000000	1.216409
5560.000000	1.216321
5558.000000	1.216314
5556.000000	1.216193
5554.000000	1.216170
5552.000000	1.216354
5550.000000	1.216611
5548.000000	1.216674
5546.000000	1.216619
5544.000000	1.216744
5542.000000	1.216923
5540.000000	1.216998
5538.000000	1.216863
5536.000000	1.216656
5534.000000	1.216650
5532.000000	1.216657
5530.000000	1.216599
5528.000000	1.216535
5526.000000	1.216634
5524.000000	1.216686
5522.000000	1.216770
5520.000000	1.216821
5518.000000	1.216888
5516.000000	1.216893
5514.000000	1.216765
5512.000000	1.216591
5510.000000	1.216596
5508.000000	1.216758
5506.000000	1.216934
5504.000000	1.216760
5502.000000	1.216467
5500.000000	1.216416
5498.000000	1.216443
5496.000000	1.216439
5494.000000	1.216298
5492.000000	1.216259
5490.000000	1.216496
5488.000000	1.216853
5486.000000	1.217013
5484.000000	1.216794
5482.000000	1.216438
5480.000000	1.216134
5478.000000	1.215982
5476.000000	1.216147
5474.000000	1.216399
5472.000000	1.216455
5470.000000	1.216286
5468.000000	1.216268
5466.000000	1.216335
5464.000000	1.216305
5462.000000	1.216256
5460.000000	1.216291
5458.000000	1.216369
5456.000000	1.216446
5454.000000	1.216376
5452.000000	1.216117
5450.000000	1.215849
5448.000000	1.215769
5446.000000	1.215991
5444.000000	1.216095
5442.000000	1.216185
5440.000000	1.216217
5438.000000	1.216369
5436.000000	1.216482
5434.000000	1.216497
5432.000000	1.216412
5430.000000	1.216286
5428.000000	1.216554
5426.000000	1.216932
5424.000000	1.217110
5422.000000	1.216788
5420.000000	1.216397
5418.000000	1.215980
5416.000000	1.215582
5414.000000	1.215541
5412.000000	1.215864
5410.000000	1.216342
5408.000000	1.216590
5406.000000	1.216614
5404.000000	1.216625
5402.000000	1.216621
5400.000000	1.216594
5398.000000	1.216317
5396.000000	1.216019
5394.000000	1.216010
5392.000000	1.216255
5390.000000	1.216393
5388.000000	1.216235
5386.000000	1.216081
5384.000000	1.216079
5382.000000	1.216016
5380.000000	1.215702
5378.000000	1.215573
5376.000000	1.215877
5374.000000	1.216407
5372.000000	1.216535
5370.000000	1.216343
5368.000000	1.216228
5366.000000	1.216315
5364.000000	1.216374
5362.000000	1.216396
5360.000000	1.216431
5358.000000	1.216218
5356.000000	1.215823
5354.000000	1.215811
5352.000000	1.216245
5350.000000	1.216442
5348.000000	1.216098
5346.000000	1.215856
5344.000000	1.216047
5342.000000	1.216044
5340.000000	1.215802
5338.000000	1.215833
5336.000000	1.216237
5334.000000	1.216472
5332.000000	1.216331
5330.000000	1.216121
5328.000000	1.216105
5326.000000	1.216336
5324.000000	1.216600
5322.000000	1.216635
5320.000000	1.216476
5318.000000	1.216441
5316.000000	1.216584
5314.000000	1.216676
5312.000000	1.216643
5310.000000	1.216447
5308.000000	1.216363
5306.000000	1.216449
5304.000000	1.216507
5302.000000	1.216480
5300.000000	1.216545
5298.000000	1.216713
5296.000000	1.216685
5294.000000	1.216265
5292.000000	1.216006
5290.000000	1.216076
5288.000000	1.216294
5286.000000	1.216442
5284.000000	1.216529
5282.000000	1.216627
5280.000000	1.216648
5278.000000	1.216562
5276.000000	1.216460
5274.000000	1.216377
5272.000000	1.216394
5270.000000	1.216472
5268.000000	1.216374
5266.000000	1.216114
5264.000000	1.215998
5262.000000	1.216238
5260.000000	1.216587
5258.000000	1.216422
5256.000000	1.216270
5254.000000	1.216423
5252.000000	1.216529
5250.000000	1.216326
5248.000000	1.216135
5246.000000	1.216376
5244.000000	1.216747
5242.000000	1.216921
5240.000000	1.216830
5238.000000	1.216664
5236.000000	1.216567
5234.000000	1.216486
5232.000000	1.216403
5230.000000	1.216421
5228.000000	1.216478
5226.000000	1.216458
5224.000000	1.216631
5222.000000	1.216702
5220.000000	1.216657
5218.000000	1.216620
5216.000000	1.216790
5214.000000	1.216749
5212.000000	1.216431
5210.000000	1.216111
5208.000000	1.216141
5206.000000	1.216539
5204.000000	1.216893
5202.000000	1.216912
5200.000000	1.216715
5198.000000	1.216633
5196.000000	1.216685
5194.000000	1.216716
5192.000000	1.216708
5190.000000	1.216586
5188.000000	1.216347
5186.000000	1.216233
5184.000000	1.216365
5182.000000	1.216625
5180.000000	1.216772
5178.000000	1.216791
5176.000000	1.216735
5174.000000	1.216627
5172.000000	1.216571
5170.000000	1.216613
5168.000000	1.216667
5166.000000	1.216548
5164.000000	1.216511
5162.000000	1.216673
5160.000000	1.216885
5158.000000	1.216938
5156.000000	1.216932
5154.000000	1.216914
5152.000000	1.216823
5150.000000	1.216699
5148.000000	1.216747
5146.000000	1.216830
5144.000000	1.216751
5142.000000	1.216618
5140.000000	1.216716
5138.000000	1.216901
5136.000000	1.216854
5134.000000	1.216722
5132.000000	1.216715
5130.000000	1.216799
5128.000000	1.216857
5126.000000	1.216885
5124.000000	1.216826
5122.000000	1.216739
5120.000000	1.216763
5118.000000	1.216916
5116.000000	1.217019
5114.000000	1.216990
5112.000000	1.216922
5110.000000	1.216985
5108.000000	1.217136
5106.000000	1.217219
5104.000000	1.217267
5102.000000	1.217223
5100.000000	1.217121
5098.000000	1.217008
5096.000000	1.216995
5094.000000	1.217050
5092.000000	1.217130
5090.000000	1.217196
5088.000000	1.217078
5086.000000	1.216893
5084.000000	1.216862
5082.000000	1.216892
5080.000000	1.216913
5078.000000	1.216945
5076.000000	1.217111
5074.000000	1.217130
5072.000000	1.217064
5070.000000	1.217035
5068.000000	1.217077
5066.000000	1.217139
5064.000000	1.217194
5062.000000	1.217239
5060.000000	1.217181
5058.000000	1.217184
5056.000000	1.217226
5054.000000	1.217350
5052.000000	1.217530
5050.000000	1.217602
5048.000000	1.217474
5046.000000	1.217310
5044.000000	1.217275
5042.000000	1.217336
5040.000000	1.217372
5038.000000	1.217315
5036.000000	1.217258
5034.000000	1.217401
5032.000000	1.217563
5030.000000	1.217611
5028.000000	1.217601
5026.000000	1.217609
5024.000000	1.217503
5022.000000	1.217439
5020.000000	1.217478
5018.000000	1.217522
5016.000000	1.217458
5014.000000	1.217377
5012.000000	1.217458
5010.000000	1.217580
5008.000000	1.217628
5006.000000	1.217610
5004.000000	1.217622
5002.000000	1.217687
5000.000000	1.217733
4998.000000	1.217714
4996.000000	1.217658
4994.000000	1.217606
4992.000000	1.217559
4990.000000	1.217477
4988.000000	1.217491
4986.000000	1.217554
4984.000000	1.217596
4982.000000	1.217575
4980.000000	1.217475
4978.000000	1.217472
4976.000000	1.217645
4974.000000	1.217820
4972.000000	1.217790
4970.000000	1.217716
4968.000000	1.217707
4966.000000	1.217775
4964.000000	1.217858
4962.000000	1.217976
4960.000000	1.218038
4958.000000	1.218032
4956.000000	1.217916
4954.000000	1.217865
4952.000000	1.217944
4950.000000	1.218118
4948.000000	1.218123
4946.000000	1.217982
4944.000000	1.217806
4942.000000	1.217764
4940.000000	1.217861
4938.000000	1.218017
4936.000000	1.218044
4934.000000	1.217997
4932.000000	1.218070
4930.000000	1.218243
4928.000000	1.218253
4926.000000	1.218153
4924.000000	1.218195
4922.000000	1.218311
4920.000000	1.218269
4918.000000	1.218088
4916.000000	1.218067
4914.000000	1.218206
4912.000000	1.218228
4910.000000	1.218105
4908.000000	1.218087
4906.000000	1.218189
4904.000000	1.218200
4902.000000	1.218114
4900.000000	1.218091
4898.000000	1.218131
4896.000000	1.218231
4894.000000	1.218388
4892.000000	1.218375
4890.000000	1.218187
4888.000000	1.218099
4886.000000	1.218180
4884.000000	1.218231
4882.000000	1.218202
4880.000000	1.218315
4878.000000	1.218489
4876.000000	1.218596
4874.000000	1.218603
4872.000000	1.218571
4870.000000	1.218526
4868.000000	1.218593
4866.000000	1.218692
4864.000000	1.218672
4862.000000	1.218579
4860.000000	1.218533
4858.000000	1.218491
4856.000000	1.218484
4854.000000	1.218629
4852.000000	1.218756
4850.000000	1.218776
4848.000000	1.218738
4846.000000	1.218778
4844.000000	1.218850
4842.000000	1.218896
4840.000000	1.218916
4838.000000	1.218831
4836.000000	1.218665
4834.000000	1.218600
4832.000000	1.218654
4830.000000	1.218694
4828.000000	1.218819
4826.000000	1.219007
4824.000000	1.219107
4822.000000	1.219075
4820.000000	1.219008
4818.000000	1.218887
4816.000000	1.218793
4814.000000	1.218685
4812.000000	1.218628
4810.000000	1.218676
4808.000000	1.218744
4806.000000	1.218685
4804.000000	1.218622
4802.000000	1.218635
4800.000000	1.218687
4798.000000	1.218716
4796.000000	1.218776
4794.000000	1.218775
4792.000000	1.218748
4790.000000	1.218794
4788.000000	1.218883
4786.000000	1.218888
4784.000000	1.218863
4782.000000	1.218866
4780.000000	1.218842
4778.000000	1.218853
4776.000000	1.218930
4774.000000	1.219028
4772.000000	1.219064
4770.000000	1.219025
4768.000000	1.219007
4766.000000	1.219085
4764.000000	1.219176
4762.000000	1.219155
4760.000000	1.219119
4758.000000	1.219205
4756.000000	1.219285
4754.000000	1.219257
4752.000000	1.219234
4750.000000	1.219281
4748.000000	1.219259
4746.000000	1.219211
4744.000000	1.219165
4742.000000	1.219060
4740.000000	1.218911
4738.000000	1.218913
4736.000000	1.219019
4734.000000	1.219103
4732.000000	1.219098
4730.000000	1.219100
4728.000000	1.219121
4726.000000	1.219099
4724.000000	1.218987
4722.000000	1.219003
4720.000000	1.219104
4718.000000	1.219130
4716.000000	1.219077
4714.000000	1.219126
4712.000000	1.219219
4710.000000	1.219213
4708.000000	1.219100
4706.000000	1.218987
4704.000000	1.218941
4702.000000	1.218926
4700.000000	1.218983
4698.000000	1.219053
4696.000000	1.219039
4694.000000	1.218976
4692.000000	1.218988
4690.000000	1.219051
4688.000000	1.219037
4686.000000	1.219041
4684.000000	1.219143
4682.000000	1.219221
4680.000000	1.219183
4678.000000	1.219143
4676.000000	1.219116
4674.000000	1.219131
4672.000000	1.219194
4670.000000	1.219225
4668.000000	1.219191
4666.000000	1.219268
4664.000000	1.219398
4662.000000	1.219428
4660.000000	1.219436
4658.000000	1.219468
4656.000000	1.219407
4654.000000	1.219295
4652.000000	1.219321
4650.000000	1.219385
4648.000000	1.219398
4646.000000	1.219414
4644.000000	1.219485
4642.000000	1.219519
4640.000000	1.219551
4638.000000	1.219574
4636.000000	1.219459
4634.000000	1.219306
4632.000000	1.219337
4630.000000	1.219516
4628.000000	1.219608
4626.000000	1.219531
4624.000000	1.219427
4622.000000	1.219434
4620.000000	1.219467
4618.000000	1.219486
4616.000000	1.219593
4614.000000	1.219699
4612.000000	1.219749
4610.000000	1.219733
4608.000000	1.219647
4606.000000	1.219557
4604.000000	1.219554
4602.000000	1.219577
4600.000000	1.219570
4598.000000	1.219517
4596.000000	1.219503
4594.000000	1.219586
4592.000000	1.219634
4590.000000	1.219576
4588.000000	1.219590
4586.000000	1.219741
4584.000000	1.219898
4582.000000	1.219937
4580.000000	1.219867
4578.000000	1.219771
4576.000000	1.219731
4574.000000	1.219732
4572.000000	1.219677
4570.000000	1.219652
4568.000000	1.219762
4566.000000	1.219960
4564.000000	1.219995
4562.000000	1.219896
4560.000000	1.219851
4558.000000	1.219936
4556.000000	1.219947
4554.000000	1.219864
4552.000000	1.219790
4550.000000	1.219777
4548.000000	1.219820
4546.000000	1.219874
4544.000000	1.219911
4542.000000	1.219964
4540.000000	1.219962
4538.000000	1.219876
4536.000000	1.219872
4534.000000	1.219934
4532.000000	1.219841
4530.000000	1.219748
4528.000000	1.219811
4526.000000	1.219895
4524.000000	1.219871
4522.000000	1.219856
4520.000000	1.219868
4518.000000	1.219909
4516.000000	1.219927
4514.000000	1.219935
4512.000000	1.219945
4510.000000	1.219931
4508.000000	1.219855
4506.000000	1.219848
4504.000000	1.219900
4502.000000	1.219895
4500.000000	1.219863
4498.000000	1.219878
4496.000000	1.219868
4494.000000	1.219868
4492.000000	1.219884
4490.000000	1.219957
4488.000000	1.220072
4486.000000	1.220101
4484.000000	1.220018
4482.000000	1.220037
4480.000000	1.220043
4478.000000	1.219958
4476.000000	1.219966
4474.000000	1.220101
4472.000000	1.220150
4470.000000	1.220136
4468.000000	1.220188
4466.000000	1.220294
4464.000000	1.220286
4462.000000	1.220174
4460.000000	1.220140
4458.000000	1.220199
4456.000000	1.220250
4454.000000	1.220256
4452.000000	1.220204
4450.000000	1.220133
4448.000000	1.220039
4446.000000	1.219959
4444.000000	1.220016
4442.000000	1.220129
4440.000000	1.220178
4438.000000	1.220194
4436.000000	1.220213
4434.000000	1.220240
4432.000000	1.220270
4430.000000	1.220297
4428.000000	1.220283
4426.000000	1.220250
4424.000000	1.220244
4422.000000	1.220219
4420.000000	1.220182
4418.000000	1.220204
4416.000000	1.220198
4414.000000	1.220153
4412.000000	1.220118
4410.000000	1.220075
4408.000000	1.220147
4406.000000	1.220296
4404.000000	1.220309
4402.000000	1.220265
4400.000000	1.220315
4398.000000	1.220369
4396.000000	1.220319
4394.000000	1.220205
4392.000000	1.220137
4390.000000	1.220206
4388.000000	1.220323
4386.000000	1.220370
4384.000000	1.220327
4382.000000	1.220303
4380.000000	1.220340
4378.000000	1.220383
4376.000000	1.220340
4374.000000	1.220312
4372.000000	1.220380
4370.000000	1.220470
4368.000000	1.220466
4366.000000	1.220468
4364.000000	1.220481
4362.000000	1.220489
4360.000000	1.220441
4358.000000	1.220330
4356.000000	1.220275
4354.000000	1.220372
4352.000000	1.220447
4350.000000	1.220468
4348.000000	1.220475
4346.000000	1.220442
4344.000000	1.220379
4342.000000	1.220331
4340.000000	1.220308
4338.000000	1.220347
4336.000000	1.220370
4334.000000	1.220366
4332.000000	1.220396
4330.000000	1.220413
4328.000000	1.220391
4326.000000	1.220438
4324.000000	1.220472
4322.000000	1.220446
4320.000000	1.220446
4318.000000	1.220449
4316.000000	1.220428
4314.000000	1.220378
4312.000000	1.220307
4310.000000	1.220305
4308.000000	1.220308
4306.000000	1.220299
4304.000000	1.220332
4302.000000	1.220357
4300.000000	1.220380
4298.000000	1.220431
4296.000000	1.220425
4294.000000	1.220334
4292.000000	1.220218
4290.000000	1.220210
4288.000000	1.220288
4286.000000	1.220361
4284.000000	1.220379
4282.000000	1.220390
4280.000000	1.220457
4278.000000	1.220457
4276.000000	1.220384
4274.000000	1.220435
4272.000000	1.220513
4270.000000	1.220520
4268.000000	1.220523
4266.000000	1.220477
4264.000000	1.220360
4262.000000	1.220345
4260.000000	1.220478
4258.000000	1.220556
4256.000000	1.220506
4254.000000	1.220449
4252.000000	1.220378
4250.000000	1.220304
4248.000000	1.220299
4246.000000	1.220337
4244.000000	1.220359
4242.000000	1.220367
4240.000000	1.220329
4238.000000	1.220281
4236.000000	1.220302
4234.000000	1.220358
4232.000000	1.220313
4230.000000	1.220184
4228.000000	1.220107
4226.000000	1.220135
4224.000000	1.220201
4222.000000	1.220286
4220.000000	1.220326
4218.000000	1.220312
4216.000000	1.220290
4214.000000	1.220258
4212.000000	1.220207
4210.000000	1.220200
4208.000000	1.220219
4206.000000	1.220206
4204.000000	1.220156
4202.000000	1.220117
4200.000000	1.220119
4198.000000	1.220192
4196.000000	1.220255
4194.000000	1.220282
4192.000000	1.220283
4190.000000	1.220244
4188.000000	1.220225
4186.000000	1.220269
4184.000000	1.220222
4182.000000	1.220152
4180.000000	1.220187
4178.000000	1.220237
4176.000000	1.220206
4174.000000	1.220169
4172.000000	1.220182
4170.000000	1.220252
4168.000000	1.220292
4166.000000	1.220258
4164.000000	1.220216
4162.000000	1.220200
4160.000000	1.220186
4158.000000	1.220187
4156.000000	1.220136
4154.000000	1.220051
4152.000000	1.220011
4150.000000	1.219947
4148.000000	1.219842
4146.000000	1.219847
4144.000000	1.219893
4142.000000	1.219861
4140.000000	1.219843
4138.000000	1.219868
4136.000000	1.219852
4134.000000	1.219828
4132.000000	1.219806
4130.000000	1.219803
4128.000000	1.219789
4126.000000	1.219780
4124.000000	1.219816
4122.000000	1.219848
4120.000000	1.219868
4118.000000	1.219838
4116.000000	1.219681
4114.000000	1.219580
4112.000000	1.219619
4110.000000	1.219663
4108.000000	1.219663
4106.000000	1.219644
4104.000000	1.219609
4102.000000	1.219608
4100.000000	1.219685
4098.000000	1.219770
4096.000000	1.219736
4094.000000	1.219694
4092.000000	1.219715
4090.000000	1.219700
4088.000000	1.219703
4086.000000	1.219733
4084.000000	1.219664
4082.000000	1.219619
4080.000000	1.219674
4078.000000	1.219720
4076.000000	1.219664
4074.000000	1.219540
4072.000000	1.219467
4070.000000	1.219511
4068.000000	1.219518
4066.000000	1.219493
4064.000000	1.219448
4062.000000	1.219351
4060.000000	1.219300
4058.000000	1.219348
4056.000000	1.219385
4054.000000	1.219388
4052.000000	1.219363
4050.000000	1.219279
4048.000000	1.219130
4046.000000	1.219041
4044.000000	1.219085
4042.000000	1.219184
4040.000000	1.219176
4038.000000	1.219038
4036.000000	1.218943
4034.000000	1.218986
4032.000000	1.219017
4030.000000	1.218996
4028.000000	1.218981
4026.000000	1.218982
4024.000000	1.219025
4022.000000	1.219042
4020.000000	1.219019
4018.000000	1.218980
4016.000000	1.218877
4014.000000	1.218809
4012.000000	1.218811
4010.000000	1.218852
4008.000000	1.218869
4006.000000	1.218826
4004.000000	1.218811
4002.000000	1.218849
4000.000000	1.218827
3998.000000	1.218754
3996.000000	1.218792
3994.000000	1.218888
3992.000000	1.218839
3990.000000	1.218779
3988.000000	1.218769
3986.000000	1.218723
3984.000000	1.218718
3982.000000	1.218752
3980.000000	1.218682
3978.000000	1.218580
3976.000000	1.218475
3974.000000	1.218356
3972.000000	1.218374
3970.000000	1.218461
3968.000000	1.218448
3966.000000	1.218356
3964.000000	1.218188
3962.000000	1.218139
3960.000000	1.218225
3958.000000	1.218255
3956.000000	1.218227
3954.000000	1.218095
3952.000000	1.217859
3950.000000	1.217777
3948.000000	1.217901
3946.000000	1.217835
3944.000000	1.217612
3942.000000	1.217876
3940.000000	1.218217
3938.000000	1.218062
3936.000000	1.217577
3934.000000	1.217058
3932.000000	1.217162
3930.000000	1.217696
3928.000000	1.217590
3926.000000	1.217178
3924.000000	1.217201
3922.000000	1.217089
3920.000000	1.216541
3918.000000	1.216524
3916.000000	1.217387
3914.000000	1.217956
3912.000000	1.217743
3910.000000	1.217352
3908.000000	1.216229
3906.000000	1.214326
3904.000000	1.213586
3902.000000	1.214487
3900.000000	1.216024
3898.000000	1.217583
3896.000000	1.217657
3894.000000	1.215829
3892.000000	1.215053
3890.000000	1.216008
3888.000000	1.215126
3886.000000	1.214333
3884.000000	1.215904
3882.000000	1.216202
3880.000000	1.216203
3878.000000	1.216880
3876.000000	1.215981
3874.000000	1.214439
3872.000000	1.212849
3870.000000	1.213360
3868.000000	1.215507
3866.000000	1.215328
3864.000000	1.215180
3862.000000	1.216502
3860.000000	1.216571
3858.000000	1.212888
3856.000000	1.205986
3854.000000	1.205442
3852.000000	1.213987
3850.000000	1.219417
3848.000000	1.218090
3846.000000	1.215695
3844.000000	1.214522
3842.000000	1.213219
3840.000000	1.210761
3838.000000	1.211054
3836.000000	1.214577
3834.000000	1.215923
3832.000000	1.215596
3830.000000	1.215903
3828.000000	1.215706
3826.000000	1.214931
3824.000000	1.212812
3822.000000	1.211532
3820.000000	1.212944
3818.000000	1.212410
3816.000000	1.212793
3814.000000	1.216626
3812.000000	1.217215
3810.000000	1.214003
3808.000000	1.212109
3806.000000	1.213284
3804.000000	1.212290
3802.000000	1.210909
3800.000000	1.214234
3798.000000	1.216295
3796.000000	1.215958
3794.000000	1.216368
3792.000000	1.216358
3790.000000	1.216028
3788.000000	1.215702
3786.000000	1.215442
3784.000000	1.215423
3782.000000	1.214895
3780.000000	1.214598
3778.000000	1.215591
3776.000000	1.216182
3774.000000	1.215276
3772.000000	1.213781
3770.000000	1.213644
3768.000000	1.214631
3766.000000	1.215055
3764.000000	1.215121
3762.000000	1.214296
3760.000000	1.213525
3758.000000	1.214068
3756.000000	1.212790
3754.000000	1.208351
3752.000000	1.206074
3750.000000	1.209042
3748.000000	1.210201
3746.000000	1.206861
3744.000000	1.209643
3742.000000	1.215776
3740.000000	1.214142
3738.000000	1.209859
3736.000000	1.209401
3734.000000	1.211110
3732.000000	1.213101
3730.000000	1.214492
3728.000000	1.213693
3726.000000	1.212922
3724.000000	1.213320
3722.000000	1.213698
3720.000000	1.214117
3718.000000	1.214234
3716.000000	1.212877
3714.000000	1.210174
3712.000000	1.209985
3710.000000	1.212905
3708.000000	1.214824
3706.000000	1.214426
3704.000000	1.213031
3702.000000	1.212839
3700.000000	1.214002
3698.000000	1.214335
3696.000000	1.213671
3694.000000	1.212161
3692.000000	1.209334
3690.000000	1.207589
3688.000000	1.210710
3686.000000	1.214753
3684.000000	1.214538
3682.000000	1.212785
3680.000000	1.210706
3678.000000	1.207118
3676.000000	1.206561
3674.000000	1.209551
3672.000000	1.209064
3670.000000	1.209399
3668.000000	1.213058
3666.000000	1.214031
3664.000000	1.213046
3662.000000	1.212472
3660.000000	1.211407
3658.000000	1.209690
3656.000000	1.210030
3654.000000	1.210263
3652.000000	1.206765
3650.000000	1.205203
3648.000000	1.208957
3646.000000	1.212387
3644.000000	1.212498
3642.000000	1.211647
3640.000000	1.211313
3638.000000	1.211031
3636.000000	1.210513
3634.000000	1.209617
3632.000000	1.206797
3630.000000	1.204585
3628.000000	1.208065
3626.000000	1.211708
3624.000000	1.210683
3622.000000	1.208147
3620.000000	1.207221
3618.000000	1.208668
3616.000000	1.209268
3614.000000	1.208253
3612.000000	1.207582
3610.000000	1.207433
3608.000000	1.208528
3606.000000	1.209874
3604.000000	1.209657
3602.000000	1.208913
3600.000000	1.208704
3598.000000	1.208516
3596.000000	1.208245
3594.000000	1.208481
3592.000000	1.208156
3590.000000	1.206588
3588.000000	1.206319
3586.000000	1.208088
3584.000000	1.209023
3582.000000	1.208633
3580.000000	1.208325
3578.000000	1.208233
3576.000000	1.208111
3574.000000	1.208032
3572.000000	1.207537
3570.000000	1.206173
3568.000000	1.205522
3566.000000	1.206749
3564.000000	1.207876
3562.000000	1.207839
3560.000000	1.207651
3558.000000	1.207703
3556.000000	1.207559
3554.000000	1.207232
3552.000000	1.207202
3550.000000	1.207213
3548.000000	1.206849
3546.000000	1.206861
3544.000000	1.207461
3542.000000	1.207796
3540.000000	1.207677
3538.000000	1.207536
3536.000000	1.207576
3534.000000	1.207690
3532.000000	1.207563
3530.000000	1.207289
3528.000000	1.207219
3526.000000	1.207321
3524.000000	1.207405
3522.000000	1.207652
3520.000000	1.207891
3518.000000	1.208022
3516.000000	1.208138
3514.000000	1.208117
3512.000000	1.208027
3510.000000	1.208124
3508.000000	1.208342
3506.000000	1.208261
3504.000000	1.208169
3502.000000	1.208517
3500.000000	1.208874
3498.000000	1.208962
3496.000000	1.209076
3494.000000	1.209288
3492.000000	1.209388
3490.000000	1.209426
3488.000000	1.209643
3486.000000	1.209966
3484.000000	1.210069
3482.000000	1.210181
3480.000000	1.210546
3478.000000	1.210837
3476.000000	1.210989
3474.000000	1.211218
3472.000000	1.211419
3470.000000	1.211522
3468.000000	1.211762
3466.000000	1.212211
3464.000000	1.212606
3462.000000	1.212902
3460.000000	1.213213
3458.000000	1.213549
3456.000000	1.213906
3454.000000	1.214261
3452.000000	1.214543
3450.000000	1.214670
3448.000000	1.214851
3446.000000	1.215396
3444.000000	1.215984
3442.000000	1.216441
3440.000000	1.216932
3438.000000	1.217402
3436.000000	1.217850
3434.000000	1.218341
3432.000000	1.218906
3430.000000	1.219476
3428.000000	1.220050
3426.000000	1.220588
3424.000000	1.220951
3422.000000	1.221252
3420.000000	1.221680
3418.000000	1.222160
3416.000000	1.222493
3414.000000	1.222713
3412.000000	1.222948
3410.000000	1.223171
3408.000000	1.223409
3406.000000	1.223750
3404.000000	1.224064
3402.000000	1.224250
3400.000000	1.224422
3398.000000	1.224708
3396.000000	1.224983
3394.000000	1.225095
3392.000000	1.225212
3390.000000	1.225432
3388.000000	1.225635
3386.000000	1.225792
3384.000000	1.225926
3382.000000	1.226107
3380.000000	1.226295
3378.000000	1.226435
3376.000000	1.226508
3374.000000	1.226575
3372.000000	1.226678
3370.000000	1.226741
3368.000000	1.226850
3366.000000	1.227066
3364.000000	1.227243
3362.000000	1.227345
3360.000000	1.227419
3358.000000	1.227490
3356.000000	1.227655
3354.000000	1.227767
3352.000000	1.227747
3350.000000	1.227748
3348.000000	1.227783
3346.000000	1.227819
3344.000000	1.227855
3342.000000	1.227950
3340.000000	1.228057
3338.000000	1.228072
3336.000000	1.228112
3334.000000	1.228228
3332.000000	1.228316
3330.000000	1.228346
3328.000000	1.228361
3326.000000	1.228429
3324.000000	1.228551
3322.000000	1.228699
3320.000000	1.228847
3318.000000	1.228940
3316.000000	1.228959
3314.000000	1.228977
3312.000000	1.229022
3310.000000	1.229039
3308.000000	1.229090
3306.000000	1.229189
3304.000000	1.229335
3302.000000	1.229508
3300.000000	1.229641
3298.000000	1.229780
3296.000000	1.229872
3294.000000	1.229928
3292.000000	1.229974
3290.000000	1.230065
3288.000000	1.230148
3286.000000	1.230204
3284.000000	1.230316
3282.000000	1.230434
3280.000000	1.230476
3278.000000	1.230534
3276.000000	1.230601
3274.000000	1.230618
3272.000000	1.230669
3270.000000	1.230781
3268.000000	1.230915
3266.000000	1.230987
3264.000000	1.230992
3262.000000	1.231023
3260.000000	1.231130
3258.000000	1.231275
3256.000000	1.231363
3254.000000	1.231474
3252.000000	1.231615
3250.000000	1.231629
3248.000000	1.231585
3246.000000	1.231637
3244.000000	1.231770
3242.000000	1.231884
3240.000000	1.231948
3238.000000	1.231988
3236.000000	1.232077
3234.000000	1.232182
3232.000000	1.232296
3230.000000	1.232445
3228.000000	1.232570
3226.000000	1.232673
3224.000000	1.232767
3222.000000	1.232847
3220.000000	1.232902
3218.000000	1.232970
3216.000000	1.233000
3214.000000	1.233041
3212.000000	1.233142
3210.000000	1.233219
3208.000000	1.233275
3206.000000	1.233339
3204.000000	1.233378
3202.000000	1.233389
3200.000000	1.233374
3198.000000	1.233378
3196.000000	1.233469
3194.000000	1.233507
3192.000000	1.233486
3190.000000	1.233528
3188.000000	1.233575
3186.000000	1.233543
3184.000000	1.233573
3182.000000	1.233671
3180.000000	1.233670
3178.000000	1.233616
3176.000000	1.233642
3174.000000	1.233697
3172.000000	1.233736
3170.000000	1.233813
3168.000000	1.233880
3166.000000	1.233946
3164.000000	1.234019
3162.000000	1.234062
3160.000000	1.234099
3158.000000	1.234109
3156.000000	1.234125
3154.000000	1.234172
3152.000000	1.234248
3150.000000	1.234348
3148.000000	1.234434
3146.000000	1.234485
3144.000000	1.234512
3142.000000	1.234553
3140.000000	1.234571
3138.000000	1.234640
3136.000000	1.234802
3134.000000	1.234869
3132.000000	1.234925
3130.000000	1.235068
3128.000000	1.235176
3126.000000	1.235236
3124.000000	1.235236
3122.000000	1.235195
3120.000000	1.235156
3118.000000	1.235138
3116.000000	1.235304
3114.000000	1.235528
3112.000000	1.235603
3110.000000	1.235585
3108.000000	1.235552
3106.000000	1.235612
3104.000000	1.235674
3102.000000	1.235660
3100.000000	1.235651
3098.000000	1.235713
3096.000000	1.235805
3094.000000	1.235835
3092.000000	1.235824
3090.000000	1.235827
3088.000000	1.235825
3086.000000	1.235778
3084.000000	1.235688
3082.000000	1.235590
3080.000000	1.235492
3078.000000	1.235433
3076.000000	1.235429
3074.000000	1.235436
3072.000000	1.235417
3070.000000	1.235337
3068.000000	1.235275
3066.000000	1.235273
3064.000000	1.235298
3062.000000	1.235350
3060.000000	1.235344
3058.000000	1.235247
3056.000000	1.235180
3054.000000	1.235175
3052.000000	1.235158
3050.000000	1.235127
3048.000000	1.235116
3046.000000	1.235064
3044.000000	1.234958
3042.000000	1.234910
3040.000000	1.234876
3038.000000	1.234822
3036.000000	1.234735
3034.000000	1.234655
3032.000000	1.234672
3030.000000	1.234628
3028.000000	1.234451
3026.000000	1.234374
3024.000000	1.234372
3022.000000	1.234376
3020.000000	1.234520
3018.000000	1.234762
3016.000000	1.235027
3014.000000	1.235208
3012.000000	1.235235
3010.000000	1.235128
3008.000000	1.234946
3006.000000	1.234786
3004.000000	1.234702
3002.000000	1.234641
3000.000000	1.234537
2998.000000	1.234412
2996.000000	1.234325
2994.000000	1.234241
2992.000000	1.234128
2990.000000	1.234012
2988.000000	1.233972
2986.000000	1.234013
2984.000000	1.234019
2982.000000	1.233986
2980.000000	1.233952
2978.000000	1.233875
2976.000000	1.233835
2974.000000	1.233842
2972.000000	1.233818
2970.000000	1.233854
2968.000000	1.234133
2966.000000	1.234699
2964.000000	1.235438
2962.000000	1.236105
2960.000000	1.236466
2958.000000	1.236422
2956.000000	1.236125
2954.000000	1.235639
2952.000000	1.235082
2950.000000	1.234577
2948.000000	1.234091
2946.000000	1.233612
2944.000000	1.233178
2942.000000	1.232815
2940.000000	1.232598
2938.000000	1.232565
2936.000000	1.232702
2934.000000	1.232768
2932.000000	1.232712
2930.000000	1.232773
2928.000000	1.233093
2926.000000	1.233719
2924.000000	1.234587
2922.000000	1.235482
2920.000000	1.236125
2918.000000	1.236377
2916.000000	1.236339
2914.000000	1.236023
2912.000000	1.235565
2910.000000	1.235140
2908.000000	1.234868
2906.000000	1.234717
2904.000000	1.234595
2902.000000	1.234443
2900.000000	1.234299
2898.000000	1.234228
2896.000000	1.234155
2894.000000	1.234060
2892.000000	1.233977
2890.000000	1.233882
2888.000000	1.233704
2886.000000	1.233525
2884.000000	1.233439
2882.000000	1.233361
2880.000000	1.233200
2878.000000	1.233010
2876.000000	1.232789
2874.000000	1.232515
2872.000000	1.232289
2870.000000	1.231999
2868.000000	1.231588
2866.000000	1.231312
2864.000000	1.231435
2862.000000	1.232033
2860.000000	1.232805
2858.000000	1.233334
2856.000000	1.233646
2854.000000	1.233874
2852.000000	1.234040
2850.000000	1.234215
2848.000000	1.234414
2846.000000	1.234401
2844.000000	1.234134
2842.000000	1.233832
2840.000000	1.233606
2838.000000	1.233425
2836.000000	1.233332
2834.000000	1.233262
2832.000000	1.233205
2830.000000	1.233108
2828.000000	1.232982
2826.000000	1.232980
2824.000000	1.232979
2822.000000	1.232882
2820.000000	1.232784
2818.000000	1.232746
2816.000000	1.232735
2814.000000	1.232719
2812.000000	1.232685
2810.000000	1.232609
2808.000000	1.232575
2806.000000	1.232522
2804.000000	1.232475
2802.000000	1.232487
2800.000000	1.232500
2798.000000	1.232479
2796.000000	1.232422
2794.000000	1.232386
2792.000000	1.232451
2790.000000	1.232534
2788.000000	1.232509
2786.000000	1.232440
2784.000000	1.232461
2782.000000	1.232518
2780.000000	1.232494
2778.000000	1.232436
2776.000000	1.232363
2774.000000	1.232277
2772.000000	1.232269
2770.000000	1.232315
2768.000000	1.232330
2766.000000	1.232286
2764.000000	1.232277
2762.000000	1.232303
2760.000000	1.232309
2758.000000	1.232299
2756.000000	1.232317
2754.000000	1.232354
2752.000000	1.232361
2750.000000	1.232314
2748.000000	1.232275
2746.000000	1.232253
2744.000000	1.232261
2742.000000	1.232273
2740.000000	1.232310
2738.000000	1.232345
2736.000000	1.232323
2734.000000	1.232295
2732.000000	1.232310
2730.000000	1.232327
2728.000000	1.232358
2726.000000	1.232393
2724.000000	1.232439
2722.000000	1.232420
2720.000000	1.232426
2718.000000	1.232493
2716.000000	1.232567
2714.000000	1.232599
2712.000000	1.232620
2710.000000	1.232692
2708.000000	1.232803
2706.000000	1.232894
2704.000000	1.233004
2702.000000	1.233086
2700.000000	1.233146
2698.000000	1.233213
2696.000000	1.233282
2694.000000	1.233369
2692.000000	1.233464
2690.000000	1.233532
2688.000000	1.233618
2686.000000	1.233666
2684.000000	1.233669
2682.000000	1.233689
2680.000000	1.233791
2678.000000	1.233867
2676.000000	1.233898
2674.000000	1.233995
2672.000000	1.234081
2670.000000	1.234092
2668.000000	1.234136
2666.000000	1.234262
2664.000000	1.234353
2662.000000	1.234393
2660.000000	1.234471
2658.000000	1.234530
2656.000000	1.234610
2654.000000	1.234711
2652.000000	1.234807
2650.000000	1.234896
2648.000000	1.234935
2646.000000	1.234955
2644.000000	1.235004
2642.000000	1.235055
2640.000000	1.235131
2638.000000	1.235180
2636.000000	1.235174
2634.000000	1.235225
2632.000000	1.235311
2630.000000	1.235361
2628.000000	1.235355
2626.000000	1.235350
2624.000000	1.235464
2622.000000	1.235610
2620.000000	1.235656
2618.000000	1.235659
2616.000000	1.235696
2614.000000	1.235692
2612.000000	1.235719
2610.000000	1.235720
2608.000000	1.235707
2606.000000	1.235734
2604.000000	1.235837
2602.000000	1.235912
2600.000000	1.235988
2598.000000	1.236076
2596.000000	1.236116
2594.000000	1.236159
2592.000000	1.236257
2590.000000	1.236355
2588.000000	1.236429
2586.000000	1.236424
2584.000000	1.236437
2582.000000	1.236483
2580.000000	1.236540
2578.000000	1.236585
2576.000000	1.236666
2574.000000	1.236746
2572.000000	1.236756
2570.000000	1.236742
2568.000000	1.236800
2566.000000	1.236841
2564.000000	1.236867
2562.000000	1.236876
2560.000000	1.236837
2558.000000	1.236840
2556.000000	1.236937
2554.000000	1.236981
2552.000000	1.236972
2550.000000	1.236981
2548.000000	1.236979
2546.000000	1.237003
2544.000000	1.237044
2542.000000	1.237051
2540.000000	1.237075
2538.000000	1.237088
2536.000000	1.237068
2534.000000	1.237030
2532.000000	1.237052
2530.000000	1.237106
2528.000000	1.237099
2526.000000	1.237037
2524.000000	1.237001
2522.000000	1.236996
2520.000000	1.237037
2518.000000	1.237046
2516.000000	1.237035
2514.000000	1.237012
2512.000000	1.236995
2510.000000	1.236998
2508.000000	1.237000
2506.000000	1.236976
2504.000000	1.237023
2502.000000	1.237071
2500.000000	1.237099
2498.000000	1.237109
2496.000000	1.237069
2494.000000	1.237063
2492.000000	1.237128
2490.000000	1.237122
2488.000000	1.237094
2486.000000	1.237109
2484.000000	1.237124
2482.000000	1.237103
2480.000000	1.237124
2478.000000	1.237168
2476.000000	1.237180
2474.000000	1.237154
2472.000000	1.237176
2470.000000	1.237177
2468.000000	1.237136
2466.000000	1.237144
2464.000000	1.237200
2462.000000	1.237212
2460.000000	1.237253
2458.000000	1.237258
2456.000000	1.237221
2454.000000	1.237252
2452.000000	1.237314
2450.000000	1.237307
2448.000000	1.237355
2446.000000	1.237407
2444.000000	1.237445
2442.000000	1.237469
2440.000000	1.237451
2438.000000	1.237453
2436.000000	1.237504
2434.000000	1.237508
2432.000000	1.237516
2430.000000	1.237541
2428.000000	1.237602
2426.000000	1.237663
2424.000000	1.237750
2422.000000	1.237829
2420.000000	1.237956
2418.000000	1.238132
2416.000000	1.238221
2414.000000	1.238277
2412.000000	1.238385
2410.000000	1.238326
2408.000000	1.238245
2406.000000	1.238225
2404.000000	1.238160
2402.000000	1.238046
2400.000000	1.237963
2398.000000	1.237963
2396.000000	1.238003
2394.000000	1.238020
2392.000000	1.238031
2390.000000	1.237952
2388.000000	1.237891
2386.000000	1.237862
2384.000000	1.237719
2382.000000	1.237498
2380.000000	1.237313
2378.000000	1.237071
2376.000000	1.236722
2374.000000	1.236291
2372.000000	1.235894
2370.000000	1.235526
2368.000000	1.235223
2366.000000	1.235024
2364.000000	1.234942
2362.000000	1.234970
2360.000000	1.235211
2358.000000	1.235670
2356.000000	1.236279
2354.000000	1.236874
2352.000000	1.237333
2350.000000	1.237384
2348.000000	1.236777
2346.000000	1.236175
2344.000000	1.235909
2342.000000	1.235773
2340.000000	1.235855
2338.000000	1.235934
2336.000000	1.235932
2334.000000	1.235968
2332.000000	1.236039
2330.000000	1.236169
2328.000000	1.236374
2326.000000	1.236516
2324.000000	1.236698
2322.000000	1.236851
2320.000000	1.236923
2318.000000	1.237044
2316.000000	1.237170
2314.000000	1.237276
2312.000000	1.237448
2310.000000	1.237539
2308.000000	1.237582
2306.000000	1.237699
2304.000000	1.237785
2302.000000	1.237751
2300.000000	1.237780
2298.000000	1.237828
2296.000000	1.237844
2294.000000	1.237794
2292.000000	1.237823
2290.000000	1.237823
2288.000000	1.237821
2286.000000	1.237862
2284.000000	1.237914
2282.000000	1.237940
2280.000000	1.237998
2278.000000	1.237999
2276.000000	1.237966
2274.000000	1.237926
2272.000000	1.237953
2270.000000	1.237983
2268.000000	1.238011
2266.000000	1.237935
2264.000000	1.237903
2262.000000	1.237918
2260.000000	1.237862
2258.000000	1.237808
2256.000000	1.237837
2254.000000	1.237820
2252.000000	1.237839
2250.000000	1.237880
2248.000000	1.237862
2246.000000	1.237822
2244.000000	1.237745
2242.000000	1.237630
2240.000000	1.237639
2238.000000	1.237688
2236.000000	1.237628
2234.000000	1.237559
2232.000000	1.237527
2230.000000	1.237477
2228.000000	1.237433
2226.000000	1.237425
2224.000000	1.237459
2222.000000	1.237437
2220.000000	1.237368
2218.000000	1.237319
2216.000000	1.237306
2214.000000	1.237232
2212.000000	1.237151
2210.000000	1.237101
2208.000000	1.237103
2206.000000	1.237052
2204.000000	1.236988
2202.000000	1.236886
2200.000000	1.236905
2198.000000	1.236969
2196.000000	1.236953
2194.000000	1.236816
2192.000000	1.236750
2190.000000	1.236795
2188.000000	1.236794
2186.000000	1.236677
2184.000000	1.236631
2182.000000	1.236642
2180.000000	1.236611
2178.000000	1.236507
2176.000000	1.236424
2174.000000	1.236426
2172.000000	1.236412
2170.000000	1.236341
2168.000000	1.236400
2166.000000	1.236361
2164.000000	1.236227
2162.000000	1.236154
2160.000000	1.236117
2158.000000	1.236081
2156.000000	1.236016
2154.000000	1.235943
2152.000000	1.235907
2150.000000	1.235883
2148.000000	1.235871
2146.000000	1.235838
2144.000000	1.235827
2142.000000	1.235767
2140.000000	1.235729
2138.000000	1.235670
2136.000000	1.235649
2134.000000	1.235606
2132.000000	1.235570
2130.000000	1.235558
2128.000000	1.235551
2126.000000	1.235488
2124.000000	1.235473
2122.000000	1.235483
2120.000000	1.235484
2118.000000	1.235346
2116.000000	1.235225
2114.000000	1.235242
2112.000000	1.235275
2110.000000	1.235201
2108.000000	1.235178
2106.000000	1.235198
2104.000000	1.235208
2102.000000	1.235210
2100.000000	1.235185
2098.000000	1.235124
2096.000000	1.235073
2094.000000	1.234978
2092.000000	1.234886
2090.000000	1.234822
2088.000000	1.234811
2086.000000	1.234910
2084.000000	1.235040
2082.000000	1.234952
2080.000000	1.234866
2078.000000	1.234749
2076.000000	1.234662
2074.000000	1.234746
2072.000000	1.234859
2070.000000	1.234777
2068.000000	1.234680
2066.000000	1.234570
2064.000000	1.234578
2062.000000	1.234527
2060.000000	1.234453
2058.000000	1.234500
2056.000000	1.234504
2054.000000	1.234419
2052.000000	1.234428
2050.000000	1.234516
2048.000000	1.234528
2046.000000	1.234367
2044.000000	1.234238
2042.000000	1.234267
2040.000000	1.234353
2038.000000	1.234294
2036.000000	1.234273
2034.000000	1.234272
2032.000000	1.234194
2030.000000	1.234086
2028.000000	1.234197
2026.000000	1.234206
2024.000000	1.234096
2022.000000	1.234077
2020.000000	1.233992
2018.000000	1.233782
2016.000000	1.233851
2014.000000	1.233931
2012.000000	1.233993
2010.000000	1.234028
2008.000000	1.234019
2006.000000	1.234031
2004.000000	1.234004
2002.000000	1.233891
2000.000000	1.233917
1998.000000	1.233956
1996.000000	1.233879
1994.000000	1.233553
1992.000000	1.233452
1990.000000	1.233658
1988.000000	1.233769
1986.000000	1.233821
1984.000000	1.233799
1982.000000	1.233758
1980.000000	1.233783
1978.000000	1.233774
1976.000000	1.233740
1974.000000	1.233715
1972.000000	1.233698
1970.000000	1.233557
1968.000000	1.233391
1966.000000	1.233556
1964.000000	1.233771
1962.000000	1.233712
1960.000000	1.233682
1958.000000	1.233908
1956.000000	1.233955
1954.000000	1.233840
1952.000000	1.233785
1950.000000	1.233740
1948.000000	1.233746
1946.000000	1.233592
1944.000000	1.233239
1942.000000	1.233442
1940.000000	1.233958
1938.000000	1.233960
1936.000000	1.233912
1934.000000	1.233870
1932.000000	1.233949
1930.000000	1.234011
1928.000000	1.234006
1926.000000	1.233799
1924.000000	1.233543
1922.000000	1.233653
1920.000000	1.233310
1918.000000	1.233229
1916.000000	1.234153
1914.000000	1.234333
1912.000000	1.234131
1910.000000	1.233956
1908.000000	1.234177
1906.000000	1.234315
1904.000000	1.234349
1902.000000	1.234337
1900.000000	1.234387
1898.000000	1.234206
1896.000000	1.234130
1894.000000	1.234285
1892.000000	1.234136
1890.000000	1.233905
1888.000000	1.234497
1886.000000	1.234595
1884.000000	1.234515
1882.000000	1.234518
1880.000000	1.234599
1878.000000	1.234574
1876.000000	1.234608
1874.000000	1.234455
1872.000000	1.233709
1870.000000	1.232715
1868.000000	1.233509
1866.000000	1.234455
1864.000000	1.234543
1862.000000	1.234416
1860.000000	1.234453
1858.000000	1.234462
1856.000000	1.234603
1854.000000	1.234622
1852.000000	1.234618
1850.000000	1.234345
1848.000000	1.233779
1846.000000	1.232026
1844.000000	1.232245
1842.000000	1.234444
1840.000000	1.234662
1838.000000	1.234375
1836.000000	1.234511
1834.000000	1.234398
1832.000000	1.233367
1830.000000	1.233033
1828.000000	1.233861
1826.000000	1.233642
1824.000000	1.234330
1822.000000	1.234886
1820.000000	1.234732
1818.000000	1.234667
1816.000000	1.234875
1814.000000	1.234649
1812.000000	1.234291
1810.000000	1.234420
1808.000000	1.234765
1806.000000	1.234669
1804.000000	1.234205
1802.000000	1.233527
1800.000000	1.233829
1798.000000	1.234393
1796.000000	1.233964
1794.000000	1.232068
1792.000000	1.232500
1790.000000	1.234585
1788.000000	1.234732
1786.000000	1.233890
1784.000000	1.234029
1782.000000	1.233965
1780.000000	1.234200
1778.000000	1.234488
1776.000000	1.233351
1774.000000	1.230751
1772.000000	1.231419
1770.000000	1.233472
1768.000000	1.233889
1766.000000	1.234944
1764.000000	1.233840
1762.000000	1.233244
1760.000000	1.234381
1758.000000	1.234097
1756.000000	1.234411
1754.000000	1.233654
1752.000000	1.231513
1750.000000	1.232660
1748.000000	1.234075
1746.000000	1.234433
1744.000000	1.234275
1742.000000	1.233432
1740.000000	1.233221
1738.000000	1.233850
1736.000000	1.229494
1734.000000	1.228806
1732.000000	1.234308
1730.000000	1.235659
1728.000000	1.235907
1726.000000	1.235861
1724.000000	1.235759
1722.000000	1.235188
1720.000000	1.231468
1718.000000	1.228745
1716.000000	1.232495
1714.000000	1.235270
1712.000000	1.235997
1710.000000	1.235515
1708.000000	1.234673
1706.000000	1.233908
1704.000000	1.233639
1702.000000	1.228608
1700.000000	1.228599
1698.000000	1.230510
1696.000000	1.230332
1694.000000	1.235839
1692.000000	1.236822
1690.000000	1.235810
1688.000000	1.233805
1686.000000	1.228203
1684.000000	1.230049
1682.000000	1.236042
1680.000000	1.236540
1678.000000	1.235109
1676.000000	1.233173
1674.000000	1.234921
1672.000000	1.234459
1670.000000	1.233461
1668.000000	1.235986
1666.000000	1.236866
1664.000000	1.235253
1662.000000	1.236136
1660.000000	1.237516
1658.000000	1.236666
1656.000000	1.230758
1654.000000	1.223707
1652.000000	1.230721
1650.000000	1.236414
1648.000000	1.232831
1646.000000	1.233691
1644.000000	1.237519
1642.000000	1.238043
1640.000000	1.236983
1638.000000	1.233576
1636.000000	1.231811
1634.000000	1.236408
1632.000000	1.238341
1630.000000	1.237202
1628.000000	1.236806
1626.000000	1.236362
1624.000000	1.235474
1622.000000	1.236859
1620.000000	1.236254
1618.000000	1.232571
1616.000000	1.234536
1614.000000	1.238182
1612.000000	1.237890
1610.000000	1.237912
1608.000000	1.238465
1606.000000	1.239168
1604.000000	1.239343
1602.000000	1.239476
1600.000000	1.239460
1598.000000	1.239511
1596.000000	1.239430
1594.000000	1.239503
1592.000000	1.239504
1590.000000	1.239541
1588.000000	1.239486
1586.000000	1.239410
1584.000000	1.239405
1582.000000	1.239500
1580.000000	1.238504
1578.000000	1.234410
1576.000000	1.234413
1574.000000	1.239065
1572.000000	1.237872
1570.000000	1.236585
1568.000000	1.238347
1566.000000	1.238800
1564.000000	1.237818
1562.000000	1.232425
1560.000000	1.226252
1558.000000	1.231610
1556.000000	1.236651
1554.000000	1.237691
1552.000000	1.238861
1550.000000	1.238928
1548.000000	1.238845
1546.000000	1.237021
1544.000000	1.234541
1542.000000	1.230608
1540.000000	1.230306
1538.000000	1.237006
1536.000000	1.238618
1534.000000	1.236848
1532.000000	1.238645
1530.000000	1.238886
1528.000000	1.237313
1526.000000	1.236398
1524.000000	1.234685
1522.000000	1.232469
1520.000000	1.235329
1518.000000	1.236703
1516.000000	1.237329
1514.000000	1.238115
1512.000000	1.237644
1510.000000	1.235068
1508.000000	1.229767
1506.000000	1.231677
1504.000000	1.237586
1502.000000	1.236938
1500.000000	1.233499
1498.000000	1.230991
1496.000000	1.233694
1494.000000	1.239236
1492.000000	1.240372
1490.000000	1.240181
1488.000000	1.240828
1486.000000	1.241160
1484.000000	1.240958
1482.000000	1.240205
1480.000000	1.239922
1478.000000	1.238702
1476.000000	1.236895
1474.000000	1.234823
1472.000000	1.236275
1470.000000	1.239138
1468.000000	1.238726
1466.000000	1.237145
1464.000000	1.237957
1462.000000	1.238501
1460.000000	1.234882
1458.000000	1.230370
1456.000000	1.233345
1454.000000	1.237705
1452.000000	1.238624
1450.000000	1.239656
1448.000000	1.240155
1446.000000	1.240466
1444.000000	1.239914
1442.000000	1.239487
1440.000000	1.238266
1438.000000	1.235657
1436.000000	1.236755
1434.000000	1.239200
1432.000000	1.238629
1430.000000	1.238531
1428.000000	1.239015
1426.000000	1.238872
1424.000000	1.238421
1422.000000	1.237129
1420.000000	1.234991
1418.000000	1.237148
1416.000000	1.239041
1414.000000	1.239092
1412.000000	1.238716
1410.000000	1.238528
1408.000000	1.237999
1406.000000	1.237644
1404.000000	1.238529
1402.000000	1.239228
1400.000000	1.238702
1398.000000	1.238828
1396.000000	1.238170
1394.000000	1.238565
1392.000000	1.239410
1390.000000	1.238423
1388.000000	1.237297
1386.000000	1.238220
1384.000000	1.239201
1382.000000	1.239398
1380.000000	1.239082
1378.000000	1.238734
1376.000000	1.238130
1374.000000	1.238111
1372.000000	1.238665
1370.000000	1.238624
1368.000000	1.238566
1366.000000	1.238405
1364.000000	1.237663
1362.000000	1.237761
1360.000000	1.238303
1358.000000	1.238388
1356.000000	1.238253
1354.000000	1.238321
1352.000000	1.238328
1350.000000	1.238221
1348.000000	1.238145
1346.000000	1.238135
1344.000000	1.237993
1342.000000	1.237606
1340.000000	1.237331
1338.000000	1.237648
1336.000000	1.237916
1334.000000	1.237998
1332.000000	1.237866
1330.000000	1.237774
1328.000000	1.237699
1326.000000	1.237652
1324.000000	1.237508
1322.000000	1.237322
1320.000000	1.237082
1318.000000	1.237016
1316.000000	1.236949
1314.000000	1.236893
1312.000000	1.236851
1310.000000	1.236808
1308.000000	1.236789
1306.000000	1.236823
1304.000000	1.236620
1302.000000	1.236454
1300.000000	1.236389
1298.000000	1.236384
1296.000000	1.236330
1294.000000	1.236247
1292.000000	1.236029
1290.000000	1.235895
1288.000000	1.235877
1286.000000	1.235927
1284.000000	1.235834
1282.000000	1.235785
1280.000000	1.235790
1278.000000	1.235794
1276.000000	1.235716
1274.000000	1.235739
1272.000000	1.235791
1270.000000	1.236040
1268.000000	1.236553
1266.000000	1.237713
1264.000000	1.239745
1262.000000	1.242303
1260.000000	1.244434
1258.000000	1.245199
1256.000000	1.244227
1254.000000	1.242266
1252.000000	1.240353
1250.000000	1.239385
1248.000000	1.238986
1246.000000	1.238745
1244.000000	1.238737
1242.000000	1.239003
1240.000000	1.239317
1238.000000	1.239631
1236.000000	1.239813
1234.000000	1.240186
1232.000000	1.240397
1230.000000	1.240566
1228.000000	1.240933
1226.000000	1.241321
1224.000000	1.241479
1222.000000	1.241679
1220.000000	1.241813
1218.000000	1.242042
1216.000000	1.242492
1214.000000	1.242967
1212.000000	1.243208
1210.000000	1.243437
1208.000000	1.243710
1206.000000	1.244138
1204.000000	1.244426
1202.000000	1.244691
1200.000000	1.245008
1198.000000	1.245294
1196.000000	1.245440
1194.000000	1.245811
1192.000000	1.246312
1190.000000	1.246816
1188.000000	1.247170
1186.000000	1.247286
1184.000000	1.247178
1182.000000	1.247492
1180.000000	1.248602
1178.000000	1.249537
1176.000000	1.249584
1174.000000	1.249755
1172.000000	1.250334
1170.000000	1.250896
1168.000000	1.251233
1166.000000	1.251521
1164.000000	1.251675
1162.000000	1.252082
1160.000000	1.252620
1158.000000	1.253172
1156.000000	1.253575
1154.000000	1.253982
1152.000000	1.254207
1150.000000	1.254424
1148.000000	1.254764
1146.000000	1.255170
1144.000000	1.255549
1142.000000	1.256034
1140.000000	1.256388
1138.000000	1.256552
1136.000000	1.256554
1134.000000	1.256889
1132.000000	1.257034
1130.000000	1.257129
1128.000000	1.257500
1126.000000	1.257877
1124.000000	1.257984
1122.000000	1.258309
1120.000000	1.258674
1118.000000	1.259185
1116.000000	1.259656
1114.000000	1.260048
1112.000000	1.260290
1110.000000	1.260909
1108.000000	1.261696
1106.000000	1.262244
1104.000000	1.262547
1102.000000	1.263097
1100.000000	1.263443
1098.000000	1.263595
1096.000000	1.263932
1094.000000	1.264290
1092.000000	1.264376
1090.000000	1.264531
1088.000000	1.264517
1086.000000	1.264233
1084.000000	1.263649
1082.000000	1.263434
1080.000000	1.263493
1078.000000	1.263280
1076.000000	1.262934
1074.000000	1.262932
1072.000000	1.262712
1070.000000	1.262416
1068.000000	1.261818
1066.000000	1.261467
1064.000000	1.261327
1062.000000	1.260811
1060.000000	1.259878
1058.000000	1.259063
1056.000000	1.258132
1054.000000	1.257259
1052.000000	1.257157
1050.000000	1.258416
1048.000000	1.259202
1046.000000	1.258757
1044.000000	1.257543
1042.000000	1.256471
1040.000000	1.255545
1038.000000	1.255058
1036.000000	1.254793
1034.000000	1.254343
1032.000000	1.253615
1030.000000	1.253263
1028.000000	1.252818
1026.000000	1.252482
1024.000000	1.251848
1022.000000	1.251087
1020.000000	1.250906
1018.000000	1.250454
1016.000000	1.249299
1014.000000	1.248517
1012.000000	1.247066
1010.000000	1.244899
1008.000000	1.243068
1006.000000	1.241555
1004.000000	1.240023
1002.000000	1.238816
1000.000000	1.237612
