PE IR       SUBTECH     SPECTRUM    ASCII       PEDS        4.00        
   -1
TE108B1_007_85K.ASC
20/02/21
14:40:49.00
20/02/21
14:42:28.00
Administrator
Sample 007 By Administrator Date Friday, February 21 2020
1500.000000
#HDR
-1
-1
#GR
cm-1
A
1.0
0.0
4000.000000
-1.000000
2501
8
1.067600
0.981913
#DATA
4000.000000	0.996851
3999.000000	0.996845
3998.000000	0.996791
3997.000000	0.996718
3996.000000	0.996662
3995.000000	0.996642
3994.000000	0.996646
3993.000000	0.996646
3992.000000	0.996631
3991.000000	0.996612
3990.000000	0.996612
3989.000000	0.996636
3988.000000	0.996666
3987.000000	0.996677
3986.000000	0.996655
3985.000000	0.996605
3984.000000	0.996541
3983.000000	0.996478
3982.000000	0.996421
3981.000000	0.996371
3980.000000	0.996330
3979.000000	0.996301
3978.000000	0.996282
3977.000000	0.996270
3976.000000	0.996260
3975.000000	0.996248
3974.000000	0.996228
3973.000000	0.996190
3972.000000	0.996131
3971.000000	0.996059
3970.000000	0.995988
3969.000000	0.995926
3968.000000	0.995866
3967.000000	0.995792
3966.000000	0.995692
3965.000000	0.995569
3964.000000	0.995445
3963.000000	0.995346
3962.000000	0.995281
3961.000000	0.995240
3960.000000	0.995204
3959.000000	0.995157
3958.000000	0.995096
3957.000000	0.995024
3956.000000	0.994946
3955.000000	0.994866
3954.000000	0.994782
3953.000000	0.994697
3952.000000	0.994619
3951.000000	0.994548
3950.000000	0.994475
3949.000000	0.994387
3948.000000	0.994279
3947.000000	0.994158
3946.000000	0.994028
3945.000000	0.993889
3944.000000	0.993734
3943.000000	0.993569
3942.000000	0.993413
3941.000000	0.993290
3940.000000	0.993210
3939.000000	0.993163
3938.000000	0.993122
3937.000000	0.993060
3936.000000	0.992962
3935.000000	0.992833
3934.000000	0.992683
3933.000000	0.992525
3932.000000	0.992372
3931.000000	0.992236
3930.000000	0.992123
3929.000000	0.992027
3928.000000	0.991927
3927.000000	0.991801
3926.000000	0.991646
3925.000000	0.991485
3924.000000	0.991344
3923.000000	0.991230
3922.000000	0.991121
3921.000000	0.990988
3920.000000	0.990824
3919.000000	0.990648
3918.000000	0.990485
3917.000000	0.990353
3916.000000	0.990255
3915.000000	0.990177
3914.000000	0.990093
3913.000000	0.989985
3912.000000	0.989852
3911.000000	0.989714
3910.000000	0.989588
3909.000000	0.989468
3908.000000	0.989324
3907.000000	0.989128
3906.000000	0.988883
3905.000000	0.988623
3904.000000	0.988396
3903.000000	0.988230
3902.000000	0.988118
3901.000000	0.988034
3900.000000	0.987957
3899.000000	0.987885
3898.000000	0.987831
3897.000000	0.987798
3896.000000	0.987766
3895.000000	0.987692
3894.000000	0.987541
3893.000000	0.987323
3892.000000	0.987104
3891.000000	0.986958
3890.000000	0.986895
3889.000000	0.986847
3888.000000	0.986736
3887.000000	0.986550
3886.000000	0.986360
3885.000000	0.986250
3884.000000	0.986236
3883.000000	0.986247
3882.000000	0.986203
3881.000000	0.986090
3880.000000	0.985964
3879.000000	0.985876
3878.000000	0.985819
3877.000000	0.985739
3876.000000	0.985607
3875.000000	0.985445
3874.000000	0.985289
3873.000000	0.985136
3872.000000	0.984962
3871.000000	0.984765
3870.000000	0.984601
3869.000000	0.984526
3868.000000	0.984533
3867.000000	0.984553
3866.000000	0.984522
3865.000000	0.984447
3864.000000	0.984387
3863.000000	0.984382
3862.000000	0.984414
3861.000000	0.984443
3860.000000	0.984446
3859.000000	0.984413
3858.000000	0.984292
3857.000000	0.983996
3856.000000	0.983486
3855.000000	0.982865
3854.000000	0.982363
3853.000000	0.982197
3852.000000	0.982409
3851.000000	0.982845
3850.000000	0.983278
3849.000000	0.983554
3848.000000	0.983654
3847.000000	0.983637
3846.000000	0.983565
3845.000000	0.983467
3844.000000	0.983363
3843.000000	0.983265
3842.000000	0.983155
3841.000000	0.982989
3840.000000	0.982743
3839.000000	0.982467
3838.000000	0.982272
3837.000000	0.982239
3836.000000	0.982357
3835.000000	0.982528
3834.000000	0.982651
3833.000000	0.982697
3832.000000	0.982704
3831.000000	0.982724
3830.000000	0.982766
3829.000000	0.982807
3828.000000	0.982827
3827.000000	0.982833
3826.000000	0.982831
3825.000000	0.982792
3824.000000	0.982669
3823.000000	0.982461
3822.000000	0.982252
3821.000000	0.982149
3820.000000	0.982174
3819.000000	0.982226
3818.000000	0.982184
3817.000000	0.982037
3816.000000	0.981913
3815.000000	0.981954
3814.000000	0.982179
3813.000000	0.982475
3812.000000	0.982705
3811.000000	0.982798
3810.000000	0.982756
3809.000000	0.982625
3808.000000	0.982486
3807.000000	0.982426
3806.000000	0.982482
3805.000000	0.982578
3804.000000	0.982578
3803.000000	0.982425
3802.000000	0.982217
3801.000000	0.982135
3800.000000	0.982269
3799.000000	0.982542
3798.000000	0.982799
3797.000000	0.982949
3796.000000	0.983018
3795.000000	0.983085
3794.000000	0.983190
3793.000000	0.983313
3792.000000	0.983417
3791.000000	0.983488
3790.000000	0.983535
3789.000000	0.983569
3788.000000	0.983591
3787.000000	0.983605
3786.000000	0.983623
3785.000000	0.983661
3784.000000	0.983724
3783.000000	0.983793
3782.000000	0.983840
3781.000000	0.983850
3780.000000	0.983844
3779.000000	0.983865
3778.000000	0.983939
3777.000000	0.984051
3776.000000	0.984169
3775.000000	0.984274
3774.000000	0.984369
3773.000000	0.984450
3772.000000	0.984500
3771.000000	0.984512
3770.000000	0.984503
3769.000000	0.984506
3768.000000	0.984535
3767.000000	0.984586
3766.000000	0.984658
3765.000000	0.984759
3764.000000	0.984892
3763.000000	0.985027
3762.000000	0.985118
3761.000000	0.985143
3760.000000	0.985128
3759.000000	0.985128
3758.000000	0.985183
3757.000000	0.985284
3756.000000	0.985373
3755.000000	0.985374
3754.000000	0.985250
3753.000000	0.985028
3752.000000	0.984796
3751.000000	0.984667
3750.000000	0.984721
3749.000000	0.984940
3748.000000	0.985191
3747.000000	0.985305
3746.000000	0.985231
3745.000000	0.985102
3744.000000	0.985141
3743.000000	0.985454
3742.000000	0.985936
3741.000000	0.986373
3740.000000	0.986613
3739.000000	0.986648
3738.000000	0.986567
3737.000000	0.986477
3736.000000	0.986451
3735.000000	0.986515
3734.000000	0.986656
3733.000000	0.986840
3732.000000	0.987058
3731.000000	0.987314
3730.000000	0.987594
3729.000000	0.987847
3728.000000	0.988023
3727.000000	0.988132
3726.000000	0.988227
3725.000000	0.988351
3724.000000	0.988499
3723.000000	0.988645
3722.000000	0.988792
3721.000000	0.988970
3720.000000	0.989199
3719.000000	0.989471
3718.000000	0.989759
3717.000000	0.990032
3716.000000	0.990244
3715.000000	0.990350
3714.000000	0.990372
3713.000000	0.990477
3712.000000	0.990923
3711.000000	0.991850
3710.000000	0.993091
3709.000000	0.994233
3708.000000	0.994911
3707.000000	0.995064
3706.000000	0.994923
3705.000000	0.994766
3704.000000	0.994729
3703.000000	0.994811
3702.000000	0.994998
3701.000000	0.995304
3700.000000	0.995727
3699.000000	0.996212
3698.000000	0.996687
3697.000000	0.997119
3696.000000	0.997521
3695.000000	0.997919
3694.000000	0.998320
3693.000000	0.998706
3692.000000	0.999045
3691.000000	0.999329
3690.000000	0.999597
3689.000000	0.999947
3688.000000	1.000477
3687.000000	1.001208
3686.000000	1.002059
3685.000000	1.002912
3684.000000	1.003689
3683.000000	1.004386
3682.000000	1.005044
3681.000000	1.005692
3680.000000	1.006319
3679.000000	1.006881
3678.000000	1.007358
3677.000000	1.007805
3676.000000	1.008352
3675.000000	1.009104
3674.000000	1.010024
3673.000000	1.010948
3672.000000	1.011738
3671.000000	1.012416
3670.000000	1.013136
3669.000000	1.014023
3668.000000	1.015053
3667.000000	1.016107
3666.000000	1.017089
3665.000000	1.017982
3664.000000	1.018816
3663.000000	1.019616
3662.000000	1.020394
3661.000000	1.021155
3660.000000	1.021890
3659.000000	1.022573
3658.000000	1.023200
3657.000000	1.023817
3656.000000	1.024495
3655.000000	1.025256
3654.000000	1.026017
3653.000000	1.026653
3652.000000	1.027104
3651.000000	1.027453
3650.000000	1.027863
3649.000000	1.028454
3648.000000	1.029228
3647.000000	1.030090
3646.000000	1.030932
3645.000000	1.031690
3644.000000	1.032354
3643.000000	1.032940
3642.000000	1.033472
3641.000000	1.033971
3640.000000	1.034453
3639.000000	1.034938
3638.000000	1.035435
3637.000000	1.035937
3636.000000	1.036422
3635.000000	1.036876
3634.000000	1.037299
3633.000000	1.037667
3632.000000	1.037931
3631.000000	1.038069
3630.000000	1.038153
3629.000000	1.038339
3628.000000	1.038744
3627.000000	1.039340
3626.000000	1.039980
3625.000000	1.040520
3624.000000	1.040910
3623.000000	1.041177
3622.000000	1.041357
3621.000000	1.041479
3620.000000	1.041587
3619.000000	1.041750
3618.000000	1.042011
3617.000000	1.042349
3616.000000	1.042686
3615.000000	1.042955
3614.000000	1.043147
3613.000000	1.043297
3612.000000	1.043439
3611.000000	1.043580
3610.000000	1.043721
3609.000000	1.043885
3608.000000	1.044099
3607.000000	1.044352
3606.000000	1.044591
3605.000000	1.044780
3604.000000	1.044957
3603.000000	1.045215
3602.000000	1.045602
3601.000000	1.046045
3600.000000	1.046398
3599.000000	1.046555
3598.000000	1.046531
3597.000000	1.046428
3596.000000	1.046346
3595.000000	1.046328
3594.000000	1.046367
3593.000000	1.046433
3592.000000	1.046490
3591.000000	1.046503
3590.000000	1.046461
3589.000000	1.046398
3588.000000	1.046373
3587.000000	1.046426
3586.000000	1.046548
3585.000000	1.046699
3584.000000	1.046842
3583.000000	1.046964
3582.000000	1.047061
3581.000000	1.047130
3580.000000	1.047167
3579.000000	1.047180
3578.000000	1.047183
3577.000000	1.047191
3576.000000	1.047213
3575.000000	1.047248
3574.000000	1.047293
3573.000000	1.047342
3572.000000	1.047385
3571.000000	1.047403
3570.000000	1.047381
3569.000000	1.047319
3568.000000	1.047246
3567.000000	1.047200
3566.000000	1.047201
3565.000000	1.047248
3564.000000	1.047320
3563.000000	1.047402
3562.000000	1.047478
3561.000000	1.047532
3560.000000	1.047552
3559.000000	1.047540
3558.000000	1.047519
3557.000000	1.047517
3556.000000	1.047549
3555.000000	1.047605
3554.000000	1.047663
3553.000000	1.047701
3552.000000	1.047715
3551.000000	1.047711
3550.000000	1.047695
3549.000000	1.047668
3548.000000	1.047628
3547.000000	1.047587
3546.000000	1.047565
3545.000000	1.047581
3544.000000	1.047643
3543.000000	1.047738
3542.000000	1.047842
3541.000000	1.047931
3540.000000	1.047987
3539.000000	1.048007
3538.000000	1.047999
3537.000000	1.047978
3536.000000	1.047965
3535.000000	1.047978
3534.000000	1.048018
3533.000000	1.048069
3532.000000	1.048106
3531.000000	1.048120
3530.000000	1.048122
3529.000000	1.048130
3528.000000	1.048151
3527.000000	1.048180
3526.000000	1.048208
3525.000000	1.048229
3524.000000	1.048242
3523.000000	1.048250
3522.000000	1.048259
3521.000000	1.048284
3520.000000	1.048339
3519.000000	1.048429
3518.000000	1.048542
3517.000000	1.048654
3516.000000	1.048744
3515.000000	1.048803
3514.000000	1.048832
3513.000000	1.048840
3512.000000	1.048833
3511.000000	1.048827
3510.000000	1.048842
3509.000000	1.048890
3508.000000	1.048966
3507.000000	1.049048
3506.000000	1.049115
3505.000000	1.049159
3504.000000	1.049187
3503.000000	1.049215
3502.000000	1.049265
3501.000000	1.049349
3500.000000	1.049463
3499.000000	1.049574
3498.000000	1.049655
3497.000000	1.049706
3496.000000	1.049759
3495.000000	1.049838
3494.000000	1.049942
3493.000000	1.050049
3492.000000	1.050141
3491.000000	1.050214
3490.000000	1.050272
3489.000000	1.050320
3488.000000	1.050365
3487.000000	1.050413
3486.000000	1.050466
3485.000000	1.050519
3484.000000	1.050566
3483.000000	1.050612
3482.000000	1.050670
3481.000000	1.050759
3480.000000	1.050891
3479.000000	1.051054
3478.000000	1.051215
3477.000000	1.051339
3476.000000	1.051414
3475.000000	1.051460
3474.000000	1.051511
3473.000000	1.051589
3472.000000	1.051694
3471.000000	1.051810
3470.000000	1.051919
3469.000000	1.052016
3468.000000	1.052106
3467.000000	1.052196
3466.000000	1.052288
3465.000000	1.052384
3464.000000	1.052492
3463.000000	1.052622
3462.000000	1.052774
3461.000000	1.052928
3460.000000	1.053064
3459.000000	1.053176
3458.000000	1.053280
3457.000000	1.053391
3456.000000	1.053515
3455.000000	1.053645
3454.000000	1.053773
3453.000000	1.053900
3452.000000	1.054025
3451.000000	1.054146
3450.000000	1.054260
3449.000000	1.054370
3448.000000	1.054489
3447.000000	1.054622
3446.000000	1.054759
3445.000000	1.054882
3444.000000	1.054987
3443.000000	1.055095
3442.000000	1.055231
3441.000000	1.055403
3440.000000	1.055590
3439.000000	1.055764
3438.000000	1.055905
3437.000000	1.056011
3436.000000	1.056095
3435.000000	1.056184
3434.000000	1.056300
3433.000000	1.056448
3432.000000	1.056611
3431.000000	1.056766
3430.000000	1.056902
3429.000000	1.057027
3428.000000	1.057164
3427.000000	1.057325
3426.000000	1.057497
3425.000000	1.057649
3424.000000	1.057762
3423.000000	1.057842
3422.000000	1.057920
3421.000000	1.058023
3420.000000	1.058158
3419.000000	1.058320
3418.000000	1.058490
3417.000000	1.058650
3416.000000	1.058786
3415.000000	1.058903
3414.000000	1.059015
3413.000000	1.059126
3412.000000	1.059225
3411.000000	1.059300
3410.000000	1.059359
3409.000000	1.059421
3408.000000	1.059500
3407.000000	1.059592
3406.000000	1.059686
3405.000000	1.059775
3404.000000	1.059864
3403.000000	1.059953
3402.000000	1.060035
3401.000000	1.060101
3400.000000	1.060153
3399.000000	1.060201
3398.000000	1.060264
3397.000000	1.060349
3396.000000	1.060450
3395.000000	1.060553
3394.000000	1.060649
3393.000000	1.060734
3392.000000	1.060805
3391.000000	1.060861
3390.000000	1.060903
3389.000000	1.060937
3388.000000	1.060975
3387.000000	1.061029
3386.000000	1.061106
3385.000000	1.061199
3384.000000	1.061294
3383.000000	1.061385
3382.000000	1.061474
3381.000000	1.061566
3380.000000	1.061655
3379.000000	1.061724
3378.000000	1.061765
3377.000000	1.061786
3376.000000	1.061806
3375.000000	1.061836
3374.000000	1.061872
3373.000000	1.061895
3372.000000	1.061895
3371.000000	1.061877
3370.000000	1.061867
3369.000000	1.061888
3368.000000	1.061945
3367.000000	1.062024
3366.000000	1.062110
3365.000000	1.062194
3364.000000	1.062268
3363.000000	1.062317
3362.000000	1.062336
3361.000000	1.062341
3360.000000	1.062356
3359.000000	1.062387
3358.000000	1.062422
3357.000000	1.062446
3356.000000	1.062460
3355.000000	1.062475
3354.000000	1.062504
3353.000000	1.062545
3352.000000	1.062590
3351.000000	1.062629
3350.000000	1.062658
3349.000000	1.062678
3348.000000	1.062695
3347.000000	1.062715
3346.000000	1.062743
3345.000000	1.062776
3344.000000	1.062806
3343.000000	1.062823
3342.000000	1.062822
3341.000000	1.062813
3340.000000	1.062808
3339.000000	1.062812
3338.000000	1.062822
3337.000000	1.062842
3336.000000	1.062874
3335.000000	1.062913
3334.000000	1.062940
3333.000000	1.062944
3332.000000	1.062934
3331.000000	1.062935
3330.000000	1.062962
3329.000000	1.063014
3328.000000	1.063072
3327.000000	1.063119
3326.000000	1.063146
3325.000000	1.063162
3324.000000	1.063176
3323.000000	1.063197
3322.000000	1.063226
3321.000000	1.063263
3320.000000	1.063310
3319.000000	1.063366
3318.000000	1.063421
3317.000000	1.063470
3316.000000	1.063519
3315.000000	1.063576
3314.000000	1.063631
3313.000000	1.063666
3312.000000	1.063684
3311.000000	1.063713
3310.000000	1.063780
3309.000000	1.063875
3308.000000	1.063961
3307.000000	1.064006
3306.000000	1.064003
3305.000000	1.063967
3304.000000	1.063921
3303.000000	1.063895
3302.000000	1.063914
3301.000000	1.063981
3300.000000	1.064076
3299.000000	1.064166
3298.000000	1.064226
3297.000000	1.064251
3296.000000	1.064250
3295.000000	1.064242
3294.000000	1.064245
3293.000000	1.064267
3292.000000	1.064304
3291.000000	1.064347
3290.000000	1.064393
3289.000000	1.064448
3288.000000	1.064514
3287.000000	1.064586
3286.000000	1.064649
3285.000000	1.064693
3284.000000	1.064720
3283.000000	1.064745
3282.000000	1.064784
3281.000000	1.064846
3280.000000	1.064923
3279.000000	1.064991
3278.000000	1.065024
3277.000000	1.065018
3276.000000	1.065000
3275.000000	1.065009
3274.000000	1.065055
3273.000000	1.065116
3272.000000	1.065158
3271.000000	1.065174
3270.000000	1.065189
3269.000000	1.065231
3268.000000	1.065302
3267.000000	1.065382
3266.000000	1.065443
3265.000000	1.065475
3264.000000	1.065483
3263.000000	1.065485
3262.000000	1.065497
3261.000000	1.065528
3260.000000	1.065576
3259.000000	1.065632
3258.000000	1.065683
3257.000000	1.065713
3256.000000	1.065717
3255.000000	1.065706
3254.000000	1.065704
3253.000000	1.065730
3252.000000	1.065781
3251.000000	1.065847
3250.000000	1.065914
3249.000000	1.065973
3248.000000	1.066013
3247.000000	1.066020
3246.000000	1.066000
3245.000000	1.065979
3244.000000	1.065989
3243.000000	1.066042
3242.000000	1.066114
3241.000000	1.066174
3240.000000	1.066213
3239.000000	1.066248
3238.000000	1.066295
3237.000000	1.066349
3236.000000	1.066394
3235.000000	1.066424
3234.000000	1.066453
3233.000000	1.066502
3232.000000	1.066571
3231.000000	1.066649
3230.000000	1.066719
3229.000000	1.066781
3228.000000	1.066839
3227.000000	1.066895
3226.000000	1.066947
3225.000000	1.066990
3224.000000	1.067029
3223.000000	1.067069
3222.000000	1.067109
3221.000000	1.067145
3220.000000	1.067183
3219.000000	1.067228
3218.000000	1.067278
3217.000000	1.067316
3216.000000	1.067335
3215.000000	1.067340
3214.000000	1.067340
3213.000000	1.067335
3212.000000	1.067319
3211.000000	1.067290
3210.000000	1.067260
3209.000000	1.067248
3208.000000	1.067264
3207.000000	1.067305
3206.000000	1.067353
3205.000000	1.067390
3204.000000	1.067405
3203.000000	1.067401
3202.000000	1.067383
3201.000000	1.067357
3200.000000	1.067330
3199.000000	1.067309
3198.000000	1.067300
3197.000000	1.067302
3196.000000	1.067310
3195.000000	1.067326
3194.000000	1.067351
3193.000000	1.067380
3192.000000	1.067398
3191.000000	1.067390
3190.000000	1.067357
3189.000000	1.067320
3188.000000	1.067301
3187.000000	1.067309
3186.000000	1.067335
3185.000000	1.067359
3184.000000	1.067368
3183.000000	1.067357
3182.000000	1.067332
3181.000000	1.067302
3180.000000	1.067274
3179.000000	1.067258
3178.000000	1.067260
3177.000000	1.067281
3176.000000	1.067314
3175.000000	1.067339
3174.000000	1.067340
3173.000000	1.067314
3172.000000	1.067280
3171.000000	1.067254
3170.000000	1.067238
3169.000000	1.067221
3168.000000	1.067202
3167.000000	1.067190
3166.000000	1.067191
3165.000000	1.067203
3164.000000	1.067219
3163.000000	1.067237
3162.000000	1.067257
3161.000000	1.067277
3160.000000	1.067289
3159.000000	1.067287
3158.000000	1.067270
3157.000000	1.067241
3156.000000	1.067210
3155.000000	1.067188
3154.000000	1.067177
3153.000000	1.067172
3152.000000	1.067168
3151.000000	1.067168
3150.000000	1.067185
3149.000000	1.067222
3148.000000	1.067267
3147.000000	1.067305
3146.000000	1.067327
3145.000000	1.067340
3144.000000	1.067352
3143.000000	1.067368
3142.000000	1.067383
3141.000000	1.067393
3140.000000	1.067396
3139.000000	1.067399
3138.000000	1.067404
3137.000000	1.067414
3136.000000	1.067430
3135.000000	1.067448
3134.000000	1.067461
3133.000000	1.067461
3132.000000	1.067450
3131.000000	1.067436
3130.000000	1.067428
3129.000000	1.067425
3128.000000	1.067422
3127.000000	1.067416
3126.000000	1.067417
3125.000000	1.067436
3124.000000	1.067473
3123.000000	1.067508
3122.000000	1.067520
3121.000000	1.067506
3120.000000	1.067482
3119.000000	1.067471
3118.000000	1.067480
3117.000000	1.067499
3116.000000	1.067518
3115.000000	1.067537
3114.000000	1.067558
3113.000000	1.067582
3112.000000	1.067599
3111.000000	1.067600
3110.000000	1.067577
3109.000000	1.067536
3108.000000	1.067501
3107.000000	1.067490
3106.000000	1.067493
3105.000000	1.067487
3104.000000	1.067460
3103.000000	1.067428
3102.000000	1.067409
3101.000000	1.067397
3100.000000	1.067375
3099.000000	1.067334
3098.000000	1.067282
3097.000000	1.067222
3096.000000	1.067151
3095.000000	1.067071
3094.000000	1.066996
3093.000000	1.066941
3092.000000	1.066913
3091.000000	1.066896
3090.000000	1.066866
3089.000000	1.066808
3088.000000	1.066733
3087.000000	1.066664
3086.000000	1.066615
3085.000000	1.066573
3084.000000	1.066520
3083.000000	1.066452
3082.000000	1.066383
3081.000000	1.066323
3080.000000	1.066269
3079.000000	1.066209
3078.000000	1.066136
3077.000000	1.066054
3076.000000	1.065972
3075.000000	1.065898
3074.000000	1.065837
3073.000000	1.065781
3072.000000	1.065721
3071.000000	1.065656
3070.000000	1.065594
3069.000000	1.065543
3068.000000	1.065503
3067.000000	1.065463
3066.000000	1.065411
3065.000000	1.065342
3064.000000	1.065268
3063.000000	1.065207
3062.000000	1.065153
3061.000000	1.065083
3060.000000	1.064983
3059.000000	1.064869
3058.000000	1.064770
3057.000000	1.064696
3056.000000	1.064629
3055.000000	1.064559
3054.000000	1.064494
3053.000000	1.064439
3052.000000	1.064386
3051.000000	1.064317
3050.000000	1.064236
3049.000000	1.064157
3048.000000	1.064089
3047.000000	1.064022
3046.000000	1.063945
3045.000000	1.063858
3044.000000	1.063771
3043.000000	1.063691
3042.000000	1.063619
3041.000000	1.063549
3040.000000	1.063481
3039.000000	1.063423
3038.000000	1.063379
3037.000000	1.063333
3036.000000	1.063263
3035.000000	1.063154
3034.000000	1.063018
3033.000000	1.062875
3032.000000	1.062747
3031.000000	1.062647
3030.000000	1.062581
3029.000000	1.062543
3028.000000	1.062517
3027.000000	1.062482
3026.000000	1.062429
3025.000000	1.062349
3024.000000	1.062239
3023.000000	1.062104
3022.000000	1.061963
3021.000000	1.061839
3020.000000	1.061739
3019.000000	1.061651
3018.000000	1.061564
3017.000000	1.061472
3016.000000	1.061375
3015.000000	1.061272
3014.000000	1.061170
3013.000000	1.061068
3012.000000	1.060958
3011.000000	1.060829
3010.000000	1.060678
3009.000000	1.060514
3008.000000	1.060354
3007.000000	1.060208
3006.000000	1.060084
3005.000000	1.059984
3004.000000	1.059893
3003.000000	1.059790
3002.000000	1.059661
3001.000000	1.059506
3000.000000	1.059339
2999.000000	1.059173
2998.000000	1.059017
2997.000000	1.058874
2996.000000	1.058742
2995.000000	1.058612
2994.000000	1.058472
2993.000000	1.058323
2992.000000	1.058172
2991.000000	1.058022
2990.000000	1.057864
2989.000000	1.057687
2988.000000	1.057498
2987.000000	1.057313
2986.000000	1.057149
2985.000000	1.057001
2984.000000	1.056854
2983.000000	1.056694
2982.000000	1.056526
2981.000000	1.056366
2980.000000	1.056225
2979.000000	1.056096
2978.000000	1.055962
2977.000000	1.055809
2976.000000	1.055637
2975.000000	1.055453
2974.000000	1.055266
2973.000000	1.055081
2972.000000	1.054907
2971.000000	1.054747
2970.000000	1.054596
2969.000000	1.054440
2968.000000	1.054262
2967.000000	1.054059
2966.000000	1.053841
2965.000000	1.053623
2964.000000	1.053412
2963.000000	1.053208
2962.000000	1.053007
2961.000000	1.052806
2960.000000	1.052607
2959.000000	1.052410
2958.000000	1.052212
2957.000000	1.052002
2956.000000	1.051769
2955.000000	1.051512
2954.000000	1.051247
2953.000000	1.051000
2952.000000	1.050793
2951.000000	1.050624
2950.000000	1.050473
2949.000000	1.050314
2948.000000	1.050132
2947.000000	1.049931
2946.000000	1.049717
2945.000000	1.049492
2944.000000	1.049259
2943.000000	1.049025
2942.000000	1.048805
2941.000000	1.048604
2940.000000	1.048413
2939.000000	1.048220
2938.000000	1.048015
2937.000000	1.047805
2936.000000	1.047595
2935.000000	1.047394
2934.000000	1.047204
2933.000000	1.047021
2932.000000	1.046837
2931.000000	1.046643
2930.000000	1.046438
2929.000000	1.046222
2928.000000	1.045996
2927.000000	1.045759
2926.000000	1.045512
2925.000000	1.045263
2924.000000	1.045023
2923.000000	1.044798
2922.000000	1.044586
2921.000000	1.044390
2920.000000	1.044215
2919.000000	1.044054
2918.000000	1.043889
2917.000000	1.043695
2916.000000	1.043470
2915.000000	1.043227
2914.000000	1.042992
2913.000000	1.042778
2912.000000	1.042591
2911.000000	1.042424
2910.000000	1.042262
2909.000000	1.042082
2908.000000	1.041875
2907.000000	1.041658
2906.000000	1.041456
2905.000000	1.041283
2904.000000	1.041122
2903.000000	1.040949
2902.000000	1.040749
2901.000000	1.040528
2900.000000	1.040305
2899.000000	1.040097
2898.000000	1.039909
2897.000000	1.039737
2896.000000	1.039572
2895.000000	1.039407
2894.000000	1.039239
2893.000000	1.039062
2892.000000	1.038871
2891.000000	1.038671
2890.000000	1.038475
2889.000000	1.038292
2888.000000	1.038120
2887.000000	1.037950
2886.000000	1.037773
2885.000000	1.037589
2884.000000	1.037401
2883.000000	1.037219
2882.000000	1.037052
2881.000000	1.036906
2880.000000	1.036778
2879.000000	1.036656
2878.000000	1.036525
2877.000000	1.036371
2876.000000	1.036191
2875.000000	1.035996
2874.000000	1.035805
2873.000000	1.035636
2872.000000	1.035494
2871.000000	1.035369
2870.000000	1.035245
2869.000000	1.035109
2868.000000	1.034956
2867.000000	1.034786
2866.000000	1.034602
2865.000000	1.034409
2864.000000	1.034214
2863.000000	1.034023
2862.000000	1.033846
2861.000000	1.033690
2860.000000	1.033557
2859.000000	1.033433
2858.000000	1.033302
2857.000000	1.033155
2856.000000	1.033001
2855.000000	1.032857
2854.000000	1.032732
2853.000000	1.032623
2852.000000	1.032515
2851.000000	1.032400
2850.000000	1.032278
2849.000000	1.032152
2848.000000	1.032022
2847.000000	1.031888
2846.000000	1.031747
2845.000000	1.031610
2844.000000	1.031490
2843.000000	1.031392
2842.000000	1.031303
2841.000000	1.031207
2840.000000	1.031102
2839.000000	1.030997
2838.000000	1.030902
2837.000000	1.030812
2836.000000	1.030720
2835.000000	1.030623
2834.000000	1.030522
2833.000000	1.030423
2832.000000	1.030333
2831.000000	1.030256
2830.000000	1.030185
2829.000000	1.030107
2828.000000	1.030012
2827.000000	1.029908
2826.000000	1.029805
2825.000000	1.029702
2824.000000	1.029592
2823.000000	1.029478
2822.000000	1.029368
2821.000000	1.029261
2820.000000	1.029154
2819.000000	1.029048
2818.000000	1.028958
2817.000000	1.028886
2816.000000	1.028816
2815.000000	1.028730
2814.000000	1.028626
2813.000000	1.028518
2812.000000	1.028422
2811.000000	1.028339
2810.000000	1.028265
2809.000000	1.028195
2808.000000	1.028130
2807.000000	1.028066
2806.000000	1.027993
2805.000000	1.027908
2804.000000	1.027816
2803.000000	1.027734
2802.000000	1.027667
2801.000000	1.027608
2800.000000	1.027548
2799.000000	1.027485
2798.000000	1.027428
2797.000000	1.027387
2796.000000	1.027354
2795.000000	1.027312
2794.000000	1.027247
2793.000000	1.027159
2792.000000	1.027063
2791.000000	1.026980
2790.000000	1.026919
2789.000000	1.026874
2788.000000	1.026831
2787.000000	1.026777
2786.000000	1.026704
2785.000000	1.026616
2784.000000	1.026527
2783.000000	1.026457
2782.000000	1.026417
2781.000000	1.026401
2780.000000	1.026394
2779.000000	1.026386
2778.000000	1.026374
2777.000000	1.026353
2776.000000	1.026313
2775.000000	1.026249
2774.000000	1.026175
2773.000000	1.026106
2772.000000	1.026051
2771.000000	1.026002
2770.000000	1.025952
2769.000000	1.025904
2768.000000	1.025862
2767.000000	1.025826
2766.000000	1.025790
2765.000000	1.025750
2764.000000	1.025708
2763.000000	1.025670
2762.000000	1.025631
2761.000000	1.025583
2760.000000	1.025526
2759.000000	1.025476
2758.000000	1.025441
2757.000000	1.025413
2756.000000	1.025380
2755.000000	1.025343
2754.000000	1.025314
2753.000000	1.025294
2752.000000	1.025275
2751.000000	1.025253
2750.000000	1.025232
2749.000000	1.025216
2748.000000	1.025201
2747.000000	1.025179
2746.000000	1.025152
2745.000000	1.025125
2744.000000	1.025108
2743.000000	1.025106
2742.000000	1.025119
2741.000000	1.025134
2740.000000	1.025130
2739.000000	1.025100
2738.000000	1.025053
2737.000000	1.025006
2736.000000	1.024972
2735.000000	1.024953
2734.000000	1.024947
2733.000000	1.024946
2732.000000	1.024941
2731.000000	1.024932
2730.000000	1.024923
2729.000000	1.024919
2728.000000	1.024918
2727.000000	1.024913
2726.000000	1.024902
2725.000000	1.024889
2724.000000	1.024881
2723.000000	1.024881
2722.000000	1.024886
2721.000000	1.024887
2720.000000	1.024883
2719.000000	1.024883
2718.000000	1.024894
2717.000000	1.024913
2716.000000	1.024931
2715.000000	1.024944
2714.000000	1.024958
2713.000000	1.024974
2712.000000	1.024984
2711.000000	1.024984
2710.000000	1.024982
2709.000000	1.024986
2708.000000	1.024995
2707.000000	1.025003
2706.000000	1.025012
2705.000000	1.025030
2704.000000	1.025056
2703.000000	1.025081
2702.000000	1.025097
2701.000000	1.025108
2700.000000	1.025123
2699.000000	1.025146
2698.000000	1.025174
2697.000000	1.025200
2696.000000	1.025213
2695.000000	1.025218
2694.000000	1.025230
2693.000000	1.025264
2692.000000	1.025318
2691.000000	1.025380
2690.000000	1.025437
2689.000000	1.025485
2688.000000	1.025519
2687.000000	1.025539
2686.000000	1.025548
2685.000000	1.025557
2684.000000	1.025574
2683.000000	1.025598
2682.000000	1.025624
2681.000000	1.025653
2680.000000	1.025695
2679.000000	1.025756
2678.000000	1.025835
2677.000000	1.025920
2676.000000	1.025991
2675.000000	1.026042
2674.000000	1.026080
2673.000000	1.026116
2672.000000	1.026155
2671.000000	1.026193
2670.000000	1.026228
2669.000000	1.026256
2668.000000	1.026281
2667.000000	1.026303
2666.000000	1.026330
2665.000000	1.026372
2664.000000	1.026437
2663.000000	1.026520
2662.000000	1.026607
2661.000000	1.026689
2660.000000	1.026767
2659.000000	1.026851
2658.000000	1.026944
2657.000000	1.027042
2656.000000	1.027135
2655.000000	1.027217
2654.000000	1.027285
2653.000000	1.027341
2652.000000	1.027393
2651.000000	1.027451
2650.000000	1.027524
2649.000000	1.027609
2648.000000	1.027702
2647.000000	1.027795
2646.000000	1.027887
2645.000000	1.027975
2644.000000	1.028059
2643.000000	1.028142
2642.000000	1.028224
2641.000000	1.028299
2640.000000	1.028367
2639.000000	1.028439
2638.000000	1.028528
2637.000000	1.028629
2636.000000	1.028731
2635.000000	1.028828
2634.000000	1.028920
2633.000000	1.029009
2632.000000	1.029091
2631.000000	1.029174
2630.000000	1.029269
2629.000000	1.029379
2628.000000	1.029489
2627.000000	1.029584
2626.000000	1.029664
2625.000000	1.029738
2624.000000	1.029815
2623.000000	1.029900
2622.000000	1.029998
2621.000000	1.030114
2620.000000	1.030235
2619.000000	1.030343
2618.000000	1.030432
2617.000000	1.030511
2616.000000	1.030594
2615.000000	1.030688
2614.000000	1.030788
2613.000000	1.030883
2612.000000	1.030968
2611.000000	1.031050
2610.000000	1.031140
2609.000000	1.031248
2608.000000	1.031374
2607.000000	1.031508
2606.000000	1.031639
2605.000000	1.031759
2604.000000	1.031866
2603.000000	1.031965
2602.000000	1.032062
2601.000000	1.032165
2600.000000	1.032276
2599.000000	1.032401
2598.000000	1.032540
2597.000000	1.032686
2596.000000	1.032824
2595.000000	1.032944
2594.000000	1.033046
2593.000000	1.033139
2592.000000	1.033229
2591.000000	1.033321
2590.000000	1.033420
2589.000000	1.033531
2588.000000	1.033655
2587.000000	1.033787
2586.000000	1.033921
2585.000000	1.034057
2584.000000	1.034192
2583.000000	1.034325
2582.000000	1.034457
2581.000000	1.034589
2580.000000	1.034722
2579.000000	1.034856
2578.000000	1.034985
2577.000000	1.035103
2576.000000	1.035213
2575.000000	1.035325
2574.000000	1.035451
2573.000000	1.035592
2572.000000	1.035732
2571.000000	1.035858
2570.000000	1.035966
2569.000000	1.036069
2568.000000	1.036181
2567.000000	1.036312
2566.000000	1.036460
2565.000000	1.036615
2564.000000	1.036769
2563.000000	1.036920
2562.000000	1.037076
2561.000000	1.037239
2560.000000	1.037407
2559.000000	1.037570
2558.000000	1.037722
2557.000000	1.037863
2556.000000	1.037996
2555.000000	1.038130
2554.000000	1.038275
2553.000000	1.038436
2552.000000	1.038606
2551.000000	1.038776
2550.000000	1.038936
2549.000000	1.039084
2548.000000	1.039222
2547.000000	1.039358
2546.000000	1.039499
2545.000000	1.039643
2544.000000	1.039784
2543.000000	1.039923
2542.000000	1.040074
2541.000000	1.040248
2540.000000	1.040444
2539.000000	1.040647
2538.000000	1.040839
2537.000000	1.041011
2536.000000	1.041165
2535.000000	1.041311
2534.000000	1.041460
2533.000000	1.041614
2532.000000	1.041774
2531.000000	1.041937
2530.000000	1.042106
2529.000000	1.042282
2528.000000	1.042466
2527.000000	1.042664
2526.000000	1.042873
2525.000000	1.043078
2524.000000	1.043257
2523.000000	1.043405
2522.000000	1.043536
2521.000000	1.043669
2520.000000	1.043808
2519.000000	1.043956
2518.000000	1.044121
2517.000000	1.044313
2516.000000	1.044520
2515.000000	1.044719
2514.000000	1.044900
2513.000000	1.045063
2512.000000	1.045214
2511.000000	1.045355
2510.000000	1.045493
2509.000000	1.045642
2508.000000	1.045804
2507.000000	1.045962
2506.000000	1.046102
2505.000000	1.046224
2504.000000	1.046345
2503.000000	1.046481
2502.000000	1.046638
2501.000000	1.046805
2500.000000	1.046965
2499.000000	1.047107
2498.000000	1.047233
2497.000000	1.047354
2496.000000	1.047477
2495.000000	1.047596
2494.000000	1.047702
2493.000000	1.047795
2492.000000	1.047883
2491.000000	1.047972
2490.000000	1.048062
2489.000000	1.048150
2488.000000	1.048243
2487.000000	1.048348
2486.000000	1.048463
2485.000000	1.048569
2484.000000	1.048648
2483.000000	1.048702
2482.000000	1.048745
2481.000000	1.048792
2480.000000	1.048844
2479.000000	1.048902
2478.000000	1.048974
2477.000000	1.049061
2476.000000	1.049148
2475.000000	1.049212
2474.000000	1.049249
2473.000000	1.049281
2472.000000	1.049330
2471.000000	1.049402
2470.000000	1.049481
2469.000000	1.049544
2468.000000	1.049585
2467.000000	1.049616
2466.000000	1.049655
2465.000000	1.049703
2464.000000	1.049739
2463.000000	1.049750
2462.000000	1.049745
2461.000000	1.049748
2460.000000	1.049772
2459.000000	1.049814
2458.000000	1.049860
2457.000000	1.049894
2456.000000	1.049905
2455.000000	1.049889
2454.000000	1.049861
2453.000000	1.049838
2452.000000	1.049823
2451.000000	1.049801
2450.000000	1.049759
2449.000000	1.049705
2448.000000	1.049658
2447.000000	1.049625
2446.000000	1.049603
2445.000000	1.049585
2444.000000	1.049562
2443.000000	1.049527
2442.000000	1.049474
2441.000000	1.049404
2440.000000	1.049323
2439.000000	1.049241
2438.000000	1.049171
2437.000000	1.049121
2436.000000	1.049083
2435.000000	1.049037
2434.000000	1.048964
2433.000000	1.048870
2432.000000	1.048778
2431.000000	1.048698
2430.000000	1.048618
2429.000000	1.048523
2428.000000	1.048418
2427.000000	1.048324
2426.000000	1.048254
2425.000000	1.048198
2424.000000	1.048133
2423.000000	1.048052
2422.000000	1.047960
2421.000000	1.047868
2420.000000	1.047782
2419.000000	1.047699
2418.000000	1.047621
2417.000000	1.047549
2416.000000	1.047483
2415.000000	1.047419
2414.000000	1.047350
2413.000000	1.047273
2412.000000	1.047192
2411.000000	1.047112
2410.000000	1.047034
2409.000000	1.046953
2408.000000	1.046862
2407.000000	1.046764
2406.000000	1.046662
2405.000000	1.046556
2404.000000	1.046446
2403.000000	1.046338
2402.000000	1.046243
2401.000000	1.046171
2400.000000	1.046119
2399.000000	1.046074
2398.000000	1.046017
2397.000000	1.045939
2396.000000	1.045842
2395.000000	1.045743
2394.000000	1.045658
2393.000000	1.045591
2392.000000	1.045534
2391.000000	1.045486
2390.000000	1.045448
2389.000000	1.045423
2388.000000	1.045412
2387.000000	1.045423
2386.000000	1.045480
2385.000000	1.045615
2384.000000	1.045876
2383.000000	1.046318
2382.000000	1.046978
2381.000000	1.047829
2380.000000	1.048766
2379.000000	1.049647
2378.000000	1.050363
2377.000000	1.050869
2376.000000	1.051184
2375.000000	1.051350
2374.000000	1.051419
2373.000000	1.051430
2372.000000	1.051407
2371.000000	1.051353
2370.000000	1.051265
2369.000000	1.051143
2368.000000	1.050998
2367.000000	1.050859
2366.000000	1.050764
2365.000000	1.050755
2364.000000	1.050857
2363.000000	1.051073
2362.000000	1.051385
2361.000000	1.051764
2360.000000	1.052181
2359.000000	1.052625
2358.000000	1.053099
2357.000000	1.053605
2356.000000	1.054134
2355.000000	1.054675
2354.000000	1.055230
2353.000000	1.055807
2352.000000	1.056392
2351.000000	1.056922
2350.000000	1.057300
2349.000000	1.057451
2348.000000	1.057385
2347.000000	1.057207
2346.000000	1.057069
2345.000000	1.057089
2344.000000	1.057296
2343.000000	1.057635
2342.000000	1.057994
2341.000000	1.058231
2340.000000	1.058216
2339.000000	1.057896
2338.000000	1.057332
2337.000000	1.056665
2336.000000	1.056038
2335.000000	1.055531
2334.000000	1.055162
2333.000000	1.054917
2332.000000	1.054771
2331.000000	1.054694
2330.000000	1.054655
2329.000000	1.054628
2328.000000	1.054595
2327.000000	1.054548
2326.000000	1.054494
2325.000000	1.054448
2324.000000	1.054429
2323.000000	1.054447
2322.000000	1.054494
2321.000000	1.054548
2320.000000	1.054591
2319.000000	1.054626
2318.000000	1.054679
2317.000000	1.054762
2316.000000	1.054853
2315.000000	1.054915
2314.000000	1.054937
2313.000000	1.054940
2312.000000	1.054942
2311.000000	1.054941
2310.000000	1.054938
2309.000000	1.054948
2308.000000	1.054983
2307.000000	1.055025
2306.000000	1.055037
2305.000000	1.055005
2304.000000	1.054950
2303.000000	1.054913
2302.000000	1.054910
2301.000000	1.054933
2300.000000	1.054964
2299.000000	1.054994
2298.000000	1.055015
2297.000000	1.055021
2296.000000	1.055006
2295.000000	1.054982
2294.000000	1.054970
2293.000000	1.054984
2292.000000	1.055009
2291.000000	1.055023
2290.000000	1.055013
2289.000000	1.054987
2288.000000	1.054961
2287.000000	1.054958
2286.000000	1.055022
2285.000000	1.055192
2284.000000	1.055458
2283.000000	1.055735
2282.000000	1.055914
2281.000000	1.055950
2280.000000	1.055885
2279.000000	1.055796
2278.000000	1.055732
2277.000000	1.055700
2276.000000	1.055683
2275.000000	1.055673
2274.000000	1.055667
2273.000000	1.055665
2272.000000	1.055669
2271.000000	1.055678
2270.000000	1.055691
2269.000000	1.055703
2268.000000	1.055711
2267.000000	1.055710
2266.000000	1.055706
2265.000000	1.055708
2264.000000	1.055727
2263.000000	1.055759
2262.000000	1.055787
2261.000000	1.055795
2260.000000	1.055788
2259.000000	1.055783
2258.000000	1.055792
2257.000000	1.055811
2256.000000	1.055827
2255.000000	1.055838
2254.000000	1.055851
2253.000000	1.055873
2252.000000	1.055899
2251.000000	1.055920
2250.000000	1.055930
2249.000000	1.055930
2248.000000	1.055931
2247.000000	1.055946
2246.000000	1.055981
2245.000000	1.056023
2244.000000	1.056055
2243.000000	1.056065
2242.000000	1.056059
2241.000000	1.056050
2240.000000	1.056045
2239.000000	1.056047
2238.000000	1.056056
2237.000000	1.056073
2236.000000	1.056100
2235.000000	1.056133
2234.000000	1.056160
2233.000000	1.056169
2232.000000	1.056160
2231.000000	1.056144
2230.000000	1.056140
2229.000000	1.056157
2228.000000	1.056185
2227.000000	1.056213
2226.000000	1.056230
2225.000000	1.056237
2224.000000	1.056236
2223.000000	1.056230
2222.000000	1.056217
2221.000000	1.056196
2220.000000	1.056168
2219.000000	1.056144
2218.000000	1.056134
2217.000000	1.056139
2216.000000	1.056152
2215.000000	1.056167
2214.000000	1.056181
2213.000000	1.056188
2212.000000	1.056182
2211.000000	1.056167
2210.000000	1.056159
2209.000000	1.056166
2208.000000	1.056180
2207.000000	1.056188
2206.000000	1.056186
2205.000000	1.056179
2204.000000	1.056171
2203.000000	1.056157
2202.000000	1.056133
2201.000000	1.056104
2200.000000	1.056077
2199.000000	1.056053
2198.000000	1.056033
2197.000000	1.056018
2196.000000	1.056011
2195.000000	1.056011
2194.000000	1.056007
2193.000000	1.055992
2192.000000	1.055967
2191.000000	1.055943
2190.000000	1.055929
2189.000000	1.055919
2188.000000	1.055901
2187.000000	1.055873
2186.000000	1.055843
2185.000000	1.055817
2184.000000	1.055787
2183.000000	1.055746
2182.000000	1.055703
2181.000000	1.055671
2180.000000	1.055661
2179.000000	1.055665
2178.000000	1.055672
2177.000000	1.055664
2176.000000	1.055628
2175.000000	1.055564
2174.000000	1.055493
2173.000000	1.055435
2172.000000	1.055397
2171.000000	1.055365
2170.000000	1.055325
2169.000000	1.055275
2168.000000	1.055218
2167.000000	1.055163
2166.000000	1.055118
2165.000000	1.055083
2164.000000	1.055051
2163.000000	1.055009
2162.000000	1.054956
2161.000000	1.054899
2160.000000	1.054847
2159.000000	1.054797
2158.000000	1.054747
2157.000000	1.054699
2156.000000	1.054661
2155.000000	1.054633
2154.000000	1.054604
2153.000000	1.054562
2152.000000	1.054499
2151.000000	1.054421
2150.000000	1.054342
2149.000000	1.054272
2148.000000	1.054209
2147.000000	1.054145
2146.000000	1.054079
2145.000000	1.054015
2144.000000	1.053954
2143.000000	1.053892
2142.000000	1.053817
2141.000000	1.053729
2140.000000	1.053638
2139.000000	1.053552
2138.000000	1.053473
2137.000000	1.053396
2136.000000	1.053316
2135.000000	1.053232
2134.000000	1.053144
2133.000000	1.053048
2132.000000	1.052944
2131.000000	1.052842
2130.000000	1.052756
2129.000000	1.052693
2128.000000	1.052639
2127.000000	1.052574
2126.000000	1.052486
2125.000000	1.052385
2124.000000	1.052283
2123.000000	1.052191
2122.000000	1.052102
2121.000000	1.052006
2120.000000	1.051899
2119.000000	1.051783
2118.000000	1.051666
2117.000000	1.051547
2116.000000	1.051422
2115.000000	1.051291
2114.000000	1.051162
2113.000000	1.051047
2112.000000	1.050943
2111.000000	1.050843
2110.000000	1.050738
2109.000000	1.050625
2108.000000	1.050504
2107.000000	1.050374
2106.000000	1.050239
2105.000000	1.050104
2104.000000	1.049972
2103.000000	1.049847
2102.000000	1.049732
2101.000000	1.049629
2100.000000	1.049529
2099.000000	1.049421
2098.000000	1.049301
2097.000000	1.049164
2096.000000	1.049015
2095.000000	1.048861
2094.000000	1.048715
2093.000000	1.048582
2092.000000	1.048456
2091.000000	1.048327
2090.000000	1.048196
2089.000000	1.048069
2088.000000	1.047945
2087.000000	1.047810
2086.000000	1.047661
2085.000000	1.047507
2084.000000	1.047361
2083.000000	1.047223
2082.000000	1.047080
2081.000000	1.046924
2080.000000	1.046754
2079.000000	1.046585
2078.000000	1.046432
2077.000000	1.046304
2076.000000	1.046195
2075.000000	1.046087
2074.000000	1.045958
2073.000000	1.045797
2072.000000	1.045613
2071.000000	1.045434
2070.000000	1.045281
2069.000000	1.045150
2068.000000	1.045017
2067.000000	1.044860
2066.000000	1.044686
2065.000000	1.044513
2064.000000	1.044348
2063.000000	1.044192
2062.000000	1.044045
2061.000000	1.043913
2060.000000	1.043793
2059.000000	1.043674
2058.000000	1.043542
2057.000000	1.043396
2056.000000	1.043239
2055.000000	1.043080
2054.000000	1.042928
2053.000000	1.042787
2052.000000	1.042653
2051.000000	1.042521
2050.000000	1.042390
2049.000000	1.042259
2048.000000	1.042119
2047.000000	1.041962
2046.000000	1.041793
2045.000000	1.041624
2044.000000	1.041463
2043.000000	1.041307
2042.000000	1.041154
2041.000000	1.041009
2040.000000	1.040879
2039.000000	1.040766
2038.000000	1.040660
2037.000000	1.040551
2036.000000	1.040429
2035.000000	1.040287
2034.000000	1.040130
2033.000000	1.039970
2032.000000	1.039819
2031.000000	1.039681
2030.000000	1.039550
2029.000000	1.039424
2028.000000	1.039305
2027.000000	1.039192
2026.000000	1.039087
2025.000000	1.038984
2024.000000	1.038875
2023.000000	1.038749
2022.000000	1.038606
2021.000000	1.038459
2020.000000	1.038321
2019.000000	1.038194
2018.000000	1.038071
2017.000000	1.037950
2016.000000	1.037837
2015.000000	1.037738
2014.000000	1.037648
2013.000000	1.037554
2012.000000	1.037441
2011.000000	1.037311
2010.000000	1.037174
2009.000000	1.037045
2008.000000	1.036930
2007.000000	1.036835
2006.000000	1.036762
2005.000000	1.036704
2004.000000	1.036638
2003.000000	1.036547
2002.000000	1.036436
2001.000000	1.036329
2000.000000	1.036243
1999.000000	1.036172
1998.000000	1.036100
1997.000000	1.036021
1996.000000	1.035935
1995.000000	1.035840
1994.000000	1.035734
1993.000000	1.035622
1992.000000	1.035518
1991.000000	1.035433
1990.000000	1.035363
1989.000000	1.035300
1988.000000	1.035242
1987.000000	1.035191
1986.000000	1.035146
1985.000000	1.035091
1984.000000	1.035014
1983.000000	1.034913
1982.000000	1.034798
1981.000000	1.034688
1980.000000	1.034598
1979.000000	1.034533
1978.000000	1.034491
1977.000000	1.034458
1976.000000	1.034422
1975.000000	1.034376
1974.000000	1.034324
1973.000000	1.034277
1972.000000	1.034240
1971.000000	1.034205
1970.000000	1.034151
1969.000000	1.034070
1968.000000	1.033977
1967.000000	1.033897
1966.000000	1.033844
1965.000000	1.033806
1964.000000	1.033765
1963.000000	1.033720
1962.000000	1.033684
1961.000000	1.033665
1960.000000	1.033660
1959.000000	1.033656
1958.000000	1.033643
1957.000000	1.033618
1956.000000	1.033583
1955.000000	1.033547
1954.000000	1.033516
1953.000000	1.033489
1952.000000	1.033457
1951.000000	1.033415
1950.000000	1.033369
1949.000000	1.033322
1948.000000	1.033281
1947.000000	1.033247
1946.000000	1.033219
1945.000000	1.033190
1944.000000	1.033158
1943.000000	1.033135
1942.000000	1.033130
1941.000000	1.033136
1940.000000	1.033143
1939.000000	1.033146
1938.000000	1.033150
1937.000000	1.033148
1936.000000	1.033133
1935.000000	1.033108
1934.000000	1.033089
1933.000000	1.033079
1932.000000	1.033068
1931.000000	1.033050
1930.000000	1.033034
1929.000000	1.033033
1928.000000	1.033039
1927.000000	1.033037
1926.000000	1.033019
1925.000000	1.032991
1924.000000	1.032967
1923.000000	1.032967
1922.000000	1.032996
1921.000000	1.033035
1920.000000	1.033051
1919.000000	1.033039
1918.000000	1.033029
1917.000000	1.033050
1916.000000	1.033094
1915.000000	1.033136
1914.000000	1.033163
1913.000000	1.033178
1912.000000	1.033185
1911.000000	1.033187
1910.000000	1.033194
1909.000000	1.033213
1908.000000	1.033236
1907.000000	1.033258
1906.000000	1.033284
1905.000000	1.033326
1904.000000	1.033376
1903.000000	1.033419
1902.000000	1.033452
1901.000000	1.033482
1900.000000	1.033510
1899.000000	1.033531
1898.000000	1.033542
1897.000000	1.033547
1896.000000	1.033551
1895.000000	1.033559
1894.000000	1.033584
1893.000000	1.033623
1892.000000	1.033652
1891.000000	1.033661
1890.000000	1.033670
1889.000000	1.033712
1888.000000	1.033787
1887.000000	1.033867
1886.000000	1.033939
1885.000000	1.034009
1884.000000	1.034075
1883.000000	1.034118
1882.000000	1.034131
1881.000000	1.034135
1880.000000	1.034152
1879.000000	1.034190
1878.000000	1.034241
1877.000000	1.034296
1876.000000	1.034345
1875.000000	1.034388
1874.000000	1.034434
1873.000000	1.034479
1872.000000	1.034497
1871.000000	1.034471
1870.000000	1.034432
1869.000000	1.034438
1868.000000	1.034515
1867.000000	1.034630
1866.000000	1.034743
1865.000000	1.034837
1864.000000	1.034916
1863.000000	1.034978
1862.000000	1.035024
1861.000000	1.035070
1860.000000	1.035135
1859.000000	1.035221
1858.000000	1.035318
1857.000000	1.035412
1856.000000	1.035494
1855.000000	1.035562
1854.000000	1.035627
1853.000000	1.035699
1852.000000	1.035766
1851.000000	1.035813
1850.000000	1.035843
1849.000000	1.035880
1848.000000	1.035923
1847.000000	1.035936
1846.000000	1.035900
1845.000000	1.035864
1844.000000	1.035909
1843.000000	1.036067
1842.000000	1.036290
1841.000000	1.036498
1840.000000	1.036646
1839.000000	1.036748
1838.000000	1.036837
1837.000000	1.036932
1836.000000	1.037035
1835.000000	1.037138
1834.000000	1.037230
1833.000000	1.037288
1832.000000	1.037300
1831.000000	1.037298
1830.000000	1.037343
1829.000000	1.037468
1828.000000	1.037635
1827.000000	1.037783
1826.000000	1.037899
1825.000000	1.038024
1824.000000	1.038187
1823.000000	1.038367
1822.000000	1.038532
1821.000000	1.038672
1820.000000	1.038793
1819.000000	1.038904
1818.000000	1.039014
1817.000000	1.039138
1816.000000	1.039275
1815.000000	1.039402
1814.000000	1.039509
1813.000000	1.039607
1812.000000	1.039713
1811.000000	1.039829
1810.000000	1.039954
1809.000000	1.040091
1808.000000	1.040232
1807.000000	1.040361
1806.000000	1.040474
1805.000000	1.040582
1804.000000	1.040683
1803.000000	1.040766
1802.000000	1.040845
1801.000000	1.040955
1800.000000	1.041112
1799.000000	1.041293
1798.000000	1.041467
1797.000000	1.041625
1796.000000	1.041752
1795.000000	1.041810
1794.000000	1.041798
1793.000000	1.041796
1792.000000	1.041897
1791.000000	1.042119
1790.000000	1.042391
1789.000000	1.042635
1788.000000	1.042825
1787.000000	1.042980
1786.000000	1.043133
1785.000000	1.043303
1784.000000	1.043486
1783.000000	1.043656
1782.000000	1.043798
1781.000000	1.043930
1780.000000	1.044078
1779.000000	1.044247
1778.000000	1.044428
1777.000000	1.044605
1776.000000	1.044741
1775.000000	1.044788
1774.000000	1.044752
1773.000000	1.044739
1772.000000	1.044873
1771.000000	1.045157
1770.000000	1.045471
1769.000000	1.045723
1768.000000	1.045942
1767.000000	1.046206
1766.000000	1.046508
1765.000000	1.046753
1764.000000	1.046878
1763.000000	1.046929
1762.000000	1.047018
1761.000000	1.047213
1760.000000	1.047474
1759.000000	1.047702
1758.000000	1.047847
1757.000000	1.047960
1756.000000	1.048122
1755.000000	1.048328
1754.000000	1.048480
1753.000000	1.048517
1752.000000	1.048505
1751.000000	1.048572
1750.000000	1.048767
1749.000000	1.049031
1748.000000	1.049289
1747.000000	1.049519
1746.000000	1.049730
1745.000000	1.049922
1744.000000	1.050084
1743.000000	1.050215
1742.000000	1.050307
1741.000000	1.050366
1740.000000	1.050444
1739.000000	1.050601
1738.000000	1.050799
1737.000000	1.050875
1736.000000	1.050720
1735.000000	1.050459
1734.000000	1.050380
1733.000000	1.050638
1732.000000	1.051101
1731.000000	1.051521
1730.000000	1.051784
1729.000000	1.051943
1728.000000	1.052078
1727.000000	1.052208
1726.000000	1.052323
1725.000000	1.052426
1724.000000	1.052523
1723.000000	1.052604
1722.000000	1.052638
1721.000000	1.052567
1720.000000	1.052338
1719.000000	1.051999
1718.000000	1.051739
1717.000000	1.051744
1716.000000	1.052013
1715.000000	1.052372
1714.000000	1.052670
1713.000000	1.052891
1712.000000	1.053065
1711.000000	1.053183
1710.000000	1.053232
1709.000000	1.053227
1708.000000	1.053175
1707.000000	1.053073
1706.000000	1.052976
1705.000000	1.052968
1704.000000	1.053003
1703.000000	1.052888
1702.000000	1.052540
1701.000000	1.052177
1700.000000	1.052096
1699.000000	1.052290
1698.000000	1.052465
1697.000000	1.052449
1696.000000	1.052414
1695.000000	1.052620
1694.000000	1.053059
1693.000000	1.053482
1692.000000	1.053696
1691.000000	1.053727
1690.000000	1.053706
1689.000000	1.053681
1688.000000	1.053561
1687.000000	1.053239
1686.000000	1.052772
1685.000000	1.052420
1684.000000	1.052454
1683.000000	1.052878
1682.000000	1.053412
1681.000000	1.053781
1680.000000	1.053928
1679.000000	1.053945
1678.000000	1.053873
1677.000000	1.053702
1676.000000	1.053503
1675.000000	1.053433
1674.000000	1.053554
1673.000000	1.053737
1672.000000	1.053810
1671.000000	1.053748
1670.000000	1.053677
1669.000000	1.053716
1668.000000	1.053865
1667.000000	1.054031
1666.000000	1.054114
1665.000000	1.054080
1664.000000	1.053977
1663.000000	1.053915
1662.000000	1.053971
1661.000000	1.054120
1660.000000	1.054266
1659.000000	1.054346
1658.000000	1.054342
1657.000000	1.054192
1656.000000	1.053771
1655.000000	1.053066
1654.000000	1.052353
1653.000000	1.052079
1652.000000	1.052450
1651.000000	1.053186
1650.000000	1.053776
1649.000000	1.053927
1648.000000	1.053748
1647.000000	1.053551
1646.000000	1.053564
1645.000000	1.053803
1644.000000	1.054129
1643.000000	1.054383
1642.000000	1.054490
1641.000000	1.054481
1640.000000	1.054414
1639.000000	1.054271
1638.000000	1.054003
1637.000000	1.053671
1636.000000	1.053475
1635.000000	1.053577
1634.000000	1.053920
1633.000000	1.054284
1632.000000	1.054493
1631.000000	1.054531
1630.000000	1.054484
1629.000000	1.054431
1628.000000	1.054406
1627.000000	1.054397
1626.000000	1.054364
1625.000000	1.054281
1624.000000	1.054180
1623.000000	1.054138
1622.000000	1.054196
1621.000000	1.054281
1620.000000	1.054249
1619.000000	1.054026
1618.000000	1.053710
1617.000000	1.053523
1616.000000	1.053624
1615.000000	1.053961
1614.000000	1.054321
1613.000000	1.054535
1612.000000	1.054591
1611.000000	1.054578
1610.000000	1.054561
1609.000000	1.054551
1608.000000	1.054552
1607.000000	1.054572
1606.000000	1.054602
1605.000000	1.054617
1604.000000	1.054615
1603.000000	1.054616
1602.000000	1.054631
1601.000000	1.054649
1600.000000	1.054660
1599.000000	1.054665
1598.000000	1.054665
1597.000000	1.054656
1596.000000	1.054647
1595.000000	1.054653
1594.000000	1.054672
1593.000000	1.054685
1592.000000	1.054679
1591.000000	1.054663
1590.000000	1.054656
1589.000000	1.054669
1588.000000	1.054694
1587.000000	1.054710
1586.000000	1.054701
1585.000000	1.054671
1584.000000	1.054648
1583.000000	1.054653
1582.000000	1.054678
1581.000000	1.054686
1580.000000	1.054609
1579.000000	1.054386
1578.000000	1.054033
1577.000000	1.053710
1576.000000	1.053645
1575.000000	1.053909
1574.000000	1.054309
1573.000000	1.054548
1572.000000	1.054507
1571.000000	1.054322
1570.000000	1.054203
1569.000000	1.054238
1568.000000	1.054370
1567.000000	1.054497
1566.000000	1.054565
1565.000000	1.054580
1564.000000	1.054549
1563.000000	1.054406
1562.000000	1.054033
1561.000000	1.053419
1560.000000	1.052804
1559.000000	1.052543
1558.000000	1.052770
1557.000000	1.053255
1556.000000	1.053672
1555.000000	1.053910
1554.000000	1.054070
1553.000000	1.054246
1552.000000	1.054411
1551.000000	1.054516
1550.000000	1.054570
1549.000000	1.054590
1548.000000	1.054547
1547.000000	1.054409
1546.000000	1.054205
1545.000000	1.054000
1544.000000	1.053811
1543.000000	1.053589
1542.000000	1.053297
1541.000000	1.052998
1540.000000	1.052866
1539.000000	1.053056
1538.000000	1.053529
1537.000000	1.054031
1536.000000	1.054299
1535.000000	1.054293
1534.000000	1.054198
1533.000000	1.054204
1532.000000	1.054330
1531.000000	1.054466
1530.000000	1.054516
1529.000000	1.054466
1528.000000	1.054348
1527.000000	1.054222
1526.000000	1.054141
1525.000000	1.054090
1524.000000	1.053980
1523.000000	1.053763
1522.000000	1.053545
1521.000000	1.053503
1520.000000	1.053671
1519.000000	1.053898
1518.000000	1.054031
1517.000000	1.054079
1516.000000	1.054142
1515.000000	1.054251
1514.000000	1.054343
1513.000000	1.054372
1512.000000	1.054362
1511.000000	1.054323
1510.000000	1.054174
1509.000000	1.053833
1508.000000	1.053376
1507.000000	1.053048
1506.000000	1.053083
1505.000000	1.053489
1504.000000	1.054039
1503.000000	1.054475
1502.000000	1.054686
1501.000000	1.054719
1500.000000	1.054651
