PE IR       SUBTECH     SPECTRUM    ASCII       PEDS        4.00        
   -1
TE108B1_028_122K.ASC
20/02/21
15:58:27.00
20/02/21
15:58:27.00
Administrator
Sample 028 By Administrator Date Friday, February 21 2020
1500.000000
#HDR
-1
-1
#GR
cm-1
A
1.0
0.0
4000.000000
-1.000000
2501
8
0.974903
0.920109
#DATA
4000.000000	0.930548
3999.000000	0.930525
3998.000000	0.930492
3997.000000	0.930450
3996.000000	0.930408
3995.000000	0.930373
3994.000000	0.930347
3993.000000	0.930324
3992.000000	0.930301
3991.000000	0.930280
3990.000000	0.930265
3989.000000	0.930257
3988.000000	0.930249
3987.000000	0.930237
3986.000000	0.930222
3985.000000	0.930211
3984.000000	0.930213
3983.000000	0.930223
3982.000000	0.930228
3981.000000	0.930211
3980.000000	0.930172
3979.000000	0.930119
3978.000000	0.930064
3977.000000	0.930012
3976.000000	0.929965
3975.000000	0.929926
3974.000000	0.929901
3973.000000	0.929888
3972.000000	0.929877
3971.000000	0.929856
3970.000000	0.929820
3969.000000	0.929771
3968.000000	0.929719
3967.000000	0.929674
3966.000000	0.929641
3965.000000	0.929621
3964.000000	0.929606
3963.000000	0.929586
3962.000000	0.929544
3961.000000	0.929474
3960.000000	0.929382
3959.000000	0.929281
3958.000000	0.929185
3957.000000	0.929098
3956.000000	0.929018
3955.000000	0.928944
3954.000000	0.928871
3953.000000	0.928795
3952.000000	0.928711
3951.000000	0.928617
3950.000000	0.928522
3949.000000	0.928439
3948.000000	0.928377
3947.000000	0.928335
3946.000000	0.928295
3945.000000	0.928244
3944.000000	0.928179
3943.000000	0.928111
3942.000000	0.928050
3941.000000	0.927996
3940.000000	0.927941
3939.000000	0.927872
3938.000000	0.927785
3937.000000	0.927681
3936.000000	0.927567
3935.000000	0.927451
3934.000000	0.927344
3933.000000	0.927256
3932.000000	0.927194
3931.000000	0.927157
3930.000000	0.927139
3929.000000	0.927123
3928.000000	0.927091
3927.000000	0.927032
3926.000000	0.926951
3925.000000	0.926864
3924.000000	0.926785
3923.000000	0.926709
3922.000000	0.926620
3921.000000	0.926505
3920.000000	0.926368
3919.000000	0.926228
3918.000000	0.926106
3917.000000	0.926013
3916.000000	0.925949
3915.000000	0.925901
3914.000000	0.925848
3913.000000	0.925773
3912.000000	0.925676
3911.000000	0.925575
3910.000000	0.925495
3909.000000	0.925443
3908.000000	0.925401
3907.000000	0.925333
3906.000000	0.925208
3905.000000	0.925027
3904.000000	0.924824
3903.000000	0.924643
3902.000000	0.924509
3901.000000	0.924422
3900.000000	0.924367
3899.000000	0.924342
3898.000000	0.924345
3897.000000	0.924372
3896.000000	0.924398
3895.000000	0.924391
3894.000000	0.924321
3893.000000	0.924188
3892.000000	0.924033
3891.000000	0.923914
3890.000000	0.923863
3889.000000	0.923847
3888.000000	0.923792
3887.000000	0.923652
3886.000000	0.923464
3885.000000	0.923316
3884.000000	0.923269
3883.000000	0.923299
3882.000000	0.923324
3881.000000	0.923289
3880.000000	0.923213
3879.000000	0.923159
3878.000000	0.923154
3877.000000	0.923160
3876.000000	0.923128
3875.000000	0.923048
3874.000000	0.922950
3873.000000	0.922851
3872.000000	0.922734
3871.000000	0.922586
3870.000000	0.922441
3869.000000	0.922362
3868.000000	0.922375
3867.000000	0.922431
3866.000000	0.922450
3865.000000	0.922396
3864.000000	0.922303
3863.000000	0.922233
3862.000000	0.922207
3861.000000	0.922208
3860.000000	0.922214
3859.000000	0.922223
3858.000000	0.922212
3857.000000	0.922116
3856.000000	0.921859
3855.000000	0.921441
3854.000000	0.920988
3853.000000	0.920686
3852.000000	0.920652
3851.000000	0.920855
3850.000000	0.921149
3849.000000	0.921391
3848.000000	0.921515
3847.000000	0.921536
3846.000000	0.921500
3845.000000	0.921440
3844.000000	0.921380
3843.000000	0.921339
3842.000000	0.921310
3841.000000	0.921251
3840.000000	0.921116
3839.000000	0.920906
3838.000000	0.920693
3837.000000	0.920567
3836.000000	0.920573
3835.000000	0.920676
3834.000000	0.920804
3833.000000	0.920896
3832.000000	0.920939
3831.000000	0.920956
3830.000000	0.920968
3829.000000	0.920979
3828.000000	0.920980
3827.000000	0.920974
3826.000000	0.920976
3825.000000	0.920979
3824.000000	0.920937
3823.000000	0.920808
3822.000000	0.920611
3821.000000	0.920440
3820.000000	0.920384
3819.000000	0.920436
3818.000000	0.920495
3817.000000	0.920471
3816.000000	0.920382
3815.000000	0.920330
3814.000000	0.920389
3813.000000	0.920531
3812.000000	0.920667
3811.000000	0.920732
3810.000000	0.920711
3809.000000	0.920617
3808.000000	0.920480
3807.000000	0.920357
3806.000000	0.920314
3805.000000	0.920358
3804.000000	0.920407
3803.000000	0.920364
3802.000000	0.920229
3801.000000	0.920109
3800.000000	0.920116
3799.000000	0.920250
3798.000000	0.920411
3797.000000	0.920506
3796.000000	0.920530
3795.000000	0.920538
3794.000000	0.920576
3793.000000	0.920638
3792.000000	0.920691
3791.000000	0.920717
3790.000000	0.920722
3789.000000	0.920718
3788.000000	0.920714
3787.000000	0.920717
3786.000000	0.920733
3785.000000	0.920757
3784.000000	0.920778
3783.000000	0.920785
3782.000000	0.920779
3781.000000	0.920772
3780.000000	0.920780
3779.000000	0.920817
3778.000000	0.920881
3777.000000	0.920958
3776.000000	0.921026
3775.000000	0.921077
3774.000000	0.921108
3773.000000	0.921115
3772.000000	0.921091
3771.000000	0.921041
3770.000000	0.921001
3769.000000	0.921003
3768.000000	0.921050
3767.000000	0.921106
3766.000000	0.921141
3765.000000	0.921160
3764.000000	0.921192
3763.000000	0.921251
3762.000000	0.921316
3761.000000	0.921354
3760.000000	0.921355
3759.000000	0.921336
3758.000000	0.921331
3757.000000	0.921357
3756.000000	0.921396
3755.000000	0.921406
3754.000000	0.921347
3753.000000	0.921211
3752.000000	0.921036
3751.000000	0.920893
3750.000000	0.920857
3749.000000	0.920953
3748.000000	0.921121
3747.000000	0.921238
3746.000000	0.921207
3745.000000	0.921064
3744.000000	0.920968
3743.000000	0.921069
3742.000000	0.921367
3741.000000	0.921715
3740.000000	0.921946
3739.000000	0.921998
3738.000000	0.921924
3737.000000	0.921822
3736.000000	0.921769
3735.000000	0.921788
3734.000000	0.921864
3733.000000	0.921968
3732.000000	0.922087
3731.000000	0.922234
3730.000000	0.922412
3729.000000	0.922599
3728.000000	0.922753
3727.000000	0.922855
3726.000000	0.922928
3725.000000	0.923003
3724.000000	0.923097
3723.000000	0.923199
3722.000000	0.923302
3721.000000	0.923407
3720.000000	0.923521
3719.000000	0.923645
3718.000000	0.923776
3717.000000	0.923912
3716.000000	0.924042
3715.000000	0.924146
3714.000000	0.924205
3713.000000	0.924225
3712.000000	0.924248
3711.000000	0.924328
3710.000000	0.924491
3709.000000	0.924725
3708.000000	0.924993
3707.000000	0.925264
3706.000000	0.925523
3705.000000	0.925760
3704.000000	0.925965
3703.000000	0.926144
3702.000000	0.926325
3701.000000	0.926547
3700.000000	0.926821
3699.000000	0.927121
3698.000000	0.927408
3697.000000	0.927666
3696.000000	0.927909
3695.000000	0.928160
3694.000000	0.928420
3693.000000	0.928675
3692.000000	0.928903
3691.000000	0.929087
3690.000000	0.929234
3689.000000	0.929390
3688.000000	0.929628
3687.000000	0.929998
3686.000000	0.930481
3685.000000	0.930994
3684.000000	0.931463
3683.000000	0.931871
3682.000000	0.932254
3681.000000	0.932655
3680.000000	0.933075
3679.000000	0.933472
3678.000000	0.933793
3677.000000	0.934026
3676.000000	0.934238
3675.000000	0.934534
3674.000000	0.934968
3673.000000	0.935487
3672.000000	0.935977
3671.000000	0.936384
3670.000000	0.936762
3669.000000	0.937213
3668.000000	0.937770
3667.000000	0.938378
3666.000000	0.938952
3665.000000	0.939452
3664.000000	0.939893
3663.000000	0.940308
3662.000000	0.940722
3661.000000	0.941139
3660.000000	0.941548
3659.000000	0.941924
3658.000000	0.942253
3657.000000	0.942552
3656.000000	0.942873
3655.000000	0.943263
3654.000000	0.943713
3653.000000	0.944151
3652.000000	0.944495
3651.000000	0.944723
3650.000000	0.944893
3649.000000	0.945100
3648.000000	0.945415
3647.000000	0.945843
3646.000000	0.946334
3645.000000	0.946819
3644.000000	0.947246
3643.000000	0.947604
3642.000000	0.947917
3641.000000	0.948216
3640.000000	0.948517
3639.000000	0.948819
3638.000000	0.949120
3637.000000	0.949416
3636.000000	0.949698
3635.000000	0.949959
3634.000000	0.950199
3633.000000	0.950420
3632.000000	0.950605
3631.000000	0.950728
3630.000000	0.950795
3629.000000	0.950873
3628.000000	0.951051
3627.000000	0.951359
3626.000000	0.951737
3625.000000	0.952090
3624.000000	0.952361
3623.000000	0.952553
3622.000000	0.952697
3621.000000	0.952818
3620.000000	0.952937
3619.000000	0.953078
3618.000000	0.953259
3617.000000	0.953464
3616.000000	0.953657
3615.000000	0.953804
3614.000000	0.953904
3613.000000	0.953976
3612.000000	0.954039
3611.000000	0.954100
3610.000000	0.954165
3609.000000	0.954248
3608.000000	0.954370
3607.000000	0.954537
3606.000000	0.954728
3605.000000	0.954909
3604.000000	0.955052
3603.000000	0.955152
3602.000000	0.955220
3601.000000	0.955277
3600.000000	0.955338
3599.000000	0.955410
3598.000000	0.955486
3597.000000	0.955550
3596.000000	0.955598
3595.000000	0.955637
3594.000000	0.955686
3593.000000	0.955759
3592.000000	0.955852
3591.000000	0.955937
3590.000000	0.955986
3589.000000	0.955993
3588.000000	0.955986
3587.000000	0.956011
3586.000000	0.956092
3585.000000	0.956214
3584.000000	0.956335
3583.000000	0.956422
3582.000000	0.956471
3581.000000	0.956502
3580.000000	0.956539
3579.000000	0.956588
3578.000000	0.956641
3577.000000	0.956685
3576.000000	0.956718
3575.000000	0.956746
3574.000000	0.956781
3573.000000	0.956821
3572.000000	0.956854
3571.000000	0.956864
3570.000000	0.956843
3569.000000	0.956795
3568.000000	0.956743
3567.000000	0.956717
3566.000000	0.956734
3565.000000	0.956791
3564.000000	0.956863
3563.000000	0.956925
3562.000000	0.956969
3561.000000	0.956995
3560.000000	0.957007
3559.000000	0.957012
3558.000000	0.957021
3557.000000	0.957044
3556.000000	0.957074
3555.000000	0.957091
3554.000000	0.957081
3553.000000	0.957045
3552.000000	0.957008
3551.000000	0.956992
3550.000000	0.957005
3549.000000	0.957035
3548.000000	0.957063
3547.000000	0.957084
3546.000000	0.957108
3545.000000	0.957151
3544.000000	0.957216
3543.000000	0.957288
3542.000000	0.957343
3541.000000	0.957370
3540.000000	0.957377
3539.000000	0.957379
3538.000000	0.957385
3537.000000	0.957398
3536.000000	0.957419
3535.000000	0.957455
3534.000000	0.957505
3533.000000	0.957565
3532.000000	0.957625
3531.000000	0.957681
3530.000000	0.957728
3529.000000	0.957762
3528.000000	0.957784
3527.000000	0.957806
3526.000000	0.957838
3525.000000	0.957884
3524.000000	0.957942
3523.000000	0.958014
3522.000000	0.958102
3521.000000	0.958199
3520.000000	0.958287
3519.000000	0.958351
3518.000000	0.958390
3517.000000	0.958416
3516.000000	0.958452
3515.000000	0.958514
3514.000000	0.958601
3513.000000	0.958693
3512.000000	0.958774
3511.000000	0.958843
3510.000000	0.958914
3509.000000	0.958992
3508.000000	0.959068
3507.000000	0.959132
3506.000000	0.959187
3505.000000	0.959245
3504.000000	0.959316
3503.000000	0.959398
3502.000000	0.959484
3501.000000	0.959572
3500.000000	0.959661
3499.000000	0.959752
3498.000000	0.959845
3497.000000	0.959938
3496.000000	0.960035
3495.000000	0.960138
3494.000000	0.960253
3493.000000	0.960372
3492.000000	0.960481
3491.000000	0.960569
3490.000000	0.960640
3489.000000	0.960707
3488.000000	0.960778
3487.000000	0.960855
3486.000000	0.960943
3485.000000	0.961044
3484.000000	0.961157
3483.000000	0.961272
3482.000000	0.961382
3481.000000	0.961492
3480.000000	0.961618
3479.000000	0.961765
3478.000000	0.961922
3477.000000	0.962071
3476.000000	0.962199
3475.000000	0.962305
3474.000000	0.962398
3473.000000	0.962487
3472.000000	0.962581
3471.000000	0.962684
3470.000000	0.962798
3469.000000	0.962924
3468.000000	0.963063
3467.000000	0.963214
3466.000000	0.963370
3465.000000	0.963515
3464.000000	0.963640
3463.000000	0.963751
3462.000000	0.963863
3461.000000	0.963979
3460.000000	0.964092
3459.000000	0.964194
3458.000000	0.964289
3457.000000	0.964391
3456.000000	0.964505
3455.000000	0.964631
3454.000000	0.964767
3453.000000	0.964912
3452.000000	0.965059
3451.000000	0.965198
3450.000000	0.965322
3449.000000	0.965430
3448.000000	0.965532
3447.000000	0.965636
3446.000000	0.965746
3445.000000	0.965857
3444.000000	0.965961
3443.000000	0.966059
3442.000000	0.966157
3441.000000	0.966264
3440.000000	0.966383
3439.000000	0.966507
3438.000000	0.966622
3437.000000	0.966723
3436.000000	0.966822
3435.000000	0.966943
3434.000000	0.967099
3433.000000	0.967272
3432.000000	0.967428
3431.000000	0.967548
3430.000000	0.967638
3429.000000	0.967724
3428.000000	0.967829
3427.000000	0.967961
3426.000000	0.968111
3425.000000	0.968258
3424.000000	0.968386
3423.000000	0.968491
3422.000000	0.968584
3421.000000	0.968683
3420.000000	0.968791
3419.000000	0.968901
3418.000000	0.969004
3417.000000	0.969095
3416.000000	0.969174
3415.000000	0.969240
3414.000000	0.969298
3413.000000	0.969358
3412.000000	0.969422
3411.000000	0.969486
3410.000000	0.969541
3409.000000	0.969590
3408.000000	0.969646
3407.000000	0.969717
3406.000000	0.969801
3405.000000	0.969887
3404.000000	0.969969
3403.000000	0.970048
3402.000000	0.970122
3401.000000	0.970181
3400.000000	0.970224
3399.000000	0.970258
3398.000000	0.970296
3397.000000	0.970342
3396.000000	0.970391
3395.000000	0.970439
3394.000000	0.970488
3393.000000	0.970535
3392.000000	0.970579
3391.000000	0.970618
3390.000000	0.970658
3389.000000	0.970707
3388.000000	0.970764
3387.000000	0.970827
3386.000000	0.970889
3385.000000	0.970944
3384.000000	0.970986
3383.000000	0.971016
3382.000000	0.971045
3381.000000	0.971084
3380.000000	0.971130
3379.000000	0.971175
3378.000000	0.971213
3377.000000	0.971248
3376.000000	0.971284
3375.000000	0.971321
3374.000000	0.971353
3373.000000	0.971374
3372.000000	0.971388
3371.000000	0.971400
3370.000000	0.971420
3369.000000	0.971448
3368.000000	0.971476
3367.000000	0.971498
3366.000000	0.971514
3365.000000	0.971531
3364.000000	0.971557
3363.000000	0.971588
3362.000000	0.971614
3361.000000	0.971626
3360.000000	0.971625
3359.000000	0.971618
3358.000000	0.971616
3357.000000	0.971624
3356.000000	0.971642
3355.000000	0.971666
3354.000000	0.971688
3353.000000	0.971703
3352.000000	0.971714
3351.000000	0.971730
3350.000000	0.971757
3349.000000	0.971787
3348.000000	0.971806
3347.000000	0.971806
3346.000000	0.971794
3345.000000	0.971781
3344.000000	0.971773
3343.000000	0.971769
3342.000000	0.971767
3341.000000	0.971770
3340.000000	0.971778
3339.000000	0.971793
3338.000000	0.971817
3337.000000	0.971847
3336.000000	0.971872
3335.000000	0.971879
3334.000000	0.971870
3333.000000	0.971862
3332.000000	0.971879
3331.000000	0.971925
3330.000000	0.971983
3329.000000	0.972029
3328.000000	0.972051
3327.000000	0.972057
3326.000000	0.972060
3325.000000	0.972072
3324.000000	0.972095
3323.000000	0.972126
3322.000000	0.972159
3321.000000	0.972189
3320.000000	0.972216
3319.000000	0.972246
3318.000000	0.972286
3317.000000	0.972336
3316.000000	0.972388
3315.000000	0.972432
3314.000000	0.972463
3313.000000	0.972478
3312.000000	0.972476
3311.000000	0.972457
3310.000000	0.972429
3309.000000	0.972405
3308.000000	0.972395
3307.000000	0.972407
3306.000000	0.972442
3305.000000	0.972497
3304.000000	0.972562
3303.000000	0.972624
3302.000000	0.972668
3301.000000	0.972686
3300.000000	0.972683
3299.000000	0.972682
3298.000000	0.972701
3297.000000	0.972741
3296.000000	0.972784
3295.000000	0.972817
3294.000000	0.972838
3293.000000	0.972856
3292.000000	0.972870
3291.000000	0.972878
3290.000000	0.972885
3289.000000	0.972908
3288.000000	0.972956
3287.000000	0.973024
3286.000000	0.973097
3285.000000	0.973157
3284.000000	0.973193
3283.000000	0.973206
3282.000000	0.973213
3281.000000	0.973230
3280.000000	0.973264
3279.000000	0.973306
3278.000000	0.973344
3277.000000	0.973375
3276.000000	0.973399
3275.000000	0.973418
3274.000000	0.973434
3273.000000	0.973446
3272.000000	0.973456
3271.000000	0.973464
3270.000000	0.973475
3269.000000	0.973492
3268.000000	0.973517
3267.000000	0.973544
3266.000000	0.973573
3265.000000	0.973608
3264.000000	0.973653
3263.000000	0.973702
3262.000000	0.973741
3261.000000	0.973755
3260.000000	0.973740
3259.000000	0.973704
3258.000000	0.973670
3257.000000	0.973661
3256.000000	0.973687
3255.000000	0.973739
3254.000000	0.973797
3253.000000	0.973843
3252.000000	0.973870
3251.000000	0.973889
3250.000000	0.973912
3249.000000	0.973942
3248.000000	0.973970
3247.000000	0.973981
3246.000000	0.973970
3245.000000	0.973954
3244.000000	0.973953
3243.000000	0.973973
3242.000000	0.973999
3241.000000	0.974010
3240.000000	0.974003
3239.000000	0.973995
3238.000000	0.974007
3237.000000	0.974044
3236.000000	0.974094
3235.000000	0.974138
3234.000000	0.974173
3233.000000	0.974203
3232.000000	0.974236
3231.000000	0.974272
3230.000000	0.974307
3229.000000	0.974337
3228.000000	0.974362
3227.000000	0.974384
3226.000000	0.974403
3225.000000	0.974416
3224.000000	0.974419
3223.000000	0.974418
3222.000000	0.974425
3221.000000	0.974446
3220.000000	0.974476
3219.000000	0.974502
3218.000000	0.974515
3217.000000	0.974518
3216.000000	0.974521
3215.000000	0.974533
3214.000000	0.974554
3213.000000	0.974573
3212.000000	0.974578
3211.000000	0.974563
3210.000000	0.974538
3209.000000	0.974524
3208.000000	0.974530
3207.000000	0.974548
3206.000000	0.974564
3205.000000	0.974572
3204.000000	0.974575
3203.000000	0.974577
3202.000000	0.974578
3201.000000	0.974576
3200.000000	0.974570
3199.000000	0.974565
3198.000000	0.974564
3197.000000	0.974569
3196.000000	0.974576
3195.000000	0.974580
3194.000000	0.974579
3193.000000	0.974571
3192.000000	0.974555
3191.000000	0.974530
3190.000000	0.974507
3189.000000	0.974501
3188.000000	0.974518
3187.000000	0.974554
3186.000000	0.974595
3185.000000	0.974631
3184.000000	0.974656
3183.000000	0.974662
3182.000000	0.974645
3181.000000	0.974611
3180.000000	0.974579
3179.000000	0.974566
3178.000000	0.974577
3177.000000	0.974603
3176.000000	0.974633
3175.000000	0.974659
3174.000000	0.974681
3173.000000	0.974698
3172.000000	0.974711
3171.000000	0.974723
3170.000000	0.974735
3169.000000	0.974743
3168.000000	0.974740
3167.000000	0.974727
3166.000000	0.974712
3165.000000	0.974709
3164.000000	0.974719
3163.000000	0.974733
3162.000000	0.974736
3161.000000	0.974724
3160.000000	0.974695
3159.000000	0.974657
3158.000000	0.974621
3157.000000	0.974603
3156.000000	0.974604
3155.000000	0.974613
3154.000000	0.974614
3153.000000	0.974602
3152.000000	0.974585
3151.000000	0.974574
3150.000000	0.974569
3149.000000	0.974570
3148.000000	0.974581
3147.000000	0.974606
3146.000000	0.974641
3145.000000	0.974679
3144.000000	0.974706
3143.000000	0.974714
3142.000000	0.974704
3141.000000	0.974690
3140.000000	0.974687
3139.000000	0.974699
3138.000000	0.974713
3137.000000	0.974718
3136.000000	0.974716
3135.000000	0.974724
3134.000000	0.974748
3133.000000	0.974781
3132.000000	0.974805
3131.000000	0.974817
3130.000000	0.974825
3129.000000	0.974841
3128.000000	0.974865
3127.000000	0.974889
3126.000000	0.974903
3125.000000	0.974898
3124.000000	0.974880
3123.000000	0.974853
3122.000000	0.974826
3121.000000	0.974804
3120.000000	0.974790
3119.000000	0.974788
3118.000000	0.974799
3117.000000	0.974819
3116.000000	0.974840
3115.000000	0.974855
3114.000000	0.974859
3113.000000	0.974849
3112.000000	0.974827
3111.000000	0.974798
3110.000000	0.974771
3109.000000	0.974752
3108.000000	0.974741
3107.000000	0.974729
3106.000000	0.974708
3105.000000	0.974673
3104.000000	0.974630
3103.000000	0.974589
3102.000000	0.974559
3101.000000	0.974542
3100.000000	0.974526
3099.000000	0.974498
3098.000000	0.974453
3097.000000	0.974398
3096.000000	0.974346
3095.000000	0.974309
3094.000000	0.974293
3093.000000	0.974296
3092.000000	0.974307
3091.000000	0.974307
3090.000000	0.974282
3089.000000	0.974231
3088.000000	0.974169
3087.000000	0.974115
3086.000000	0.974077
3085.000000	0.974051
3084.000000	0.974023
3083.000000	0.973988
3082.000000	0.973949
3081.000000	0.973912
3080.000000	0.973882
3079.000000	0.973857
3078.000000	0.973835
3077.000000	0.973810
3076.000000	0.973776
3075.000000	0.973732
3074.000000	0.973686
3073.000000	0.973651
3072.000000	0.973628
3071.000000	0.973606
3070.000000	0.973568
3069.000000	0.973509
3068.000000	0.973435
3067.000000	0.973358
3066.000000	0.973285
3065.000000	0.973225
3064.000000	0.973178
3063.000000	0.973142
3062.000000	0.973113
3061.000000	0.973091
3060.000000	0.973070
3059.000000	0.973044
3058.000000	0.973005
3057.000000	0.972955
3056.000000	0.972896
3055.000000	0.972830
3054.000000	0.972760
3053.000000	0.972699
3052.000000	0.972656
3051.000000	0.972627
3050.000000	0.972597
3049.000000	0.972556
3048.000000	0.972508
3047.000000	0.972459
3046.000000	0.972410
3045.000000	0.972359
3044.000000	0.972307
3043.000000	0.972260
3042.000000	0.972222
3041.000000	0.972191
3040.000000	0.972166
3039.000000	0.972145
3038.000000	0.972123
3037.000000	0.972092
3036.000000	0.972052
3035.000000	0.972011
3034.000000	0.971977
3033.000000	0.971951
3032.000000	0.971928
3031.000000	0.971902
3030.000000	0.971874
3029.000000	0.971848
3028.000000	0.971827
3027.000000	0.971811
3026.000000	0.971791
3025.000000	0.971759
3024.000000	0.971709
3023.000000	0.971648
3022.000000	0.971585
3021.000000	0.971529
3020.000000	0.971475
3019.000000	0.971413
3018.000000	0.971338
3017.000000	0.971258
3016.000000	0.971186
3015.000000	0.971132
3014.000000	0.971094
3013.000000	0.971065
3012.000000	0.971039
3011.000000	0.971015
3010.000000	0.970990
3009.000000	0.970958
3008.000000	0.970915
3007.000000	0.970862
3006.000000	0.970805
3005.000000	0.970748
3004.000000	0.970689
3003.000000	0.970625
3002.000000	0.970557
3001.000000	0.970491
3000.000000	0.970430
2999.000000	0.970380
2998.000000	0.970339
2997.000000	0.970303
2996.000000	0.970260
2995.000000	0.970199
2994.000000	0.970119
2993.000000	0.970034
2992.000000	0.969959
2991.000000	0.969897
2990.000000	0.969842
2989.000000	0.969786
2988.000000	0.969724
2987.000000	0.969654
2986.000000	0.969572
2985.000000	0.969485
2984.000000	0.969409
2983.000000	0.969359
2982.000000	0.969337
2981.000000	0.969330
2980.000000	0.969321
2979.000000	0.969301
2978.000000	0.969272
2977.000000	0.969240
2976.000000	0.969205
2975.000000	0.969161
2974.000000	0.969101
2973.000000	0.969025
2972.000000	0.968946
2971.000000	0.968884
2970.000000	0.968844
2969.000000	0.968811
2968.000000	0.968762
2967.000000	0.968685
2966.000000	0.968587
2965.000000	0.968487
2964.000000	0.968393
2963.000000	0.968303
2962.000000	0.968207
2961.000000	0.968104
2960.000000	0.968000
2959.000000	0.967896
2958.000000	0.967792
2957.000000	0.967687
2956.000000	0.967589
2955.000000	0.967498
2954.000000	0.967407
2953.000000	0.967302
2952.000000	0.967182
2951.000000	0.967055
2950.000000	0.966929
2949.000000	0.966807
2948.000000	0.966694
2947.000000	0.966593
2946.000000	0.966506
2945.000000	0.966431
2944.000000	0.966365
2943.000000	0.966305
2942.000000	0.966251
2941.000000	0.966196
2940.000000	0.966132
2939.000000	0.966053
2938.000000	0.965956
2937.000000	0.965846
2936.000000	0.965731
2935.000000	0.965622
2934.000000	0.965527
2933.000000	0.965442
2932.000000	0.965356
2931.000000	0.965260
2930.000000	0.965154
2929.000000	0.965041
2928.000000	0.964925
2927.000000	0.964806
2926.000000	0.964675
2925.000000	0.964528
2924.000000	0.964369
2923.000000	0.964211
2922.000000	0.964068
2921.000000	0.963944
2920.000000	0.963832
2919.000000	0.963721
2918.000000	0.963604
2917.000000	0.963480
2916.000000	0.963349
2915.000000	0.963214
2914.000000	0.963085
2913.000000	0.962977
2912.000000	0.962896
2911.000000	0.962829
2910.000000	0.962748
2909.000000	0.962631
2908.000000	0.962481
2907.000000	0.962316
2906.000000	0.962163
2905.000000	0.962035
2904.000000	0.961934
2903.000000	0.961845
2902.000000	0.961748
2901.000000	0.961629
2900.000000	0.961496
2899.000000	0.961368
2898.000000	0.961257
2897.000000	0.961159
2896.000000	0.961057
2895.000000	0.960942
2894.000000	0.960817
2893.000000	0.960692
2892.000000	0.960577
2891.000000	0.960472
2890.000000	0.960364
2889.000000	0.960240
2888.000000	0.960096
2887.000000	0.959944
2886.000000	0.959800
2885.000000	0.959670
2884.000000	0.959553
2883.000000	0.959446
2882.000000	0.959350
2881.000000	0.959257
2880.000000	0.959158
2879.000000	0.959046
2878.000000	0.958928
2877.000000	0.958816
2876.000000	0.958715
2875.000000	0.958620
2874.000000	0.958520
2873.000000	0.958412
2872.000000	0.958295
2871.000000	0.958173
2870.000000	0.958050
2869.000000	0.957931
2868.000000	0.957812
2867.000000	0.957692
2866.000000	0.957570
2865.000000	0.957450
2864.000000	0.957331
2863.000000	0.957203
2862.000000	0.957058
2861.000000	0.956904
2860.000000	0.956762
2859.000000	0.956643
2858.000000	0.956533
2857.000000	0.956415
2856.000000	0.956286
2855.000000	0.956158
2854.000000	0.956039
2853.000000	0.955930
2852.000000	0.955826
2851.000000	0.955725
2850.000000	0.955630
2849.000000	0.955540
2848.000000	0.955454
2847.000000	0.955371
2846.000000	0.955291
2845.000000	0.955213
2844.000000	0.955131
2843.000000	0.955041
2842.000000	0.954944
2841.000000	0.954848
2840.000000	0.954767
2839.000000	0.954700
2838.000000	0.954638
2837.000000	0.954567
2836.000000	0.954482
2835.000000	0.954388
2834.000000	0.954295
2833.000000	0.954205
2832.000000	0.954117
2831.000000	0.954029
2830.000000	0.953938
2829.000000	0.953849
2828.000000	0.953770
2827.000000	0.953707
2826.000000	0.953649
2825.000000	0.953585
2824.000000	0.953509
2823.000000	0.953427
2822.000000	0.953345
2821.000000	0.953268
2820.000000	0.953199
2819.000000	0.953139
2818.000000	0.953083
2817.000000	0.953019
2816.000000	0.952944
2815.000000	0.952861
2814.000000	0.952780
2813.000000	0.952703
2812.000000	0.952632
2811.000000	0.952568
2810.000000	0.952510
2809.000000	0.952454
2808.000000	0.952396
2807.000000	0.952334
2806.000000	0.952268
2805.000000	0.952199
2804.000000	0.952123
2803.000000	0.952042
2802.000000	0.951957
2801.000000	0.951871
2800.000000	0.951791
2799.000000	0.951722
2798.000000	0.951662
2797.000000	0.951600
2796.000000	0.951535
2795.000000	0.951476
2794.000000	0.951436
2793.000000	0.951407
2792.000000	0.951371
2791.000000	0.951313
2790.000000	0.951240
2789.000000	0.951168
2788.000000	0.951107
2787.000000	0.951057
2786.000000	0.951013
2785.000000	0.950971
2784.000000	0.950928
2783.000000	0.950884
2782.000000	0.950848
2781.000000	0.950823
2780.000000	0.950805
2779.000000	0.950779
2778.000000	0.950737
2777.000000	0.950684
2776.000000	0.950630
2775.000000	0.950581
2774.000000	0.950537
2773.000000	0.950498
2772.000000	0.950462
2771.000000	0.950423
2770.000000	0.950375
2769.000000	0.950320
2768.000000	0.950269
2767.000000	0.950229
2766.000000	0.950199
2765.000000	0.950169
2764.000000	0.950139
2763.000000	0.950115
2762.000000	0.950100
2761.000000	0.950084
2760.000000	0.950059
2759.000000	0.950021
2758.000000	0.949975
2757.000000	0.949928
2756.000000	0.949883
2755.000000	0.949845
2754.000000	0.949812
2753.000000	0.949778
2752.000000	0.949740
2751.000000	0.949704
2750.000000	0.949675
2749.000000	0.949650
2748.000000	0.949619
2747.000000	0.949584
2746.000000	0.949558
2745.000000	0.949552
2744.000000	0.949563
2743.000000	0.949582
2742.000000	0.949596
2741.000000	0.949593
2740.000000	0.949566
2739.000000	0.949522
2738.000000	0.949475
2737.000000	0.949438
2736.000000	0.949406
2735.000000	0.949373
2734.000000	0.949340
2733.000000	0.949318
2732.000000	0.949313
2731.000000	0.949320
2730.000000	0.949329
2729.000000	0.949325
2728.000000	0.949308
2727.000000	0.949288
2726.000000	0.949281
2725.000000	0.949289
2724.000000	0.949302
2723.000000	0.949310
2722.000000	0.949312
2721.000000	0.949311
2720.000000	0.949305
2719.000000	0.949293
2718.000000	0.949276
2717.000000	0.949257
2716.000000	0.949239
2715.000000	0.949227
2714.000000	0.949226
2713.000000	0.949238
2712.000000	0.949259
2711.000000	0.949278
2710.000000	0.949289
2709.000000	0.949287
2708.000000	0.949270
2707.000000	0.949244
2706.000000	0.949222
2705.000000	0.949217
2704.000000	0.949227
2703.000000	0.949240
2702.000000	0.949245
2701.000000	0.949245
2700.000000	0.949251
2699.000000	0.949276
2698.000000	0.949317
2697.000000	0.949357
2696.000000	0.949375
2695.000000	0.949363
2694.000000	0.949338
2693.000000	0.949323
2692.000000	0.949328
2691.000000	0.949348
2690.000000	0.949373
2689.000000	0.949398
2688.000000	0.949419
2687.000000	0.949433
2686.000000	0.949444
2685.000000	0.949456
2684.000000	0.949472
2683.000000	0.949488
2682.000000	0.949506
2681.000000	0.949530
2680.000000	0.949557
2679.000000	0.949579
2678.000000	0.949598
2677.000000	0.949622
2676.000000	0.949660
2675.000000	0.949705
2674.000000	0.949739
2673.000000	0.949753
2672.000000	0.949753
2671.000000	0.949754
2670.000000	0.949768
2669.000000	0.949799
2668.000000	0.949840
2667.000000	0.949882
2666.000000	0.949920
2665.000000	0.949957
2664.000000	0.949998
2663.000000	0.950042
2662.000000	0.950081
2661.000000	0.950106
2660.000000	0.950117
2659.000000	0.950123
2658.000000	0.950135
2657.000000	0.950159
2656.000000	0.950200
2655.000000	0.950254
2654.000000	0.950309
2653.000000	0.950358
2652.000000	0.950402
2651.000000	0.950449
2650.000000	0.950510
2649.000000	0.950586
2648.000000	0.950661
2647.000000	0.950719
2646.000000	0.950756
2645.000000	0.950785
2644.000000	0.950821
2643.000000	0.950869
2642.000000	0.950923
2641.000000	0.950977
2640.000000	0.951035
2639.000000	0.951098
2638.000000	0.951158
2637.000000	0.951204
2636.000000	0.951232
2635.000000	0.951254
2634.000000	0.951285
2633.000000	0.951331
2632.000000	0.951384
2631.000000	0.951435
2630.000000	0.951480
2629.000000	0.951524
2628.000000	0.951574
2627.000000	0.951635
2626.000000	0.951699
2625.000000	0.951757
2624.000000	0.951802
2623.000000	0.951839
2622.000000	0.951880
2621.000000	0.951933
2620.000000	0.951996
2619.000000	0.952062
2618.000000	0.952124
2617.000000	0.952187
2616.000000	0.952256
2615.000000	0.952334
2614.000000	0.952412
2613.000000	0.952481
2612.000000	0.952537
2611.000000	0.952586
2610.000000	0.952637
2609.000000	0.952694
2608.000000	0.952755
2607.000000	0.952818
2606.000000	0.952881
2605.000000	0.952944
2604.000000	0.953003
2603.000000	0.953056
2602.000000	0.953105
2601.000000	0.953156
2600.000000	0.953213
2599.000000	0.953274
2598.000000	0.953335
2597.000000	0.953393
2596.000000	0.953452
2595.000000	0.953516
2594.000000	0.953590
2593.000000	0.953671
2592.000000	0.953752
2591.000000	0.953824
2590.000000	0.953884
2589.000000	0.953932
2588.000000	0.953974
2587.000000	0.954017
2586.000000	0.954067
2585.000000	0.954122
2584.000000	0.954179
2583.000000	0.954237
2582.000000	0.954295
2581.000000	0.954357
2580.000000	0.954423
2579.000000	0.954489
2578.000000	0.954549
2577.000000	0.954604
2576.000000	0.954658
2575.000000	0.954717
2574.000000	0.954779
2573.000000	0.954839
2572.000000	0.954899
2571.000000	0.954963
2570.000000	0.955032
2569.000000	0.955110
2568.000000	0.955199
2567.000000	0.955301
2566.000000	0.955409
2565.000000	0.955509
2564.000000	0.955594
2563.000000	0.955666
2562.000000	0.955739
2561.000000	0.955817
2560.000000	0.955895
2559.000000	0.955969
2558.000000	0.956042
2557.000000	0.956120
2556.000000	0.956210
2555.000000	0.956309
2554.000000	0.956408
2553.000000	0.956500
2552.000000	0.956583
2551.000000	0.956661
2550.000000	0.956735
2549.000000	0.956804
2548.000000	0.956866
2547.000000	0.956925
2546.000000	0.956992
2545.000000	0.957070
2544.000000	0.957159
2543.000000	0.957251
2542.000000	0.957344
2541.000000	0.957436
2540.000000	0.957527
2539.000000	0.957612
2538.000000	0.957690
2537.000000	0.957764
2536.000000	0.957842
2535.000000	0.957929
2534.000000	0.958018
2533.000000	0.958094
2532.000000	0.958155
2531.000000	0.958213
2530.000000	0.958285
2529.000000	0.958380
2528.000000	0.958493
2527.000000	0.958614
2526.000000	0.958731
2525.000000	0.958836
2524.000000	0.958924
2523.000000	0.959000
2522.000000	0.959076
2521.000000	0.959159
2520.000000	0.959249
2519.000000	0.959344
2518.000000	0.959446
2517.000000	0.959556
2516.000000	0.959672
2515.000000	0.959784
2514.000000	0.959881
2513.000000	0.959961
2512.000000	0.960029
2511.000000	0.960096
2510.000000	0.960169
2509.000000	0.960251
2508.000000	0.960342
2507.000000	0.960442
2506.000000	0.960546
2505.000000	0.960641
2504.000000	0.960719
2503.000000	0.960783
2502.000000	0.960843
2501.000000	0.960911
2500.000000	0.960989
2499.000000	0.961078
2498.000000	0.961174
2497.000000	0.961267
2496.000000	0.961343
2495.000000	0.961398
2494.000000	0.961438
2493.000000	0.961475
2492.000000	0.961523
2491.000000	0.961584
2490.000000	0.961651
2489.000000	0.961715
2488.000000	0.961771
2487.000000	0.961827
2486.000000	0.961895
2485.000000	0.961970
2484.000000	0.962042
2483.000000	0.962103
2482.000000	0.962161
2481.000000	0.962219
2480.000000	0.962269
2479.000000	0.962303
2478.000000	0.962325
2477.000000	0.962350
2476.000000	0.962387
2475.000000	0.962435
2474.000000	0.962490
2473.000000	0.962547
2472.000000	0.962598
2471.000000	0.962641
2470.000000	0.962679
2469.000000	0.962718
2468.000000	0.962761
2467.000000	0.962811
2466.000000	0.962871
2465.000000	0.962932
2464.000000	0.962982
2463.000000	0.963010
2462.000000	0.963022
2461.000000	0.963031
2460.000000	0.963048
2459.000000	0.963070
2458.000000	0.963092
2457.000000	0.963107
2456.000000	0.963111
2455.000000	0.963107
2454.000000	0.963107
2453.000000	0.963119
2452.000000	0.963138
2451.000000	0.963150
2450.000000	0.963150
2449.000000	0.963149
2448.000000	0.963161
2447.000000	0.963182
2446.000000	0.963194
2445.000000	0.963187
2444.000000	0.963162
2443.000000	0.963132
2442.000000	0.963110
2441.000000	0.963100
2440.000000	0.963095
2439.000000	0.963084
2438.000000	0.963058
2437.000000	0.963023
2436.000000	0.962990
2435.000000	0.962968
2434.000000	0.962953
2433.000000	0.962938
2432.000000	0.962921
2431.000000	0.962904
2430.000000	0.962893
2429.000000	0.962887
2428.000000	0.962875
2427.000000	0.962845
2426.000000	0.962794
2425.000000	0.962729
2424.000000	0.962662
2423.000000	0.962607
2422.000000	0.962570
2421.000000	0.962548
2420.000000	0.962531
2419.000000	0.962506
2418.000000	0.962463
2417.000000	0.962405
2416.000000	0.962346
2415.000000	0.962301
2414.000000	0.962276
2413.000000	0.962257
2412.000000	0.962229
2411.000000	0.962191
2410.000000	0.962153
2409.000000	0.962128
2408.000000	0.962110
2407.000000	0.962090
2406.000000	0.962062
2405.000000	0.962031
2404.000000	0.962007
2403.000000	0.961994
2402.000000	0.961992
2401.000000	0.961991
2400.000000	0.961980
2399.000000	0.961960
2398.000000	0.961938
2397.000000	0.961920
2396.000000	0.961900
2395.000000	0.961870
2394.000000	0.961833
2393.000000	0.961798
2392.000000	0.961769
2391.000000	0.961745
2390.000000	0.961728
2389.000000	0.961722
2388.000000	0.961724
2387.000000	0.961721
2386.000000	0.961708
2385.000000	0.961689
2384.000000	0.961671
2383.000000	0.961647
2382.000000	0.961603
2381.000000	0.961535
2380.000000	0.961451
2379.000000	0.961361
2378.000000	0.961268
2377.000000	0.961167
2376.000000	0.961055
2375.000000	0.960934
2374.000000	0.960807
2373.000000	0.960673
2372.000000	0.960529
2371.000000	0.960372
2370.000000	0.960209
2369.000000	0.960051
2368.000000	0.959903
2367.000000	0.959769
2366.000000	0.959651
2365.000000	0.959554
2364.000000	0.959485
2363.000000	0.959445
2362.000000	0.959438
2361.000000	0.959463
2360.000000	0.959516
2359.000000	0.959594
2358.000000	0.959697
2357.000000	0.959833
2356.000000	0.960006
2355.000000	0.960214
2354.000000	0.960450
2353.000000	0.960707
2352.000000	0.960975
2351.000000	0.961235
2350.000000	0.961463
2349.000000	0.961645
2348.000000	0.961795
2347.000000	0.961953
2346.000000	0.962179
2345.000000	0.962519
2344.000000	0.962971
2343.000000	0.963466
2342.000000	0.963882
2341.000000	0.964089
2340.000000	0.964008
2339.000000	0.963653
2338.000000	0.963131
2337.000000	0.962582
2336.000000	0.962116
2335.000000	0.961772
2334.000000	0.961541
2333.000000	0.961401
2332.000000	0.961333
2331.000000	0.961319
2330.000000	0.961341
2329.000000	0.961385
2328.000000	0.961439
2327.000000	0.961498
2326.000000	0.961562
2325.000000	0.961635
2324.000000	0.961721
2323.000000	0.961821
2322.000000	0.961925
2321.000000	0.962024
2320.000000	0.962111
2319.000000	0.962191
2318.000000	0.962269
2317.000000	0.962352
2316.000000	0.962435
2315.000000	0.962514
2314.000000	0.962587
2313.000000	0.962658
2312.000000	0.962734
2311.000000	0.962811
2310.000000	0.962878
2309.000000	0.962932
2308.000000	0.962977
2307.000000	0.963024
2306.000000	0.963076
2305.000000	0.963134
2304.000000	0.963194
2303.000000	0.963248
2302.000000	0.963290
2301.000000	0.963323
2300.000000	0.963356
2299.000000	0.963396
2298.000000	0.963442
2297.000000	0.963481
2296.000000	0.963506
2295.000000	0.963518
2294.000000	0.963527
2293.000000	0.963542
2292.000000	0.963564
2291.000000	0.963588
2290.000000	0.963613
2289.000000	0.963637
2288.000000	0.963662
2287.000000	0.963689
2286.000000	0.963715
2285.000000	0.963738
2284.000000	0.963755
2283.000000	0.963770
2282.000000	0.963790
2281.000000	0.963821
2280.000000	0.963859
2279.000000	0.963895
2278.000000	0.963925
2277.000000	0.963952
2276.000000	0.963976
2275.000000	0.963991
2274.000000	0.963993
2273.000000	0.963997
2272.000000	0.964021
2271.000000	0.964070
2270.000000	0.964128
2269.000000	0.964173
2268.000000	0.964200
2267.000000	0.964216
2266.000000	0.964232
2265.000000	0.964250
2264.000000	0.964270
2263.000000	0.964291
2262.000000	0.964314
2261.000000	0.964337
2260.000000	0.964353
2259.000000	0.964364
2258.000000	0.964374
2257.000000	0.964389
2256.000000	0.964407
2255.000000	0.964426
2254.000000	0.964452
2253.000000	0.964488
2252.000000	0.964530
2251.000000	0.964561
2250.000000	0.964573
2249.000000	0.964572
2248.000000	0.964573
2247.000000	0.964585
2246.000000	0.964601
2245.000000	0.964616
2244.000000	0.964626
2243.000000	0.964630
2242.000000	0.964622
2241.000000	0.964603
2240.000000	0.964584
2239.000000	0.964584
2238.000000	0.964606
2237.000000	0.964635
2236.000000	0.964652
2235.000000	0.964654
2234.000000	0.964655
2233.000000	0.964662
2232.000000	0.964678
2231.000000	0.964695
2230.000000	0.964707
2229.000000	0.964712
2228.000000	0.964708
2227.000000	0.964706
2226.000000	0.964719
2225.000000	0.964744
2224.000000	0.964763
2223.000000	0.964758
2222.000000	0.964737
2221.000000	0.964728
2220.000000	0.964742
2219.000000	0.964767
2218.000000	0.964783
2217.000000	0.964780
2216.000000	0.964768
2215.000000	0.964761
2214.000000	0.964764
2213.000000	0.964773
2212.000000	0.964780
2211.000000	0.964782
2210.000000	0.964782
2209.000000	0.964784
2208.000000	0.964787
2207.000000	0.964782
2206.000000	0.964770
2205.000000	0.964757
2204.000000	0.964752
2203.000000	0.964756
2202.000000	0.964758
2201.000000	0.964752
2200.000000	0.964735
2199.000000	0.964710
2198.000000	0.964685
2197.000000	0.964667
2196.000000	0.964657
2195.000000	0.964650
2194.000000	0.964636
2193.000000	0.964609
2192.000000	0.964577
2191.000000	0.964549
2190.000000	0.964529
2189.000000	0.964521
2188.000000	0.964521
2187.000000	0.964521
2186.000000	0.964510
2185.000000	0.964486
2184.000000	0.964454
2183.000000	0.964427
2182.000000	0.964406
2181.000000	0.964386
2180.000000	0.964359
2179.000000	0.964327
2178.000000	0.964300
2177.000000	0.964284
2176.000000	0.964270
2175.000000	0.964249
2174.000000	0.964223
2173.000000	0.964200
2172.000000	0.964182
2171.000000	0.964163
2170.000000	0.964138
2169.000000	0.964109
2168.000000	0.964077
2167.000000	0.964043
2166.000000	0.964007
2165.000000	0.963976
2164.000000	0.963954
2163.000000	0.963934
2162.000000	0.963903
2161.000000	0.963862
2160.000000	0.963819
2159.000000	0.963776
2158.000000	0.963725
2157.000000	0.963662
2156.000000	0.963600
2155.000000	0.963561
2154.000000	0.963552
2153.000000	0.963556
2152.000000	0.963546
2151.000000	0.963505
2150.000000	0.963440
2149.000000	0.963370
2148.000000	0.963313
2147.000000	0.963266
2146.000000	0.963220
2145.000000	0.963169
2144.000000	0.963122
2143.000000	0.963084
2142.000000	0.963046
2141.000000	0.962991
2140.000000	0.962918
2139.000000	0.962840
2138.000000	0.962777
2137.000000	0.962734
2136.000000	0.962700
2135.000000	0.962658
2134.000000	0.962601
2133.000000	0.962534
2132.000000	0.962471
2131.000000	0.962418
2130.000000	0.962374
2129.000000	0.962330
2128.000000	0.962278
2127.000000	0.962211
2126.000000	0.962132
2125.000000	0.962049
2124.000000	0.961978
2123.000000	0.961927
2122.000000	0.961886
2121.000000	0.961839
2120.000000	0.961778
2119.000000	0.961710
2118.000000	0.961648
2117.000000	0.961590
2116.000000	0.961523
2115.000000	0.961438
2114.000000	0.961347
2113.000000	0.961270
2112.000000	0.961215
2111.000000	0.961168
2110.000000	0.961104
2109.000000	0.961015
2108.000000	0.960912
2107.000000	0.960815
2106.000000	0.960734
2105.000000	0.960667
2104.000000	0.960610
2103.000000	0.960563
2102.000000	0.960519
2101.000000	0.960469
2100.000000	0.960402
2099.000000	0.960318
2098.000000	0.960225
2097.000000	0.960132
2096.000000	0.960044
2095.000000	0.959962
2094.000000	0.959887
2093.000000	0.959816
2092.000000	0.959745
2091.000000	0.959667
2090.000000	0.959579
2089.000000	0.959482
2088.000000	0.959381
2087.000000	0.959285
2086.000000	0.959200
2085.000000	0.959123
2084.000000	0.959042
2083.000000	0.958951
2082.000000	0.958855
2081.000000	0.958765
2080.000000	0.958681
2079.000000	0.958598
2078.000000	0.958509
2077.000000	0.958417
2076.000000	0.958330
2075.000000	0.958253
2074.000000	0.958185
2073.000000	0.958117
2072.000000	0.958040
2071.000000	0.957948
2070.000000	0.957847
2069.000000	0.957745
2068.000000	0.957645
2067.000000	0.957548
2066.000000	0.957455
2065.000000	0.957365
2064.000000	0.957281
2063.000000	0.957199
2062.000000	0.957116
2061.000000	0.957023
2060.000000	0.956914
2059.000000	0.956798
2058.000000	0.956695
2057.000000	0.956619
2056.000000	0.956565
2055.000000	0.956509
2054.000000	0.956431
2053.000000	0.956334
2052.000000	0.956234
2051.000000	0.956142
2050.000000	0.956062
2049.000000	0.955991
2048.000000	0.955922
2047.000000	0.955848
2046.000000	0.955765
2045.000000	0.955678
2044.000000	0.955593
2043.000000	0.955515
2042.000000	0.955437
2041.000000	0.955352
2040.000000	0.955259
2039.000000	0.955162
2038.000000	0.955067
2037.000000	0.954978
2036.000000	0.954898
2035.000000	0.954827
2034.000000	0.954761
2033.000000	0.954693
2032.000000	0.954622
2031.000000	0.954548
2030.000000	0.954470
2029.000000	0.954385
2028.000000	0.954295
2027.000000	0.954209
2026.000000	0.954135
2025.000000	0.954072
2024.000000	0.954012
2023.000000	0.953949
2022.000000	0.953883
2021.000000	0.953815
2020.000000	0.953741
2019.000000	0.953656
2018.000000	0.953562
2017.000000	0.953471
2016.000000	0.953394
2015.000000	0.953335
2014.000000	0.953288
2013.000000	0.953244
2012.000000	0.953190
2011.000000	0.953124
2010.000000	0.953051
2009.000000	0.952981
2008.000000	0.952921
2007.000000	0.952874
2006.000000	0.952833
2005.000000	0.952787
2004.000000	0.952726
2003.000000	0.952651
2002.000000	0.952573
2001.000000	0.952506
2000.000000	0.952450
1999.000000	0.952401
1998.000000	0.952351
1997.000000	0.952298
1996.000000	0.952247
1995.000000	0.952196
1994.000000	0.952142
1993.000000	0.952082
1992.000000	0.952017
1991.000000	0.951953
1990.000000	0.951893
1989.000000	0.951838
1988.000000	0.951785
1987.000000	0.951732
1986.000000	0.951679
1985.000000	0.951629
1984.000000	0.951583
1983.000000	0.951541
1982.000000	0.951508
1981.000000	0.951483
1980.000000	0.951459
1979.000000	0.951429
1978.000000	0.951386
1977.000000	0.951333
1976.000000	0.951278
1975.000000	0.951229
1974.000000	0.951189
1973.000000	0.951161
1972.000000	0.951138
1971.000000	0.951116
1970.000000	0.951084
1969.000000	0.951040
1968.000000	0.950986
1967.000000	0.950932
1966.000000	0.950890
1965.000000	0.950863
1964.000000	0.950849
1963.000000	0.950847
1962.000000	0.950853
1961.000000	0.950857
1960.000000	0.950846
1959.000000	0.950816
1958.000000	0.950780
1957.000000	0.950743
1956.000000	0.950703
1955.000000	0.950660
1954.000000	0.950624
1953.000000	0.950603
1952.000000	0.950594
1951.000000	0.950586
1950.000000	0.950581
1949.000000	0.950585
1948.000000	0.950598
1947.000000	0.950607
1946.000000	0.950600
1945.000000	0.950568
1944.000000	0.950517
1943.000000	0.950463
1942.000000	0.950423
1941.000000	0.950407
1940.000000	0.950408
1939.000000	0.950415
1938.000000	0.950423
1937.000000	0.950426
1936.000000	0.950420
1935.000000	0.950401
1934.000000	0.950376
1933.000000	0.950352
1932.000000	0.950335
1931.000000	0.950327
1930.000000	0.950330
1929.000000	0.950343
1928.000000	0.950352
1927.000000	0.950350
1926.000000	0.950341
1925.000000	0.950334
1924.000000	0.950328
1923.000000	0.950319
1922.000000	0.950309
1921.000000	0.950296
1920.000000	0.950274
1919.000000	0.950244
1918.000000	0.950232
1917.000000	0.950261
1916.000000	0.950319
1915.000000	0.950372
1914.000000	0.950399
1913.000000	0.950407
1912.000000	0.950413
1911.000000	0.950422
1910.000000	0.950435
1909.000000	0.950456
1908.000000	0.950479
1907.000000	0.950494
1906.000000	0.950495
1905.000000	0.950493
1904.000000	0.950495
1903.000000	0.950501
1902.000000	0.950508
1901.000000	0.950517
1900.000000	0.950527
1899.000000	0.950533
1898.000000	0.950532
1897.000000	0.950528
1896.000000	0.950527
1895.000000	0.950538
1894.000000	0.950562
1893.000000	0.950594
1892.000000	0.950612
1891.000000	0.950599
1890.000000	0.950568
1889.000000	0.950552
1888.000000	0.950571
1887.000000	0.950609
1886.000000	0.950648
1885.000000	0.950677
1884.000000	0.950700
1883.000000	0.950713
1882.000000	0.950715
1881.000000	0.950715
1880.000000	0.950722
1879.000000	0.950737
1878.000000	0.950761
1877.000000	0.950792
1876.000000	0.950828
1875.000000	0.950860
1874.000000	0.950883
1873.000000	0.950904
1872.000000	0.950919
1871.000000	0.950920
1870.000000	0.950907
1869.000000	0.950905
1868.000000	0.950934
1867.000000	0.950994
1866.000000	0.951067
1865.000000	0.951138
1864.000000	0.951195
1863.000000	0.951231
1862.000000	0.951246
1861.000000	0.951255
1860.000000	0.951267
1859.000000	0.951284
1858.000000	0.951307
1857.000000	0.951345
1856.000000	0.951401
1855.000000	0.951458
1854.000000	0.951503
1853.000000	0.951540
1852.000000	0.951576
1851.000000	0.951609
1850.000000	0.951629
1849.000000	0.951641
1848.000000	0.951653
1847.000000	0.951658
1846.000000	0.951640
1845.000000	0.951615
1844.000000	0.951630
1843.000000	0.951714
1842.000000	0.951842
1841.000000	0.951957
1840.000000	0.952017
1839.000000	0.952033
1838.000000	0.952040
1837.000000	0.952066
1836.000000	0.952110
1835.000000	0.952161
1834.000000	0.952206
1833.000000	0.952236
1832.000000	0.952243
1831.000000	0.952235
1830.000000	0.952246
1829.000000	0.952311
1828.000000	0.952418
1827.000000	0.952517
1826.000000	0.952573
1825.000000	0.952608
1824.000000	0.952665
1823.000000	0.952759
1822.000000	0.952870
1821.000000	0.952972
1820.000000	0.953059
1819.000000	0.953126
1818.000000	0.953179
1817.000000	0.953232
1816.000000	0.953297
1815.000000	0.953371
1814.000000	0.953436
1813.000000	0.953491
1812.000000	0.953548
1811.000000	0.953618
1810.000000	0.953697
1809.000000	0.953779
1808.000000	0.953862
1807.000000	0.953939
1806.000000	0.954006
1805.000000	0.954061
1804.000000	0.954108
1803.000000	0.954149
1802.000000	0.954184
1801.000000	0.954220
1800.000000	0.954265
1799.000000	0.954325
1798.000000	0.954404
1797.000000	0.954494
1796.000000	0.954573
1795.000000	0.954604
1794.000000	0.954577
1793.000000	0.954538
1792.000000	0.954558
1791.000000	0.954671
1790.000000	0.954841
1789.000000	0.955004
1788.000000	0.955118
1787.000000	0.955184
1786.000000	0.955231
1785.000000	0.955294
1784.000000	0.955385
1783.000000	0.955488
1782.000000	0.955580
1781.000000	0.955661
1780.000000	0.955746
1779.000000	0.955845
1778.000000	0.955950
1777.000000	0.956042
1776.000000	0.956097
1775.000000	0.956089
1774.000000	0.956031
1773.000000	0.955992
1772.000000	0.956049
1771.000000	0.956215
1770.000000	0.956417
1769.000000	0.956585
1768.000000	0.956716
1767.000000	0.956851
1766.000000	0.957003
1765.000000	0.957133
1764.000000	0.957204
1763.000000	0.957232
1762.000000	0.957275
1761.000000	0.957375
1760.000000	0.957522
1759.000000	0.957661
1758.000000	0.957757
1757.000000	0.957828
1756.000000	0.957919
1755.000000	0.958038
1754.000000	0.958136
1753.000000	0.958163
1752.000000	0.958140
1751.000000	0.958143
1750.000000	0.958228
1749.000000	0.958378
1748.000000	0.958543
1747.000000	0.958685
1746.000000	0.958798
1745.000000	0.958891
1744.000000	0.958974
1743.000000	0.959050
1742.000000	0.959110
1741.000000	0.959143
1740.000000	0.959168
1739.000000	0.959236
1738.000000	0.959352
1737.000000	0.959432
1736.000000	0.959378
1735.000000	0.959217
1734.000000	0.959119
1733.000000	0.959227
1732.000000	0.959505
1731.000000	0.959797
1730.000000	0.959993
1729.000000	0.960113
1728.000000	0.960217
1727.000000	0.960319
1726.000000	0.960397
1725.000000	0.960445
1724.000000	0.960482
1723.000000	0.960530
1722.000000	0.960583
1721.000000	0.960602
1720.000000	0.960525
1719.000000	0.960341
1718.000000	0.960140
1717.000000	0.960068
1716.000000	0.960184
1715.000000	0.960412
1714.000000	0.960639
1713.000000	0.960817
1712.000000	0.960946
1711.000000	0.961023
1710.000000	0.961046
1709.000000	0.961040
1708.000000	0.961031
1707.000000	0.961015
1706.000000	0.961001
1705.000000	0.961029
1704.000000	0.961085
1703.000000	0.961055
1702.000000	0.960851
1701.000000	0.960574
1700.000000	0.960445
1699.000000	0.960528
1698.000000	0.960656
1697.000000	0.960664
1696.000000	0.960608
1695.000000	0.960673
1694.000000	0.960916
1693.000000	0.961208
1692.000000	0.961397
1691.000000	0.961460
1690.000000	0.961466
1689.000000	0.961460
1688.000000	0.961402
1687.000000	0.961223
1686.000000	0.960930
1685.000000	0.960659
1684.000000	0.960591
1683.000000	0.960783
1682.000000	0.961104
1681.000000	0.961378
1680.000000	0.961527
1679.000000	0.961575
1678.000000	0.961549
1677.000000	0.961455
1676.000000	0.961340
1675.000000	0.961294
1674.000000	0.961354
1673.000000	0.961442
1672.000000	0.961458
1671.000000	0.961388
1670.000000	0.961312
1669.000000	0.961311
1668.000000	0.961403
1667.000000	0.961539
1666.000000	0.961644
1665.000000	0.961664
1664.000000	0.961606
1663.000000	0.961545
1662.000000	0.961555
1661.000000	0.961636
1660.000000	0.961727
1659.000000	0.961779
1658.000000	0.961792
1657.000000	0.961753
1656.000000	0.961587
1655.000000	0.961236
1654.000000	0.960806
1653.000000	0.960559
1652.000000	0.960685
1651.000000	0.961098
1650.000000	0.961504
1649.000000	0.961677
1648.000000	0.961621
1647.000000	0.961503
1646.000000	0.961480
1645.000000	0.961587
1644.000000	0.961760
1643.000000	0.961911
1642.000000	0.961990
1641.000000	0.962007
1640.000000	0.961994
1639.000000	0.961944
1638.000000	0.961813
1637.000000	0.961614
1636.000000	0.961453
1635.000000	0.961452
1634.000000	0.961619
1633.000000	0.961839
1632.000000	0.961993
1631.000000	0.962046
1630.000000	0.962033
1629.000000	0.962005
1628.000000	0.961990
1627.000000	0.961992
1626.000000	0.961983
1625.000000	0.961933
1624.000000	0.961852
1623.000000	0.961786
1622.000000	0.961779
1621.000000	0.961816
1620.000000	0.961826
1619.000000	0.961751
1618.000000	0.961612
1617.000000	0.961514
1616.000000	0.961559
1615.000000	0.961750
1614.000000	0.961978
1613.000000	0.962126
1612.000000	0.962167
1611.000000	0.962154
1610.000000	0.962139
1609.000000	0.962138
1608.000000	0.962148
1607.000000	0.962175
1606.000000	0.962208
1605.000000	0.962219
1604.000000	0.962191
1603.000000	0.962149
1602.000000	0.962126
1601.000000	0.962130
1600.000000	0.962147
1599.000000	0.962166
1598.000000	0.962187
1597.000000	0.962207
1596.000000	0.962224
1595.000000	0.962244
1594.000000	0.962269
1593.000000	0.962292
1592.000000	0.962299
1591.000000	0.962284
1590.000000	0.962257
1589.000000	0.962237
1588.000000	0.962239
1587.000000	0.962266
1586.000000	0.962309
1585.000000	0.962347
1584.000000	0.962362
1583.000000	0.962354
1582.000000	0.962339
1581.000000	0.962335
1580.000000	0.962324
1579.000000	0.962245
1578.000000	0.962057
1577.000000	0.961820
1576.000000	0.961685
1575.000000	0.961761
1574.000000	0.961993
1573.000000	0.962209
1572.000000	0.962281
1571.000000	0.962224
1570.000000	0.962146
1569.000000	0.962134
1568.000000	0.962196
1567.000000	0.962285
1566.000000	0.962352
1565.000000	0.962379
1564.000000	0.962371
1563.000000	0.962305
1562.000000	0.962104
1561.000000	0.961729
1560.000000	0.961296
1559.000000	0.961041
1558.000000	0.961114
1557.000000	0.961419
1556.000000	0.961732
1555.000000	0.961921
1554.000000	0.962016
1553.000000	0.962094
1552.000000	0.962172
1551.000000	0.962225
1550.000000	0.962259
1549.000000	0.962295
1548.000000	0.962327
1547.000000	0.962314
1546.000000	0.962235
1545.000000	0.962115
1544.000000	0.961995
1543.000000	0.961877
1542.000000	0.961730
1541.000000	0.961547
1540.000000	0.961404
1539.000000	0.961423
1538.000000	0.961640
1537.000000	0.961936
1536.000000	0.962131
1535.000000	0.962159
1534.000000	0.962108
1533.000000	0.962107
1532.000000	0.962187
1531.000000	0.962284
1530.000000	0.962334
1529.000000	0.962318
1528.000000	0.962254
1527.000000	0.962182
1526.000000	0.962141
1525.000000	0.962123
1524.000000	0.962061
1523.000000	0.961904
1522.000000	0.961710
1521.000000	0.961621
1520.000000	0.961708
1519.000000	0.961893
1518.000000	0.962050
1517.000000	0.962132
1516.000000	0.962182
1515.000000	0.962231
1514.000000	0.962262
1513.000000	0.962263
1512.000000	0.962258
1511.000000	0.962263
1510.000000	0.962229
1509.000000	0.962078
1508.000000	0.961814
1507.000000	0.961573
1506.000000	0.961529
1505.000000	0.961741
1504.000000	0.962096
1503.000000	0.962420
1502.000000	0.962617
1501.000000	0.962699
1500.000000	0.962707
