PE IR       SUBTECH     SPECTRUM    ASCII       PEDS        4.00        
   -1
TE108B1_010_100K.ASC
20/02/21
14:59:12.00
20/02/21
14:59:12.00
Administrator
Sample 010 By Administrator Date Friday, February 21 2020
1500.000000
#HDR
-1
-1
#GR
cm-1
A
1.0
0.0
4000.000000
-1.000000
2501
8
1.071536
0.985077
#DATA
4000.000000	1.000062
3999.000000	1.000075
3998.000000	1.000080
3997.000000	1.000068
3996.000000	1.000043
3995.000000	1.000022
3994.000000	1.000012
3993.000000	1.000004
3992.000000	0.999982
3991.000000	0.999940
3990.000000	0.999888
3989.000000	0.999853
3988.000000	0.999852
3987.000000	0.999885
3986.000000	0.999920
3985.000000	0.999923
3984.000000	0.999880
3983.000000	0.999806
3982.000000	0.999730
3981.000000	0.999672
3980.000000	0.999634
3979.000000	0.999607
3978.000000	0.999579
3977.000000	0.999545
3976.000000	0.999508
3975.000000	0.999472
3974.000000	0.999438
3973.000000	0.999406
3972.000000	0.999373
3971.000000	0.999330
3970.000000	0.999266
3969.000000	0.999172
3968.000000	0.999057
3967.000000	0.998944
3966.000000	0.998858
3965.000000	0.998807
3964.000000	0.998776
3963.000000	0.998743
3962.000000	0.998688
3961.000000	0.998610
3960.000000	0.998519
3959.000000	0.998423
3958.000000	0.998321
3957.000000	0.998207
3956.000000	0.998083
3955.000000	0.997962
3954.000000	0.997861
3953.000000	0.997783
3952.000000	0.997721
3951.000000	0.997658
3950.000000	0.997576
3949.000000	0.997467
3948.000000	0.997342
3947.000000	0.997217
3946.000000	0.997102
3945.000000	0.996992
3944.000000	0.996878
3943.000000	0.996767
3942.000000	0.996673
3941.000000	0.996606
3940.000000	0.996549
3939.000000	0.996472
3938.000000	0.996350
3937.000000	0.996180
3936.000000	0.995981
3935.000000	0.995785
3934.000000	0.995612
3933.000000	0.995472
3932.000000	0.995368
3931.000000	0.995291
3930.000000	0.995223
3929.000000	0.995141
3928.000000	0.995028
3927.000000	0.994890
3926.000000	0.994744
3925.000000	0.994605
3924.000000	0.994479
3923.000000	0.994359
3922.000000	0.994233
3921.000000	0.994089
3920.000000	0.993924
3919.000000	0.993750
3918.000000	0.993587
3917.000000	0.993453
3916.000000	0.993354
3915.000000	0.993278
3914.000000	0.993202
3913.000000	0.993109
3912.000000	0.992996
3911.000000	0.992872
3910.000000	0.992740
3909.000000	0.992594
3908.000000	0.992416
3907.000000	0.992195
3906.000000	0.991933
3905.000000	0.991657
3904.000000	0.991408
3903.000000	0.991218
3902.000000	0.991091
3901.000000	0.991009
3900.000000	0.990959
3899.000000	0.990938
3898.000000	0.990943
3897.000000	0.990950
3896.000000	0.990921
3895.000000	0.990822
3894.000000	0.990646
3893.000000	0.990423
3892.000000	0.990212
3891.000000	0.990070
3890.000000	0.990009
3889.000000	0.989976
3888.000000	0.989895
3887.000000	0.989737
3886.000000	0.989546
3885.000000	0.989393
3884.000000	0.989304
3883.000000	0.989233
3882.000000	0.989129
3881.000000	0.989000
3880.000000	0.988905
3879.000000	0.988878
3878.000000	0.988883
3877.000000	0.988851
3876.000000	0.988758
3875.000000	0.988638
3874.000000	0.988515
3873.000000	0.988359
3872.000000	0.988131
3871.000000	0.987858
3870.000000	0.987639
3869.000000	0.987555
3868.000000	0.987584
3867.000000	0.987624
3866.000000	0.987592
3865.000000	0.987489
3864.000000	0.987377
3863.000000	0.987308
3862.000000	0.987284
3861.000000	0.987285
3860.000000	0.987303
3859.000000	0.987315
3858.000000	0.987245
3857.000000	0.986981
3856.000000	0.986481
3855.000000	0.985861
3854.000000	0.985363
3853.000000	0.985206
3852.000000	0.985428
3851.000000	0.985872
3850.000000	0.986314
3849.000000	0.986605
3848.000000	0.986724
3847.000000	0.986727
3846.000000	0.986665
3845.000000	0.986561
3844.000000	0.986437
3843.000000	0.986313
3842.000000	0.986190
3841.000000	0.986031
3840.000000	0.985804
3839.000000	0.985543
3838.000000	0.985349
3837.000000	0.985318
3836.000000	0.985455
3835.000000	0.985668
3834.000000	0.985838
3833.000000	0.985906
3832.000000	0.985895
3831.000000	0.985862
3830.000000	0.985843
3829.000000	0.985834
3828.000000	0.985827
3827.000000	0.985825
3826.000000	0.985828
3825.000000	0.985799
3824.000000	0.985683
3823.000000	0.985475
3822.000000	0.985257
3821.000000	0.985150
3820.000000	0.985189
3819.000000	0.985286
3818.000000	0.985304
3817.000000	0.985205
3816.000000	0.985091
3815.000000	0.985103
3814.000000	0.985282
3813.000000	0.985539
3812.000000	0.985748
3811.000000	0.985830
3810.000000	0.985769
3809.000000	0.985592
3808.000000	0.985375
3807.000000	0.985229
3806.000000	0.985227
3805.000000	0.985323
3804.000000	0.985380
3803.000000	0.985302
3802.000000	0.985147
3801.000000	0.985077
3800.000000	0.985197
3799.000000	0.985460
3798.000000	0.985731
3797.000000	0.985916
3796.000000	0.986027
3795.000000	0.986127
3794.000000	0.986250
3793.000000	0.986378
3792.000000	0.986476
3791.000000	0.986525
3790.000000	0.986534
3789.000000	0.986522
3788.000000	0.986511
3787.000000	0.986520
3786.000000	0.986562
3785.000000	0.986631
3784.000000	0.986715
3783.000000	0.986793
3782.000000	0.986846
3781.000000	0.986868
3780.000000	0.986879
3779.000000	0.986913
3778.000000	0.986996
3777.000000	0.987118
3776.000000	0.987246
3775.000000	0.987346
3774.000000	0.987401
3773.000000	0.987410
3772.000000	0.987383
3771.000000	0.987351
3770.000000	0.987355
3769.000000	0.987417
3768.000000	0.987520
3767.000000	0.987629
3766.000000	0.987732
3765.000000	0.987837
3764.000000	0.987948
3763.000000	0.988045
3762.000000	0.988097
3761.000000	0.988098
3760.000000	0.988077
3759.000000	0.988085
3758.000000	0.988153
3757.000000	0.988267
3756.000000	0.988359
3755.000000	0.988350
3754.000000	0.988209
3753.000000	0.987987
3752.000000	0.987793
3751.000000	0.987741
3750.000000	0.987881
3749.000000	0.988158
3748.000000	0.988420
3747.000000	0.988497
3746.000000	0.988347
3745.000000	0.988122
3744.000000	0.988075
3743.000000	0.988345
3742.000000	0.988835
3741.000000	0.989311
3740.000000	0.989589
3739.000000	0.989645
3738.000000	0.989567
3737.000000	0.989472
3736.000000	0.989440
3735.000000	0.989508
3734.000000	0.989665
3733.000000	0.989878
3732.000000	0.990126
3731.000000	0.990405
3730.000000	0.990696
3729.000000	0.990953
3728.000000	0.991134
3727.000000	0.991249
3726.000000	0.991354
3725.000000	0.991494
3724.000000	0.991674
3723.000000	0.991877
3722.000000	0.992093
3721.000000	0.992317
3720.000000	0.992542
3719.000000	0.992760
3718.000000	0.992979
3717.000000	0.993206
3716.000000	0.993423
3715.000000	0.993591
3714.000000	0.993693
3713.000000	0.993770
3712.000000	0.993901
3711.000000	0.994147
3710.000000	0.994507
3709.000000	0.994934
3708.000000	0.995385
3707.000000	0.995839
3706.000000	0.996280
3705.000000	0.996688
3704.000000	0.997049
3703.000000	0.997386
3702.000000	0.997753
3701.000000	0.998195
3700.000000	0.998708
3699.000000	0.999250
3698.000000	0.999780
3697.000000	1.000279
3696.000000	1.000747
3695.000000	1.001191
3694.000000	1.001617
3693.000000	1.002028
3692.000000	1.002408
3691.000000	1.002742
3690.000000	1.003053
3689.000000	1.003431
3688.000000	1.003980
3687.000000	1.004733
3686.000000	1.005604
3685.000000	1.006458
3684.000000	1.007210
3683.000000	1.007874
3682.000000	1.008518
3681.000000	1.009193
3680.000000	1.009884
3679.000000	1.010526
3678.000000	1.011068
3677.000000	1.011547
3676.000000	1.012092
3675.000000	1.012828
3674.000000	1.013742
3673.000000	1.014684
3672.000000	1.015506
3671.000000	1.016214
3670.000000	1.016950
3669.000000	1.017838
3668.000000	1.018864
3667.000000	1.019906
3666.000000	1.020851
3665.000000	1.021667
3664.000000	1.022394
3663.000000	1.023095
3662.000000	1.023814
3661.000000	1.024560
3660.000000	1.025300
3659.000000	1.025995
3658.000000	1.026644
3657.000000	1.027298
3656.000000	1.028016
3655.000000	1.028799
3654.000000	1.029565
3653.000000	1.030211
3652.000000	1.030701
3651.000000	1.031103
3650.000000	1.031538
3649.000000	1.032102
3648.000000	1.032806
3647.000000	1.033598
3646.000000	1.034403
3645.000000	1.035157
3644.000000	1.035821
3643.000000	1.036397
3642.000000	1.036911
3641.000000	1.037400
3640.000000	1.037884
3639.000000	1.038366
3638.000000	1.038836
3637.000000	1.039284
3636.000000	1.039713
3635.000000	1.040138
3634.000000	1.040565
3633.000000	1.040956
3632.000000	1.041236
3631.000000	1.041371
3630.000000	1.041437
3629.000000	1.041599
3628.000000	1.041975
3627.000000	1.042532
3626.000000	1.043126
3625.000000	1.043625
3624.000000	1.043991
3623.000000	1.044250
3622.000000	1.044431
3621.000000	1.044557
3620.000000	1.044670
3619.000000	1.044828
3618.000000	1.045064
3617.000000	1.045349
3616.000000	1.045623
3615.000000	1.045842
3614.000000	1.046007
3613.000000	1.046140
3612.000000	1.046263
3611.000000	1.046387
3610.000000	1.046535
3609.000000	1.046733
3608.000000	1.046991
3607.000000	1.047275
3606.000000	1.047533
3605.000000	1.047729
3604.000000	1.047863
3603.000000	1.047966
3602.000000	1.048066
3601.000000	1.048174
3600.000000	1.048285
3599.000000	1.048389
3598.000000	1.048479
3597.000000	1.048560
3596.000000	1.048642
3595.000000	1.048735
3594.000000	1.048836
3593.000000	1.048934
3592.000000	1.049011
3591.000000	1.049050
3590.000000	1.049050
3589.000000	1.049032
3588.000000	1.049037
3587.000000	1.049104
3586.000000	1.049233
3585.000000	1.049391
3584.000000	1.049525
3583.000000	1.049611
3582.000000	1.049656
3581.000000	1.049693
3580.000000	1.049747
3579.000000	1.049821
3578.000000	1.049894
3577.000000	1.049942
3576.000000	1.049955
3575.000000	1.049940
3574.000000	1.049917
3573.000000	1.049901
3572.000000	1.049894
3571.000000	1.049878
3570.000000	1.049831
3569.000000	1.049758
3568.000000	1.049698
3567.000000	1.049701
3566.000000	1.049782
3565.000000	1.049910
3564.000000	1.050032
3563.000000	1.050117
3562.000000	1.050166
3561.000000	1.050199
3560.000000	1.050235
3559.000000	1.050274
3558.000000	1.050309
3557.000000	1.050333
3556.000000	1.050350
3555.000000	1.050369
3554.000000	1.050398
3553.000000	1.050435
3552.000000	1.050473
3551.000000	1.050504
3550.000000	1.050525
3549.000000	1.050532
3548.000000	1.050528
3547.000000	1.050519
3546.000000	1.050513
3545.000000	1.050514
3544.000000	1.050527
3543.000000	1.050558
3542.000000	1.050613
3541.000000	1.050687
3540.000000	1.050772
3539.000000	1.050855
3538.000000	1.050927
3537.000000	1.050987
3536.000000	1.051040
3535.000000	1.051093
3534.000000	1.051147
3533.000000	1.051197
3532.000000	1.051242
3531.000000	1.051278
3530.000000	1.051305
3529.000000	1.051322
3528.000000	1.051334
3527.000000	1.051353
3526.000000	1.051389
3525.000000	1.051436
3524.000000	1.051481
3523.000000	1.051518
3522.000000	1.051552
3521.000000	1.051597
3520.000000	1.051663
3519.000000	1.051752
3518.000000	1.051858
3517.000000	1.051968
3516.000000	1.052063
3515.000000	1.052130
3514.000000	1.052168
3513.000000	1.052195
3512.000000	1.052232
3511.000000	1.052292
3510.000000	1.052376
3509.000000	1.052473
3508.000000	1.052571
3507.000000	1.052666
3506.000000	1.052758
3505.000000	1.052845
3504.000000	1.052922
3503.000000	1.052993
3502.000000	1.053063
3501.000000	1.053138
3500.000000	1.053217
3499.000000	1.053293
3498.000000	1.053370
3497.000000	1.053461
3496.000000	1.053578
3495.000000	1.053715
3494.000000	1.053848
3493.000000	1.053953
3492.000000	1.054025
3491.000000	1.054079
3490.000000	1.054136
3489.000000	1.054205
3488.000000	1.054285
3487.000000	1.054375
3486.000000	1.054472
3485.000000	1.054575
3484.000000	1.054675
3483.000000	1.054766
3482.000000	1.054851
3481.000000	1.054939
3480.000000	1.055042
3479.000000	1.055163
3478.000000	1.055295
3477.000000	1.055424
3476.000000	1.055545
3475.000000	1.055664
3474.000000	1.055791
3473.000000	1.055928
3472.000000	1.056069
3471.000000	1.056203
3470.000000	1.056321
3469.000000	1.056425
3468.000000	1.056526
3467.000000	1.056645
3466.000000	1.056793
3465.000000	1.056956
3464.000000	1.057104
3463.000000	1.057216
3462.000000	1.057305
3461.000000	1.057406
3460.000000	1.057541
3459.000000	1.057702
3458.000000	1.057859
3457.000000	1.057994
3456.000000	1.058113
3455.000000	1.058235
3454.000000	1.058366
3453.000000	1.058500
3452.000000	1.058634
3451.000000	1.058775
3450.000000	1.058933
3449.000000	1.059107
3448.000000	1.059285
3447.000000	1.059459
3446.000000	1.059627
3445.000000	1.059788
3444.000000	1.059945
3443.000000	1.060094
3442.000000	1.060231
3441.000000	1.060351
3440.000000	1.060456
3439.000000	1.060561
3438.000000	1.060681
3437.000000	1.060811
3436.000000	1.060936
3435.000000	1.061052
3434.000000	1.061178
3433.000000	1.061336
3432.000000	1.061524
3431.000000	1.061711
3430.000000	1.061864
3429.000000	1.061978
3428.000000	1.062079
3427.000000	1.062197
3426.000000	1.062339
3425.000000	1.062483
3424.000000	1.062603
3423.000000	1.062700
3422.000000	1.062802
3421.000000	1.062941
3420.000000	1.063121
3419.000000	1.063308
3418.000000	1.063456
3417.000000	1.063551
3416.000000	1.063617
3415.000000	1.063695
3414.000000	1.063800
3413.000000	1.063918
3412.000000	1.064028
3411.000000	1.064127
3410.000000	1.064221
3409.000000	1.064311
3408.000000	1.064392
3407.000000	1.064470
3406.000000	1.064559
3405.000000	1.064666
3404.000000	1.064775
3403.000000	1.064869
3402.000000	1.064946
3401.000000	1.065019
3400.000000	1.065096
3399.000000	1.065163
3398.000000	1.065209
3397.000000	1.065242
3396.000000	1.065283
3395.000000	1.065344
3394.000000	1.065416
3393.000000	1.065481
3392.000000	1.065533
3391.000000	1.065592
3390.000000	1.065683
3389.000000	1.065809
3388.000000	1.065943
3387.000000	1.066043
3386.000000	1.066093
3385.000000	1.066108
3384.000000	1.066115
3383.000000	1.066134
3382.000000	1.066163
3381.000000	1.066193
3380.000000	1.066222
3379.000000	1.066257
3378.000000	1.066305
3377.000000	1.066364
3376.000000	1.066427
3375.000000	1.066483
3374.000000	1.066532
3373.000000	1.066579
3372.000000	1.066624
3371.000000	1.066660
3370.000000	1.066682
3369.000000	1.066693
3368.000000	1.066705
3367.000000	1.066721
3366.000000	1.066738
3365.000000	1.066760
3364.000000	1.066802
3363.000000	1.066870
3362.000000	1.066946
3361.000000	1.066999
3360.000000	1.067016
3359.000000	1.067013
3358.000000	1.067020
3357.000000	1.067055
3356.000000	1.067114
3355.000000	1.067186
3354.000000	1.067263
3353.000000	1.067335
3352.000000	1.067383
3351.000000	1.067391
3350.000000	1.067366
3349.000000	1.067331
3348.000000	1.067316
3347.000000	1.067327
3346.000000	1.067355
3345.000000	1.067389
3344.000000	1.067432
3343.000000	1.067483
3342.000000	1.067527
3341.000000	1.067544
3340.000000	1.067534
3339.000000	1.067513
3338.000000	1.067504
3337.000000	1.067514
3336.000000	1.067530
3335.000000	1.067543
3334.000000	1.067549
3333.000000	1.067555
3332.000000	1.067577
3331.000000	1.067623
3330.000000	1.067690
3329.000000	1.067757
3328.000000	1.067801
3327.000000	1.067817
3326.000000	1.067824
3325.000000	1.067839
3324.000000	1.067869
3323.000000	1.067906
3322.000000	1.067950
3321.000000	1.068003
3320.000000	1.068065
3319.000000	1.068125
3318.000000	1.068169
3317.000000	1.068196
3316.000000	1.068216
3315.000000	1.068243
3314.000000	1.068286
3313.000000	1.068342
3312.000000	1.068399
3311.000000	1.068440
3310.000000	1.068455
3309.000000	1.068445
3308.000000	1.068425
3307.000000	1.068413
3306.000000	1.068424
3305.000000	1.068468
3304.000000	1.068544
3303.000000	1.068639
3302.000000	1.068727
3301.000000	1.068787
3300.000000	1.068819
3299.000000	1.068835
3298.000000	1.068853
3297.000000	1.068880
3296.000000	1.068910
3295.000000	1.068933
3294.000000	1.068946
3293.000000	1.068953
3292.000000	1.068964
3291.000000	1.068993
3290.000000	1.069046
3289.000000	1.069124
3288.000000	1.069220
3287.000000	1.069317
3286.000000	1.069390
3285.000000	1.069421
3284.000000	1.069417
3283.000000	1.069403
3282.000000	1.069403
3281.000000	1.069429
3280.000000	1.069478
3279.000000	1.069542
3278.000000	1.069608
3277.000000	1.069663
3276.000000	1.069696
3275.000000	1.069714
3274.000000	1.069734
3273.000000	1.069762
3272.000000	1.069794
3271.000000	1.069824
3270.000000	1.069860
3269.000000	1.069913
3268.000000	1.069978
3267.000000	1.070028
3266.000000	1.070040
3265.000000	1.070016
3264.000000	1.069990
3263.000000	1.069996
3262.000000	1.070039
3261.000000	1.070090
3260.000000	1.070119
3259.000000	1.070119
3258.000000	1.070115
3257.000000	1.070136
3256.000000	1.070189
3255.000000	1.070255
3254.000000	1.070309
3253.000000	1.070347
3252.000000	1.070385
3251.000000	1.070436
3250.000000	1.070491
3249.000000	1.070525
3248.000000	1.070525
3247.000000	1.070507
3246.000000	1.070499
3245.000000	1.070515
3244.000000	1.070552
3243.000000	1.070599
3242.000000	1.070655
3241.000000	1.070714
3240.000000	1.070765
3239.000000	1.070797
3238.000000	1.070811
3237.000000	1.070818
3236.000000	1.070825
3235.000000	1.070836
3234.000000	1.070861
3233.000000	1.070910
3232.000000	1.070979
3231.000000	1.071046
3230.000000	1.071091
3229.000000	1.071121
3228.000000	1.071153
3227.000000	1.071200
3226.000000	1.071253
3225.000000	1.071299
3224.000000	1.071334
3223.000000	1.071359
3222.000000	1.071382
3221.000000	1.071411
3220.000000	1.071450
3219.000000	1.071490
3218.000000	1.071513
3217.000000	1.071512
3216.000000	1.071495
3215.000000	1.071479
3214.000000	1.071475
3213.000000	1.071479
3212.000000	1.071478
3211.000000	1.071471
3210.000000	1.071461
3209.000000	1.071457
3208.000000	1.071466
3207.000000	1.071487
3206.000000	1.071515
3205.000000	1.071536
3204.000000	1.071536
3203.000000	1.071508
3202.000000	1.071460
3201.000000	1.071416
3200.000000	1.071396
3199.000000	1.071402
3198.000000	1.071418
3197.000000	1.071424
3196.000000	1.071416
3195.000000	1.071407
3194.000000	1.071408
3193.000000	1.071417
3192.000000	1.071424
3191.000000	1.071426
3190.000000	1.071426
3189.000000	1.071429
3188.000000	1.071428
3187.000000	1.071411
3186.000000	1.071379
3185.000000	1.071343
3184.000000	1.071312
3183.000000	1.071284
3182.000000	1.071252
3181.000000	1.071223
3180.000000	1.071208
3179.000000	1.071216
3178.000000	1.071240
3177.000000	1.071266
3176.000000	1.071287
3175.000000	1.071302
3174.000000	1.071305
3173.000000	1.071287
3172.000000	1.071250
3171.000000	1.071215
3170.000000	1.071202
3169.000000	1.071219
3168.000000	1.071249
3167.000000	1.071267
3166.000000	1.071260
3165.000000	1.071231
3164.000000	1.071198
3163.000000	1.071176
3162.000000	1.071167
3161.000000	1.071159
3160.000000	1.071143
3159.000000	1.071122
3158.000000	1.071115
3157.000000	1.071127
3156.000000	1.071149
3155.000000	1.071166
3154.000000	1.071174
3153.000000	1.071183
3152.000000	1.071204
3151.000000	1.071233
3150.000000	1.071263
3149.000000	1.071290
3148.000000	1.071312
3147.000000	1.071323
3146.000000	1.071319
3145.000000	1.071298
3144.000000	1.071264
3143.000000	1.071228
3142.000000	1.071203
3141.000000	1.071199
3140.000000	1.071209
3139.000000	1.071214
3138.000000	1.071198
3137.000000	1.071166
3136.000000	1.071139
3135.000000	1.071141
3134.000000	1.071177
3133.000000	1.071231
3132.000000	1.071278
3131.000000	1.071299
3130.000000	1.071296
3129.000000	1.071280
3128.000000	1.071260
3127.000000	1.071235
3126.000000	1.071207
3125.000000	1.071184
3124.000000	1.071181
3123.000000	1.071199
3122.000000	1.071224
3121.000000	1.071235
3120.000000	1.071222
3119.000000	1.071192
3118.000000	1.071158
3117.000000	1.071133
3116.000000	1.071123
3115.000000	1.071129
3114.000000	1.071150
3113.000000	1.071174
3112.000000	1.071184
3111.000000	1.071162
3110.000000	1.071110
3109.000000	1.071053
3108.000000	1.071014
3107.000000	1.070996
3106.000000	1.070979
3105.000000	1.070940
3104.000000	1.070872
3103.000000	1.070789
3102.000000	1.070706
3101.000000	1.070638
3100.000000	1.070584
3099.000000	1.070537
3098.000000	1.070493
3097.000000	1.070456
3096.000000	1.070441
3095.000000	1.070452
3094.000000	1.070470
3093.000000	1.070463
3092.000000	1.070406
3091.000000	1.070298
3090.000000	1.070167
3089.000000	1.070054
3088.000000	1.069981
3087.000000	1.069939
3086.000000	1.069895
3085.000000	1.069826
3084.000000	1.069735
3083.000000	1.069638
3082.000000	1.069542
3081.000000	1.069443
3080.000000	1.069346
3079.000000	1.069266
3078.000000	1.069213
3077.000000	1.069182
3076.000000	1.069162
3075.000000	1.069135
3074.000000	1.069084
3073.000000	1.069005
3072.000000	1.068913
3071.000000	1.068829
3070.000000	1.068758
3069.000000	1.068691
3068.000000	1.068619
3067.000000	1.068542
3066.000000	1.068459
3065.000000	1.068363
3064.000000	1.068257
3063.000000	1.068158
3062.000000	1.068079
3061.000000	1.068017
3060.000000	1.067955
3059.000000	1.067884
3058.000000	1.067806
3057.000000	1.067730
3056.000000	1.067660
3055.000000	1.067599
3054.000000	1.067543
3053.000000	1.067484
3052.000000	1.067409
3051.000000	1.067322
3050.000000	1.067235
3049.000000	1.067161
3048.000000	1.067097
3047.000000	1.067033
3046.000000	1.066959
3045.000000	1.066876
3044.000000	1.066791
3043.000000	1.066715
3042.000000	1.066655
3041.000000	1.066608
3040.000000	1.066557
3039.000000	1.066491
3038.000000	1.066405
3037.000000	1.066311
3036.000000	1.066219
3035.000000	1.066139
3034.000000	1.066072
3033.000000	1.066016
3032.000000	1.065962
3031.000000	1.065902
3030.000000	1.065834
3029.000000	1.065763
3028.000000	1.065696
3027.000000	1.065632
3026.000000	1.065562
3025.000000	1.065481
3024.000000	1.065390
3023.000000	1.065292
3022.000000	1.065186
3021.000000	1.065068
3020.000000	1.064943
3019.000000	1.064821
3018.000000	1.064703
3017.000000	1.064579
3016.000000	1.064451
3015.000000	1.064337
3014.000000	1.064255
3013.000000	1.064204
3012.000000	1.064157
3011.000000	1.064093
3010.000000	1.064010
3009.000000	1.063918
3008.000000	1.063822
3007.000000	1.063716
3006.000000	1.063592
3005.000000	1.063445
3004.000000	1.063288
3003.000000	1.063141
3002.000000	1.063016
3001.000000	1.062911
3000.000000	1.062811
2999.000000	1.062705
2998.000000	1.062591
2997.000000	1.062467
2996.000000	1.062329
2995.000000	1.062174
2994.000000	1.062013
2993.000000	1.061856
2992.000000	1.061705
2991.000000	1.061561
2990.000000	1.061422
2989.000000	1.061290
2988.000000	1.061156
2987.000000	1.061019
2986.000000	1.060883
2985.000000	1.060755
2984.000000	1.060627
2983.000000	1.060486
2982.000000	1.060328
2981.000000	1.060171
2980.000000	1.060037
2979.000000	1.059930
2978.000000	1.059836
2977.000000	1.059725
2976.000000	1.059582
2975.000000	1.059414
2974.000000	1.059249
2973.000000	1.059107
2972.000000	1.058985
2971.000000	1.058862
2970.000000	1.058725
2969.000000	1.058573
2968.000000	1.058407
2967.000000	1.058221
2966.000000	1.058013
2965.000000	1.057799
2964.000000	1.057602
2963.000000	1.057430
2962.000000	1.057276
2961.000000	1.057121
2960.000000	1.056947
2959.000000	1.056748
2958.000000	1.056533
2957.000000	1.056321
2956.000000	1.056117
2955.000000	1.055912
2954.000000	1.055702
2953.000000	1.055500
2952.000000	1.055319
2951.000000	1.055149
2950.000000	1.054963
2949.000000	1.054743
2948.000000	1.054502
2947.000000	1.054269
2946.000000	1.054062
2945.000000	1.053879
2944.000000	1.053698
2943.000000	1.053500
2942.000000	1.053287
2941.000000	1.053078
2940.000000	1.052893
2939.000000	1.052724
2938.000000	1.052545
2937.000000	1.052341
2936.000000	1.052125
2935.000000	1.051927
2934.000000	1.051759
2933.000000	1.051600
2932.000000	1.051416
2931.000000	1.051192
2930.000000	1.050945
2929.000000	1.050704
2928.000000	1.050485
2927.000000	1.050278
2926.000000	1.050061
2925.000000	1.049823
2924.000000	1.049571
2923.000000	1.049319
2922.000000	1.049075
2921.000000	1.048838
2920.000000	1.048611
2919.000000	1.048403
2918.000000	1.048216
2917.000000	1.048038
2916.000000	1.047852
2915.000000	1.047653
2914.000000	1.047444
2913.000000	1.047233
2912.000000	1.047019
2911.000000	1.046805
2910.000000	1.046594
2909.000000	1.046385
2908.000000	1.046172
2907.000000	1.045954
2906.000000	1.045737
2905.000000	1.045527
2904.000000	1.045322
2903.000000	1.045116
2902.000000	1.044910
2901.000000	1.044708
2900.000000	1.044511
2899.000000	1.044315
2898.000000	1.044113
2897.000000	1.043904
2896.000000	1.043683
2895.000000	1.043450
2894.000000	1.043220
2893.000000	1.043015
2892.000000	1.042847
2891.000000	1.042705
2890.000000	1.042559
2889.000000	1.042387
2888.000000	1.042188
2887.000000	1.041974
2886.000000	1.041764
2885.000000	1.041569
2884.000000	1.041385
2883.000000	1.041201
2882.000000	1.041015
2881.000000	1.040832
2880.000000	1.040657
2879.000000	1.040476
2878.000000	1.040275
2877.000000	1.040058
2876.000000	1.039849
2875.000000	1.039669
2874.000000	1.039515
2873.000000	1.039369
2872.000000	1.039210
2871.000000	1.039032
2870.000000	1.038836
2869.000000	1.038635
2868.000000	1.038443
2867.000000	1.038266
2866.000000	1.038098
2865.000000	1.037923
2864.000000	1.037735
2863.000000	1.037543
2862.000000	1.037356
2861.000000	1.037174
2860.000000	1.036990
2859.000000	1.036803
2858.000000	1.036620
2857.000000	1.036450
2856.000000	1.036295
2855.000000	1.036150
2854.000000	1.036013
2853.000000	1.035881
2852.000000	1.035745
2851.000000	1.035592
2850.000000	1.035420
2849.000000	1.035245
2848.000000	1.035090
2847.000000	1.034960
2846.000000	1.034842
2845.000000	1.034723
2844.000000	1.034602
2843.000000	1.034490
2842.000000	1.034388
2841.000000	1.034284
2840.000000	1.034167
2839.000000	1.034037
2838.000000	1.033904
2837.000000	1.033772
2836.000000	1.033645
2835.000000	1.033522
2834.000000	1.033409
2833.000000	1.033312
2832.000000	1.033231
2831.000000	1.033150
2830.000000	1.033052
2829.000000	1.032930
2828.000000	1.032791
2827.000000	1.032658
2826.000000	1.032544
2825.000000	1.032446
2824.000000	1.032352
2823.000000	1.032252
2822.000000	1.032137
2821.000000	1.032010
2820.000000	1.031880
2819.000000	1.031763
2818.000000	1.031666
2817.000000	1.031580
2816.000000	1.031482
2815.000000	1.031365
2814.000000	1.031245
2813.000000	1.031145
2812.000000	1.031070
2811.000000	1.031006
2810.000000	1.030934
2809.000000	1.030848
2808.000000	1.030751
2807.000000	1.030655
2806.000000	1.030567
2805.000000	1.030487
2804.000000	1.030409
2803.000000	1.030331
2802.000000	1.030247
2801.000000	1.030154
2800.000000	1.030051
2799.000000	1.029948
2798.000000	1.029860
2797.000000	1.029793
2796.000000	1.029732
2795.000000	1.029661
2794.000000	1.029578
2793.000000	1.029496
2792.000000	1.029420
2791.000000	1.029344
2790.000000	1.029254
2789.000000	1.029157
2788.000000	1.029070
2787.000000	1.029005
2786.000000	1.028959
2785.000000	1.028920
2784.000000	1.028882
2783.000000	1.028844
2782.000000	1.028805
2781.000000	1.028758
2780.000000	1.028697
2779.000000	1.028623
2778.000000	1.028549
2777.000000	1.028488
2776.000000	1.028437
2775.000000	1.028386
2774.000000	1.028328
2773.000000	1.028262
2772.000000	1.028190
2771.000000	1.028113
2770.000000	1.028041
2769.000000	1.027986
2768.000000	1.027954
2767.000000	1.027937
2766.000000	1.027916
2765.000000	1.027877
2764.000000	1.027819
2763.000000	1.027752
2762.000000	1.027692
2761.000000	1.027649
2760.000000	1.027620
2759.000000	1.027590
2758.000000	1.027551
2757.000000	1.027506
2756.000000	1.027469
2755.000000	1.027444
2754.000000	1.027425
2753.000000	1.027402
2752.000000	1.027372
2751.000000	1.027336
2750.000000	1.027301
2749.000000	1.027276
2748.000000	1.027266
2747.000000	1.027258
2746.000000	1.027235
2745.000000	1.027196
2744.000000	1.027152
2743.000000	1.027115
2742.000000	1.027082
2741.000000	1.027040
2740.000000	1.026989
2739.000000	1.026945
2738.000000	1.026926
2737.000000	1.026931
2736.000000	1.026947
2735.000000	1.026954
2734.000000	1.026945
2733.000000	1.026926
2732.000000	1.026910
2731.000000	1.026900
2730.000000	1.026886
2729.000000	1.026857
2728.000000	1.026816
2727.000000	1.026780
2726.000000	1.026769
2725.000000	1.026791
2724.000000	1.026837
2723.000000	1.026884
2722.000000	1.026904
2721.000000	1.026884
2720.000000	1.026837
2719.000000	1.026792
2718.000000	1.026769
2717.000000	1.026767
2716.000000	1.026772
2715.000000	1.026773
2714.000000	1.026771
2713.000000	1.026772
2712.000000	1.026775
2711.000000	1.026776
2710.000000	1.026776
2709.000000	1.026781
2708.000000	1.026793
2707.000000	1.026806
2706.000000	1.026808
2705.000000	1.026801
2704.000000	1.026798
2703.000000	1.026817
2702.000000	1.026862
2701.000000	1.026916
2700.000000	1.026958
2699.000000	1.026981
2698.000000	1.026995
2697.000000	1.027012
2696.000000	1.027036
2695.000000	1.027068
2694.000000	1.027105
2693.000000	1.027148
2692.000000	1.027191
2691.000000	1.027227
2690.000000	1.027251
2689.000000	1.027261
2688.000000	1.027258
2687.000000	1.027248
2686.000000	1.027244
2685.000000	1.027259
2684.000000	1.027292
2683.000000	1.027334
2682.000000	1.027377
2681.000000	1.027425
2680.000000	1.027482
2679.000000	1.027546
2678.000000	1.027613
2677.000000	1.027681
2676.000000	1.027745
2675.000000	1.027797
2674.000000	1.027831
2673.000000	1.027851
2672.000000	1.027865
2671.000000	1.027885
2670.000000	1.027916
2669.000000	1.027961
2668.000000	1.028021
2667.000000	1.028090
2666.000000	1.028159
2665.000000	1.028221
2664.000000	1.028275
2663.000000	1.028321
2662.000000	1.028361
2661.000000	1.028400
2660.000000	1.028446
2659.000000	1.028503
2658.000000	1.028570
2657.000000	1.028640
2656.000000	1.028712
2655.000000	1.028791
2654.000000	1.028879
2653.000000	1.028973
2652.000000	1.029062
2651.000000	1.029147
2650.000000	1.029229
2649.000000	1.029312
2648.000000	1.029392
2647.000000	1.029465
2646.000000	1.029532
2645.000000	1.029599
2644.000000	1.029674
2643.000000	1.029759
2642.000000	1.029858
2641.000000	1.029971
2640.000000	1.030085
2639.000000	1.030181
2638.000000	1.030246
2637.000000	1.030297
2636.000000	1.030361
2635.000000	1.030454
2634.000000	1.030568
2633.000000	1.030680
2632.000000	1.030770
2631.000000	1.030836
2630.000000	1.030892
2629.000000	1.030962
2628.000000	1.031061
2627.000000	1.031184
2626.000000	1.031305
2625.000000	1.031399
2624.000000	1.031466
2623.000000	1.031526
2622.000000	1.031600
2621.000000	1.031698
2620.000000	1.031817
2619.000000	1.031950
2618.000000	1.032083
2617.000000	1.032204
2616.000000	1.032309
2615.000000	1.032409
2614.000000	1.032512
2613.000000	1.032621
2612.000000	1.032726
2611.000000	1.032819
2610.000000	1.032905
2609.000000	1.032996
2608.000000	1.033102
2607.000000	1.033221
2606.000000	1.033344
2605.000000	1.033460
2604.000000	1.033573
2603.000000	1.033690
2602.000000	1.033818
2601.000000	1.033951
2600.000000	1.034075
2599.000000	1.034184
2598.000000	1.034283
2597.000000	1.034384
2596.000000	1.034491
2595.000000	1.034597
2594.000000	1.034699
2593.000000	1.034802
2592.000000	1.034917
2591.000000	1.035047
2590.000000	1.035186
2589.000000	1.035322
2588.000000	1.035446
2587.000000	1.035555
2586.000000	1.035656
2585.000000	1.035762
2584.000000	1.035887
2583.000000	1.036032
2582.000000	1.036179
2581.000000	1.036305
2580.000000	1.036407
2579.000000	1.036509
2578.000000	1.036635
2577.000000	1.036784
2576.000000	1.036937
2575.000000	1.037075
2574.000000	1.037197
2573.000000	1.037321
2572.000000	1.037460
2571.000000	1.037614
2570.000000	1.037770
2569.000000	1.037914
2568.000000	1.038040
2567.000000	1.038160
2566.000000	1.038288
2565.000000	1.038433
2564.000000	1.038586
2563.000000	1.038733
2562.000000	1.038866
2561.000000	1.038991
2560.000000	1.039120
2559.000000	1.039265
2558.000000	1.039431
2557.000000	1.039613
2556.000000	1.039804
2555.000000	1.039996
2554.000000	1.040185
2553.000000	1.040367
2552.000000	1.040538
2551.000000	1.040697
2550.000000	1.040844
2549.000000	1.040983
2548.000000	1.041119
2547.000000	1.041255
2546.000000	1.041394
2545.000000	1.041539
2544.000000	1.041696
2543.000000	1.041871
2542.000000	1.042061
2541.000000	1.042257
2540.000000	1.042447
2539.000000	1.042627
2538.000000	1.042799
2537.000000	1.042967
2536.000000	1.043132
2535.000000	1.043296
2534.000000	1.043462
2533.000000	1.043637
2532.000000	1.043819
2531.000000	1.044002
2530.000000	1.044181
2529.000000	1.044356
2528.000000	1.044528
2527.000000	1.044700
2526.000000	1.044872
2525.000000	1.045052
2524.000000	1.045243
2523.000000	1.045443
2522.000000	1.045640
2521.000000	1.045826
2520.000000	1.045997
2519.000000	1.046156
2518.000000	1.046316
2517.000000	1.046488
2516.000000	1.046674
2515.000000	1.046867
2514.000000	1.047058
2513.000000	1.047243
2512.000000	1.047423
2511.000000	1.047599
2510.000000	1.047763
2509.000000	1.047911
2508.000000	1.048045
2507.000000	1.048177
2506.000000	1.048320
2505.000000	1.048474
2504.000000	1.048626
2503.000000	1.048763
2502.000000	1.048884
2501.000000	1.049006
2500.000000	1.049148
2499.000000	1.049309
2498.000000	1.049473
2497.000000	1.049625
2496.000000	1.049762
2495.000000	1.049886
2494.000000	1.050001
2493.000000	1.050113
2492.000000	1.050235
2491.000000	1.050368
2490.000000	1.050497
2489.000000	1.050603
2488.000000	1.050682
2487.000000	1.050752
2486.000000	1.050829
2485.000000	1.050917
2484.000000	1.051010
2483.000000	1.051105
2482.000000	1.051205
2481.000000	1.051310
2480.000000	1.051415
2479.000000	1.051507
2478.000000	1.051575
2477.000000	1.051621
2476.000000	1.051657
2475.000000	1.051700
2474.000000	1.051753
2473.000000	1.051803
2472.000000	1.051841
2471.000000	1.051871
2470.000000	1.051904
2469.000000	1.051942
2468.000000	1.051981
2467.000000	1.052020
2466.000000	1.052071
2465.000000	1.052133
2464.000000	1.052192
2463.000000	1.052233
2462.000000	1.052250
2461.000000	1.052258
2460.000000	1.052269
2459.000000	1.052292
2458.000000	1.052322
2457.000000	1.052351
2456.000000	1.052366
2455.000000	1.052362
2454.000000	1.052343
2453.000000	1.052318
2452.000000	1.052300
2451.000000	1.052294
2450.000000	1.052296
2449.000000	1.052299
2448.000000	1.052292
2447.000000	1.052267
2446.000000	1.052223
2445.000000	1.052168
2444.000000	1.052120
2443.000000	1.052091
2442.000000	1.052080
2441.000000	1.052074
2440.000000	1.052062
2439.000000	1.052041
2438.000000	1.052017
2437.000000	1.051987
2436.000000	1.051945
2435.000000	1.051891
2434.000000	1.051830
2433.000000	1.051766
2432.000000	1.051700
2431.000000	1.051642
2430.000000	1.051601
2429.000000	1.051571
2428.000000	1.051534
2427.000000	1.051476
2426.000000	1.051408
2425.000000	1.051349
2424.000000	1.051302
2423.000000	1.051255
2422.000000	1.051203
2421.000000	1.051150
2420.000000	1.051099
2419.000000	1.051044
2418.000000	1.050982
2417.000000	1.050916
2416.000000	1.050853
2415.000000	1.050789
2414.000000	1.050721
2413.000000	1.050653
2412.000000	1.050597
2411.000000	1.050549
2410.000000	1.050504
2409.000000	1.050458
2408.000000	1.050420
2407.000000	1.050389
2406.000000	1.050361
2405.000000	1.050325
2404.000000	1.050278
2403.000000	1.050225
2402.000000	1.050174
2401.000000	1.050134
2400.000000	1.050109
2399.000000	1.050089
2398.000000	1.050062
2397.000000	1.050022
2396.000000	1.049972
2395.000000	1.049919
2394.000000	1.049875
2393.000000	1.049851
2392.000000	1.049852
2391.000000	1.049866
2390.000000	1.049864
2389.000000	1.049837
2388.000000	1.049799
2387.000000	1.049774
2386.000000	1.049769
2385.000000	1.049766
2384.000000	1.049751
2383.000000	1.049719
2382.000000	1.049675
2381.000000	1.049622
2380.000000	1.049563
2379.000000	1.049497
2378.000000	1.049423
2377.000000	1.049330
2376.000000	1.049205
2375.000000	1.049047
2374.000000	1.048864
2373.000000	1.048672
2372.000000	1.048479
2371.000000	1.048281
2370.000000	1.048077
2369.000000	1.047874
2368.000000	1.047686
2367.000000	1.047523
2366.000000	1.047382
2365.000000	1.047263
2364.000000	1.047175
2363.000000	1.047126
2362.000000	1.047121
2361.000000	1.047154
2360.000000	1.047224
2359.000000	1.047330
2358.000000	1.047475
2357.000000	1.047662
2356.000000	1.047900
2355.000000	1.048193
2354.000000	1.048536
2353.000000	1.048918
2352.000000	1.049323
2351.000000	1.049726
2350.000000	1.050092
2349.000000	1.050404
2348.000000	1.050691
2347.000000	1.051025
2346.000000	1.051486
2345.000000	1.052115
2344.000000	1.052898
2343.000000	1.053754
2342.000000	1.054526
2341.000000	1.054995
2340.000000	1.054970
2339.000000	1.054408
2338.000000	1.053458
2337.000000	1.052395
2336.000000	1.051473
2335.000000	1.050823
2334.000000	1.050436
2333.000000	1.050231
2332.000000	1.050129
2331.000000	1.050092
2330.000000	1.050111
2329.000000	1.050182
2328.000000	1.050290
2327.000000	1.050412
2326.000000	1.050537
2325.000000	1.050660
2324.000000	1.050780
2323.000000	1.050896
2322.000000	1.051008
2321.000000	1.051116
2320.000000	1.051222
2319.000000	1.051325
2318.000000	1.051428
2317.000000	1.051539
2316.000000	1.051661
2315.000000	1.051786
2314.000000	1.051900
2313.000000	1.051999
2312.000000	1.052088
2311.000000	1.052174
2310.000000	1.052262
2309.000000	1.052352
2308.000000	1.052443
2307.000000	1.052529
2306.000000	1.052605
2305.000000	1.052672
2304.000000	1.052735
2303.000000	1.052801
2302.000000	1.052868
2301.000000	1.052933
2300.000000	1.052991
2299.000000	1.053044
2298.000000	1.053093
2297.000000	1.053138
2296.000000	1.053182
2295.000000	1.053229
2294.000000	1.053280
2293.000000	1.053334
2292.000000	1.053390
2291.000000	1.053447
2290.000000	1.053498
2289.000000	1.053538
2288.000000	1.053570
2287.000000	1.053604
2286.000000	1.053650
2285.000000	1.053713
2284.000000	1.053790
2283.000000	1.053868
2282.000000	1.053927
2281.000000	1.053954
2280.000000	1.053958
2279.000000	1.053968
2278.000000	1.054008
2277.000000	1.054068
2276.000000	1.054125
2275.000000	1.054171
2274.000000	1.054223
2273.000000	1.054290
2272.000000	1.054359
2271.000000	1.054409
2270.000000	1.054442
2269.000000	1.054477
2268.000000	1.054533
2267.000000	1.054608
2266.000000	1.054687
2265.000000	1.054755
2264.000000	1.054805
2263.000000	1.054831
2262.000000	1.054836
2261.000000	1.054830
2260.000000	1.054831
2259.000000	1.054851
2258.000000	1.054880
2257.000000	1.054905
2256.000000	1.054921
2255.000000	1.054940
2254.000000	1.054975
2253.000000	1.055023
2252.000000	1.055069
2251.000000	1.055105
2250.000000	1.055132
2249.000000	1.055151
2248.000000	1.055168
2247.000000	1.055188
2246.000000	1.055212
2245.000000	1.055239
2244.000000	1.055264
2243.000000	1.055286
2242.000000	1.055311
2241.000000	1.055341
2240.000000	1.055372
2239.000000	1.055407
2238.000000	1.055450
2237.000000	1.055502
2236.000000	1.055549
2235.000000	1.055585
2234.000000	1.055610
2233.000000	1.055631
2232.000000	1.055640
2231.000000	1.055629
2230.000000	1.055603
2229.000000	1.055586
2228.000000	1.055596
2227.000000	1.055637
2226.000000	1.055695
2225.000000	1.055750
2224.000000	1.055786
2223.000000	1.055795
2222.000000	1.055784
2221.000000	1.055772
2220.000000	1.055776
2219.000000	1.055799
2218.000000	1.055829
2217.000000	1.055851
2216.000000	1.055854
2215.000000	1.055843
2214.000000	1.055832
2213.000000	1.055838
2212.000000	1.055862
2211.000000	1.055894
2210.000000	1.055913
2209.000000	1.055907
2208.000000	1.055874
2207.000000	1.055827
2206.000000	1.055789
2205.000000	1.055778
2204.000000	1.055791
2203.000000	1.055805
2202.000000	1.055799
2201.000000	1.055776
2200.000000	1.055757
2199.000000	1.055760
2198.000000	1.055777
2197.000000	1.055787
2196.000000	1.055776
2195.000000	1.055748
2194.000000	1.055716
2193.000000	1.055695
2192.000000	1.055688
2191.000000	1.055691
2190.000000	1.055695
2189.000000	1.055693
2188.000000	1.055682
2187.000000	1.055668
2186.000000	1.055658
2185.000000	1.055654
2184.000000	1.055652
2183.000000	1.055646
2182.000000	1.055632
2181.000000	1.055610
2180.000000	1.055578
2179.000000	1.055544
2178.000000	1.055513
2177.000000	1.055488
2176.000000	1.055458
2175.000000	1.055418
2174.000000	1.055371
2173.000000	1.055331
2172.000000	1.055305
2171.000000	1.055289
2170.000000	1.055275
2169.000000	1.055249
2168.000000	1.055202
2167.000000	1.055133
2166.000000	1.055063
2165.000000	1.055021
2164.000000	1.055022
2163.000000	1.055050
2162.000000	1.055072
2161.000000	1.055058
2160.000000	1.054998
2159.000000	1.054904
2158.000000	1.054799
2157.000000	1.054710
2156.000000	1.054650
2155.000000	1.054611
2154.000000	1.054570
2153.000000	1.054518
2152.000000	1.054463
2151.000000	1.054418
2150.000000	1.054380
2149.000000	1.054334
2148.000000	1.054273
2147.000000	1.054204
2146.000000	1.054141
2145.000000	1.054085
2144.000000	1.054029
2143.000000	1.053967
2142.000000	1.053903
2141.000000	1.053837
2140.000000	1.053769
2139.000000	1.053698
2138.000000	1.053628
2137.000000	1.053560
2136.000000	1.053489
2135.000000	1.053405
2134.000000	1.053311
2133.000000	1.053211
2132.000000	1.053107
2131.000000	1.052998
2130.000000	1.052885
2129.000000	1.052778
2128.000000	1.052684
2127.000000	1.052600
2126.000000	1.052520
2125.000000	1.052440
2124.000000	1.052357
2123.000000	1.052267
2122.000000	1.052172
2121.000000	1.052077
2120.000000	1.051985
2119.000000	1.051889
2118.000000	1.051779
2117.000000	1.051659
2116.000000	1.051547
2115.000000	1.051454
2114.000000	1.051364
2113.000000	1.051260
2112.000000	1.051139
2111.000000	1.051020
2110.000000	1.050912
2109.000000	1.050811
2108.000000	1.050700
2107.000000	1.050573
2106.000000	1.050436
2105.000000	1.050291
2104.000000	1.050141
2103.000000	1.049991
2102.000000	1.049849
2101.000000	1.049714
2100.000000	1.049583
2099.000000	1.049459
2098.000000	1.049345
2097.000000	1.049242
2096.000000	1.049137
2095.000000	1.049016
2094.000000	1.048874
2093.000000	1.048724
2092.000000	1.048581
2091.000000	1.048457
2090.000000	1.048354
2089.000000	1.048259
2088.000000	1.048150
2087.000000	1.048011
2086.000000	1.047844
2085.000000	1.047670
2084.000000	1.047515
2083.000000	1.047386
2082.000000	1.047271
2081.000000	1.047151
2080.000000	1.047015
2079.000000	1.046864
2078.000000	1.046709
2077.000000	1.046556
2076.000000	1.046408
2075.000000	1.046266
2074.000000	1.046129
2073.000000	1.045992
2072.000000	1.045846
2071.000000	1.045690
2070.000000	1.045531
2069.000000	1.045375
2068.000000	1.045222
2067.000000	1.045065
2066.000000	1.044900
2065.000000	1.044736
2064.000000	1.044580
2063.000000	1.044436
2062.000000	1.044294
2061.000000	1.044141
2060.000000	1.043976
2059.000000	1.043807
2058.000000	1.043651
2057.000000	1.043516
2056.000000	1.043404
2055.000000	1.043303
2054.000000	1.043194
2053.000000	1.043061
2052.000000	1.042903
2051.000000	1.042735
2050.000000	1.042576
2049.000000	1.042432
2048.000000	1.042293
2047.000000	1.042152
2046.000000	1.042008
2045.000000	1.041863
2044.000000	1.041714
2043.000000	1.041558
2042.000000	1.041402
2041.000000	1.041255
2040.000000	1.041116
2039.000000	1.040985
2038.000000	1.040863
2037.000000	1.040752
2036.000000	1.040644
2035.000000	1.040525
2034.000000	1.040391
2033.000000	1.040247
2032.000000	1.040099
2031.000000	1.039952
2030.000000	1.039810
2029.000000	1.039673
2028.000000	1.039536
2027.000000	1.039395
2026.000000	1.039254
2025.000000	1.039124
2024.000000	1.039004
2023.000000	1.038883
2022.000000	1.038754
2021.000000	1.038623
2020.000000	1.038502
2019.000000	1.038391
2018.000000	1.038284
2017.000000	1.038180
2016.000000	1.038079
2015.000000	1.037981
2014.000000	1.037877
2013.000000	1.037764
2012.000000	1.037648
2011.000000	1.037540
2010.000000	1.037443
2009.000000	1.037346
2008.000000	1.037242
2007.000000	1.037133
2006.000000	1.037028
2005.000000	1.036930
2004.000000	1.036830
2003.000000	1.036725
2002.000000	1.036623
2001.000000	1.036536
2000.000000	1.036463
1999.000000	1.036392
1998.000000	1.036317
1997.000000	1.036242
1996.000000	1.036165
1995.000000	1.036075
1994.000000	1.035963
1993.000000	1.035842
1992.000000	1.035729
1991.000000	1.035632
1990.000000	1.035544
1989.000000	1.035466
1988.000000	1.035410
1987.000000	1.035377
1986.000000	1.035348
1985.000000	1.035295
1984.000000	1.035217
1983.000000	1.035131
1982.000000	1.035056
1981.000000	1.034986
1980.000000	1.034909
1979.000000	1.034818
1978.000000	1.034719
1977.000000	1.034622
1976.000000	1.034543
1975.000000	1.034498
1974.000000	1.034486
1973.000000	1.034485
1972.000000	1.034465
1971.000000	1.034412
1970.000000	1.034335
1969.000000	1.034256
1968.000000	1.034198
1967.000000	1.034168
1966.000000	1.034154
1965.000000	1.034130
1964.000000	1.034080
1963.000000	1.034012
1962.000000	1.033946
1961.000000	1.033887
1960.000000	1.033833
1959.000000	1.033792
1958.000000	1.033778
1957.000000	1.033785
1956.000000	1.033783
1955.000000	1.033747
1954.000000	1.033682
1953.000000	1.033612
1952.000000	1.033555
1951.000000	1.033518
1950.000000	1.033503
1949.000000	1.033505
1948.000000	1.033510
1947.000000	1.033509
1946.000000	1.033493
1945.000000	1.033455
1944.000000	1.033395
1943.000000	1.033332
1942.000000	1.033302
1941.000000	1.033316
1940.000000	1.033352
1939.000000	1.033382
1938.000000	1.033399
1937.000000	1.033405
1936.000000	1.033394
1935.000000	1.033358
1934.000000	1.033306
1933.000000	1.033260
1932.000000	1.033230
1931.000000	1.033217
1930.000000	1.033221
1929.000000	1.033242
1928.000000	1.033268
1927.000000	1.033281
1926.000000	1.033272
1925.000000	1.033251
1924.000000	1.033235
1923.000000	1.033242
1922.000000	1.033273
1921.000000	1.033303
1920.000000	1.033294
1919.000000	1.033247
1918.000000	1.033210
1917.000000	1.033227
1916.000000	1.033285
1915.000000	1.033336
1914.000000	1.033359
1913.000000	1.033376
1912.000000	1.033407
1911.000000	1.033443
1910.000000	1.033470
1909.000000	1.033488
1908.000000	1.033507
1907.000000	1.033534
1906.000000	1.033572
1905.000000	1.033627
1904.000000	1.033686
1903.000000	1.033726
1902.000000	1.033739
1901.000000	1.033740
1900.000000	1.033748
1899.000000	1.033764
1898.000000	1.033784
1897.000000	1.033809
1896.000000	1.033838
1895.000000	1.033866
1894.000000	1.033895
1893.000000	1.033923
1892.000000	1.033940
1891.000000	1.033940
1890.000000	1.033939
1889.000000	1.033969
1888.000000	1.034034
1887.000000	1.034102
1886.000000	1.034143
1885.000000	1.034165
1884.000000	1.034196
1883.000000	1.034245
1882.000000	1.034300
1881.000000	1.034346
1880.000000	1.034380
1879.000000	1.034408
1878.000000	1.034442
1877.000000	1.034492
1876.000000	1.034563
1875.000000	1.034646
1874.000000	1.034732
1873.000000	1.034802
1872.000000	1.034828
1871.000000	1.034795
1870.000000	1.034735
1869.000000	1.034711
1868.000000	1.034763
1867.000000	1.034870
1866.000000	1.034982
1865.000000	1.035072
1864.000000	1.035146
1863.000000	1.035218
1862.000000	1.035294
1861.000000	1.035379
1860.000000	1.035469
1859.000000	1.035557
1858.000000	1.035632
1857.000000	1.035694
1856.000000	1.035745
1855.000000	1.035791
1854.000000	1.035841
1853.000000	1.035904
1852.000000	1.035980
1851.000000	1.036059
1850.000000	1.036137
1849.000000	1.036217
1848.000000	1.036284
1847.000000	1.036298
1846.000000	1.036248
1845.000000	1.036192
1844.000000	1.036219
1843.000000	1.036365
1842.000000	1.036573
1841.000000	1.036760
1840.000000	1.036887
1839.000000	1.036973
1838.000000	1.037057
1837.000000	1.037161
1836.000000	1.037287
1835.000000	1.037422
1834.000000	1.037539
1833.000000	1.037604
1832.000000	1.037608
1831.000000	1.037597
1830.000000	1.037647
1829.000000	1.037787
1828.000000	1.037966
1827.000000	1.038105
1826.000000	1.038190
1825.000000	1.038284
1824.000000	1.038449
1823.000000	1.038674
1822.000000	1.038891
1821.000000	1.039041
1820.000000	1.039121
1819.000000	1.039168
1818.000000	1.039232
1817.000000	1.039342
1816.000000	1.039497
1815.000000	1.039668
1814.000000	1.039820
1813.000000	1.039936
1812.000000	1.040022
1811.000000	1.040105
1810.000000	1.040214
1809.000000	1.040357
1808.000000	1.040518
1807.000000	1.040676
1806.000000	1.040822
1805.000000	1.040952
1804.000000	1.041055
1803.000000	1.041125
1802.000000	1.041188
1801.000000	1.041282
1800.000000	1.041423
1799.000000	1.041592
1798.000000	1.041770
1797.000000	1.041947
1796.000000	1.042091
1795.000000	1.042157
1794.000000	1.042148
1793.000000	1.042149
1792.000000	1.042263
1791.000000	1.042515
1790.000000	1.042838
1789.000000	1.043137
1788.000000	1.043351
1787.000000	1.043483
1786.000000	1.043582
1785.000000	1.043705
1784.000000	1.043868
1783.000000	1.044045
1782.000000	1.044211
1781.000000	1.044375
1780.000000	1.044560
1779.000000	1.044756
1778.000000	1.044938
1777.000000	1.045083
1776.000000	1.045175
1775.000000	1.045198
1774.000000	1.045177
1773.000000	1.045207
1772.000000	1.045378
1771.000000	1.045674
1770.000000	1.045977
1769.000000	1.046203
1768.000000	1.046386
1767.000000	1.046611
1766.000000	1.046888
1765.000000	1.047140
1764.000000	1.047306
1763.000000	1.047414
1762.000000	1.047549
1761.000000	1.047763
1760.000000	1.048019
1759.000000	1.048233
1758.000000	1.048367
1757.000000	1.048477
1756.000000	1.048637
1755.000000	1.048846
1754.000000	1.049015
1753.000000	1.049080
1752.000000	1.049090
1751.000000	1.049160
1750.000000	1.049350
1749.000000	1.049621
1748.000000	1.049897
1747.000000	1.050138
1746.000000	1.050346
1745.000000	1.050530
1744.000000	1.050690
1743.000000	1.050819
1742.000000	1.050908
1741.000000	1.050975
1740.000000	1.051077
1739.000000	1.051262
1738.000000	1.051461
1737.000000	1.051503
1736.000000	1.051296
1735.000000	1.050999
1734.000000	1.050919
1733.000000	1.051204
1732.000000	1.051701
1731.000000	1.052148
1730.000000	1.052436
1729.000000	1.052631
1728.000000	1.052808
1727.000000	1.052957
1726.000000	1.053046
1725.000000	1.053087
1724.000000	1.053126
1723.000000	1.053187
1722.000000	1.053247
1721.000000	1.053232
1720.000000	1.053071
1719.000000	1.052791
1718.000000	1.052558
1717.000000	1.052549
1716.000000	1.052774
1715.000000	1.053090
1714.000000	1.053373
1713.000000	1.053600
1712.000000	1.053780
1711.000000	1.053887
1710.000000	1.053914
1709.000000	1.053903
1708.000000	1.053879
1707.000000	1.053832
1706.000000	1.053789
1705.000000	1.053808
1704.000000	1.053839
1703.000000	1.053707
1702.000000	1.053348
1701.000000	1.052978
1700.000000	1.052882
1699.000000	1.053051
1698.000000	1.053201
1697.000000	1.053172
1696.000000	1.053132
1695.000000	1.053325
1694.000000	1.053749
1693.000000	1.054169
1692.000000	1.054402
1691.000000	1.054471
1690.000000	1.054497
1689.000000	1.054513
1688.000000	1.054419
1687.000000	1.054096
1686.000000	1.053605
1685.000000	1.053225
1684.000000	1.053235
1683.000000	1.053634
1682.000000	1.054142
1681.000000	1.054494
1680.000000	1.054649
1679.000000	1.054694
1678.000000	1.054662
1677.000000	1.054533
1676.000000	1.054370
1675.000000	1.054307
1674.000000	1.054395
1673.000000	1.054522
1672.000000	1.054549
1671.000000	1.054467
1670.000000	1.054393
1669.000000	1.054438
1668.000000	1.054605
1667.000000	1.054800
1666.000000	1.054906
1665.000000	1.054869
1664.000000	1.054743
1663.000000	1.054654
1662.000000	1.054686
1661.000000	1.054814
1660.000000	1.054948
1659.000000	1.055031
1658.000000	1.055042
1657.000000	1.054910
1656.000000	1.054511
1655.000000	1.053835
1654.000000	1.053154
1653.000000	1.052898
1652.000000	1.053261
1651.000000	1.053971
1650.000000	1.054537
1649.000000	1.054684
1648.000000	1.054523
1647.000000	1.054354
1646.000000	1.054380
1645.000000	1.054600
1644.000000	1.054882
1643.000000	1.055091
1642.000000	1.055183
1641.000000	1.055200
1640.000000	1.055186
1639.000000	1.055101
1638.000000	1.054872
1637.000000	1.054542
1636.000000	1.054306
1635.000000	1.054340
1634.000000	1.054617
1633.000000	1.054952
1632.000000	1.055179
1631.000000	1.055258
1630.000000	1.055230
1629.000000	1.055157
1628.000000	1.055097
1627.000000	1.055073
1626.000000	1.055056
1625.000000	1.055004
1624.000000	1.054928
1623.000000	1.054902
1622.000000	1.054962
1621.000000	1.055034
1620.000000	1.054983
1619.000000	1.054754
1618.000000	1.054458
1617.000000	1.054307
1616.000000	1.054439
1615.000000	1.054785
1614.000000	1.055141
1613.000000	1.055347
1612.000000	1.055401
1611.000000	1.055391
1610.000000	1.055375
1609.000000	1.055357
1608.000000	1.055330
1607.000000	1.055310
1606.000000	1.055305
1605.000000	1.055307
1604.000000	1.055313
1603.000000	1.055325
1602.000000	1.055335
1601.000000	1.055330
1600.000000	1.055314
1599.000000	1.055312
1598.000000	1.055329
1597.000000	1.055349
1596.000000	1.055353
1595.000000	1.055347
1594.000000	1.055342
1593.000000	1.055340
1592.000000	1.055342
1591.000000	1.055352
1590.000000	1.055372
1589.000000	1.055397
1588.000000	1.055425
1587.000000	1.055455
1586.000000	1.055482
1585.000000	1.055495
1584.000000	1.055485
1583.000000	1.055455
1582.000000	1.055419
1581.000000	1.055384
1580.000000	1.055310
1579.000000	1.055124
1578.000000	1.054809
1577.000000	1.054495
1576.000000	1.054396
1575.000000	1.054603
1574.000000	1.054960
1573.000000	1.055202
1572.000000	1.055203
1571.000000	1.055057
1570.000000	1.054947
1569.000000	1.054971
1568.000000	1.055094
1567.000000	1.055217
1566.000000	1.055274
1565.000000	1.055269
1564.000000	1.055227
1563.000000	1.055094
1562.000000	1.054741
1561.000000	1.054142
1560.000000	1.053531
1559.000000	1.053273
1558.000000	1.053509
1557.000000	1.054009
1556.000000	1.054437
1555.000000	1.054673
1554.000000	1.054823
1553.000000	1.054986
1552.000000	1.055138
1551.000000	1.055224
1550.000000	1.055256
1549.000000	1.055272
1548.000000	1.055258
1547.000000	1.055174
1546.000000	1.055019
1545.000000	1.054832
1544.000000	1.054631
1543.000000	1.054381
1542.000000	1.054056
1541.000000	1.053728
1540.000000	1.053581
1539.000000	1.053770
1538.000000	1.054248
1537.000000	1.054751
1536.000000	1.055018
1535.000000	1.055015
1534.000000	1.054927
1533.000000	1.054934
1532.000000	1.055054
1531.000000	1.055186
1530.000000	1.055251
1529.000000	1.055229
1528.000000	1.055134
1527.000000	1.055013
1526.000000	1.054925
1525.000000	1.054868
1524.000000	1.054752
1523.000000	1.054525
1522.000000	1.054293
1521.000000	1.054239
1520.000000	1.054405
1519.000000	1.054640
1518.000000	1.054793
1517.000000	1.054865
1516.000000	1.054945
1515.000000	1.055055
1514.000000	1.055135
1513.000000	1.055155
1512.000000	1.055135
1511.000000	1.055069
1510.000000	1.054877
1509.000000	1.054502
1508.000000	1.054038
1507.000000	1.053730
1506.000000	1.053789
1505.000000	1.054208
1504.000000	1.054756
1503.000000	1.055171
1502.000000	1.055352
1501.000000	1.055365
1500.000000	1.055302
