PE IR       SUBTECH     SPECTRUM    ASCII       PEDS        4.00        
   -1
TE108B1_011.ASC
20/02/21
15:03:30.00
20/02/21
15:03:30.00
Administrator
Sample 011 By Administrator Date Friday, February 21 2020
1500.000000
#HDR
-1
-1
#GR
cm-1
A
1.0
0.0
4000.000000
-1.000000
2501
8
1.071861
0.984995
#DATA
4000.000000	0.999883
3999.000000	0.999861
3998.000000	0.999841
3997.000000	0.999821
3996.000000	0.999802
3995.000000	0.999787
3994.000000	0.999781
3993.000000	0.999787
3992.000000	0.999798
3991.000000	0.999809
3990.000000	0.999810
3989.000000	0.999796
3988.000000	0.999771
3987.000000	0.999738
3986.000000	0.999707
3985.000000	0.999680
3984.000000	0.999661
3983.000000	0.999643
3982.000000	0.999618
3981.000000	0.999581
3980.000000	0.999538
3979.000000	0.999502
3978.000000	0.999480
3977.000000	0.999468
3976.000000	0.999451
3975.000000	0.999419
3974.000000	0.999371
3973.000000	0.999317
3972.000000	0.999263
3971.000000	0.999214
3970.000000	0.999161
3969.000000	0.999094
3968.000000	0.999006
3967.000000	0.998900
3966.000000	0.998788
3965.000000	0.998678
3964.000000	0.998580
3963.000000	0.998499
3962.000000	0.998435
3961.000000	0.998378
3960.000000	0.998318
3959.000000	0.998252
3958.000000	0.998184
3957.000000	0.998114
3956.000000	0.998037
3955.000000	0.997944
3954.000000	0.997830
3953.000000	0.997706
3952.000000	0.997584
3951.000000	0.997468
3950.000000	0.997352
3949.000000	0.997228
3948.000000	0.997103
3947.000000	0.996985
3946.000000	0.996877
3945.000000	0.996774
3944.000000	0.996670
3943.000000	0.996568
3942.000000	0.996473
3941.000000	0.996384
3940.000000	0.996291
3939.000000	0.996188
3938.000000	0.996074
3937.000000	0.995953
3936.000000	0.995824
3935.000000	0.995688
3934.000000	0.995550
3933.000000	0.995426
3932.000000	0.995332
3931.000000	0.995262
3930.000000	0.995191
3929.000000	0.995091
3928.000000	0.994956
3927.000000	0.994803
3926.000000	0.994656
3925.000000	0.994527
3924.000000	0.994409
3923.000000	0.994290
3922.000000	0.994159
3921.000000	0.994007
3920.000000	0.993832
3919.000000	0.993642
3918.000000	0.993461
3917.000000	0.993311
3916.000000	0.993201
3915.000000	0.993116
3914.000000	0.993030
3913.000000	0.992925
3912.000000	0.992801
3911.000000	0.992674
3910.000000	0.992557
3909.000000	0.992447
3908.000000	0.992321
3907.000000	0.992146
3906.000000	0.991910
3905.000000	0.991642
3904.000000	0.991397
3903.000000	0.991214
3902.000000	0.991091
3901.000000	0.991000
3900.000000	0.990923
3899.000000	0.990870
3898.000000	0.990851
3897.000000	0.990853
3896.000000	0.990838
3895.000000	0.990758
3894.000000	0.990594
3893.000000	0.990373
3892.000000	0.990165
3891.000000	0.990032
3890.000000	0.989974
3889.000000	0.989916
3888.000000	0.989775
3887.000000	0.989540
3886.000000	0.989299
3885.000000	0.989154
3884.000000	0.989127
3883.000000	0.989141
3882.000000	0.989103
3881.000000	0.989004
3880.000000	0.988910
3879.000000	0.988880
3878.000000	0.988892
3877.000000	0.988870
3876.000000	0.988775
3875.000000	0.988639
3874.000000	0.988503
3873.000000	0.988361
3872.000000	0.988171
3871.000000	0.987930
3870.000000	0.987709
3869.000000	0.987589
3868.000000	0.987576
3867.000000	0.987592
3866.000000	0.987555
3865.000000	0.987452
3864.000000	0.987342
3863.000000	0.987280
3862.000000	0.987271
3861.000000	0.987285
3860.000000	0.987297
3859.000000	0.987278
3858.000000	0.987160
3857.000000	0.986850
3856.000000	0.986320
3855.000000	0.985689
3854.000000	0.985196
3853.000000	0.985049
3852.000000	0.985284
3851.000000	0.985741
3850.000000	0.986193
3849.000000	0.986486
3848.000000	0.986595
3847.000000	0.986577
3846.000000	0.986500
3845.000000	0.986406
3844.000000	0.986317
3843.000000	0.986241
3842.000000	0.986153
3841.000000	0.986003
3840.000000	0.985769
3839.000000	0.985497
3838.000000	0.985294
3837.000000	0.985250
3836.000000	0.985366
3835.000000	0.985555
3834.000000	0.985708
3833.000000	0.985771
3832.000000	0.985772
3831.000000	0.985770
3830.000000	0.985800
3829.000000	0.985845
3828.000000	0.985871
3827.000000	0.985864
3826.000000	0.985829
3825.000000	0.985760
3824.000000	0.985635
3823.000000	0.985458
3822.000000	0.985293
3821.000000	0.985223
3820.000000	0.985261
3819.000000	0.985315
3818.000000	0.985268
3817.000000	0.985118
3816.000000	0.984995
3815.000000	0.985047
3814.000000	0.985287
3813.000000	0.985589
3812.000000	0.985800
3811.000000	0.985848
3810.000000	0.985749
3809.000000	0.985560
3808.000000	0.985362
3807.000000	0.985255
3806.000000	0.985286
3805.000000	0.985391
3804.000000	0.985422
3803.000000	0.985305
3802.000000	0.985131
3801.000000	0.985084
3800.000000	0.985254
3799.000000	0.985558
3798.000000	0.985829
3797.000000	0.985978
3796.000000	0.986043
3795.000000	0.986109
3794.000000	0.986213
3793.000000	0.986330
3792.000000	0.986425
3791.000000	0.986495
3790.000000	0.986554
3789.000000	0.986616
3788.000000	0.986672
3787.000000	0.986707
3786.000000	0.986719
3785.000000	0.986718
3784.000000	0.986723
3783.000000	0.986743
3782.000000	0.986774
3781.000000	0.986809
3780.000000	0.986859
3779.000000	0.986943
3778.000000	0.987065
3777.000000	0.987200
3776.000000	0.987322
3775.000000	0.987423
3774.000000	0.987502
3773.000000	0.987545
3772.000000	0.987536
3771.000000	0.987488
3770.000000	0.987459
3769.000000	0.987499
3768.000000	0.987605
3767.000000	0.987730
3766.000000	0.987842
3765.000000	0.987946
3764.000000	0.988058
3763.000000	0.988164
3762.000000	0.988228
3761.000000	0.988233
3760.000000	0.988217
3759.000000	0.988241
3758.000000	0.988340
3757.000000	0.988484
3756.000000	0.988592
3755.000000	0.988580
3754.000000	0.988419
3753.000000	0.988153
3752.000000	0.987890
3751.000000	0.987759
3750.000000	0.987840
3749.000000	0.988099
3748.000000	0.988375
3747.000000	0.988483
3746.000000	0.988373
3745.000000	0.988205
3744.000000	0.988230
3743.000000	0.988566
3742.000000	0.989095
3741.000000	0.989570
3740.000000	0.989817
3739.000000	0.989831
3738.000000	0.989731
3737.000000	0.989649
3736.000000	0.989663
3735.000000	0.989776
3734.000000	0.989947
3733.000000	0.990139
3732.000000	0.990351
3731.000000	0.990608
3730.000000	0.990903
3729.000000	0.991179
3728.000000	0.991377
3727.000000	0.991497
3726.000000	0.991593
3725.000000	0.991717
3724.000000	0.991882
3723.000000	0.992075
3722.000000	0.992282
3721.000000	0.992499
3720.000000	0.992721
3719.000000	0.992945
3718.000000	0.993176
3717.000000	0.993413
3716.000000	0.993630
3715.000000	0.993787
3714.000000	0.993873
3713.000000	0.993937
3712.000000	0.994062
3711.000000	0.994313
3710.000000	0.994691
3709.000000	0.995151
3708.000000	0.995640
3707.000000	0.996123
3706.000000	0.996579
3705.000000	0.996989
3704.000000	0.997349
3703.000000	0.997688
3702.000000	0.998063
3701.000000	0.998518
3700.000000	0.999044
3699.000000	0.999596
3698.000000	1.000130
3697.000000	1.000633
3696.000000	1.001119
3695.000000	1.001602
3694.000000	1.002078
3693.000000	1.002527
3692.000000	1.002917
3691.000000	1.003230
3690.000000	1.003503
3689.000000	1.003842
3688.000000	1.004364
3687.000000	1.005104
3686.000000	1.005979
3685.000000	1.006850
3684.000000	1.007628
3683.000000	1.008318
3682.000000	1.008978
3681.000000	1.009651
3680.000000	1.010321
3679.000000	1.010934
3678.000000	1.011458
3677.000000	1.011944
3676.000000	1.012523
3675.000000	1.013307
3674.000000	1.014261
3673.000000	1.015220
3672.000000	1.016039
3671.000000	1.016734
3670.000000	1.017461
3669.000000	1.018343
3668.000000	1.019357
3667.000000	1.020379
3666.000000	1.021312
3665.000000	1.022141
3664.000000	1.022908
3663.000000	1.023655
3662.000000	1.024404
3661.000000	1.025153
3660.000000	1.025870
3659.000000	1.026520
3658.000000	1.027103
3657.000000	1.027686
3656.000000	1.028358
3655.000000	1.029139
3654.000000	1.029942
3653.000000	1.030630
3652.000000	1.031132
3651.000000	1.031513
3650.000000	1.031918
3649.000000	1.032472
3648.000000	1.033197
3647.000000	1.034021
3646.000000	1.034843
3645.000000	1.035590
3644.000000	1.036247
3643.000000	1.036838
3642.000000	1.037394
3641.000000	1.037926
3640.000000	1.038430
3639.000000	1.038901
3638.000000	1.039344
3637.000000	1.039763
3636.000000	1.040157
3635.000000	1.040526
3634.000000	1.040874
3633.000000	1.041186
3632.000000	1.041420
3631.000000	1.041561
3630.000000	1.041675
3629.000000	1.041895
3628.000000	1.042316
3627.000000	1.042902
3626.000000	1.043511
3625.000000	1.044004
3624.000000	1.044335
3623.000000	1.044534
3622.000000	1.044654
3621.000000	1.044742
3620.000000	1.044854
3619.000000	1.045043
3618.000000	1.045322
3617.000000	1.045644
3616.000000	1.045937
3615.000000	1.046166
3614.000000	1.046344
3613.000000	1.046504
3612.000000	1.046653
3611.000000	1.046780
3610.000000	1.046891
3609.000000	1.047021
3608.000000	1.047205
3607.000000	1.047436
3606.000000	1.047665
3605.000000	1.047849
3604.000000	1.047981
3603.000000	1.048085
3602.000000	1.048191
3601.000000	1.048312
3600.000000	1.048448
3599.000000	1.048588
3598.000000	1.048712
3597.000000	1.048800
3596.000000	1.048846
3595.000000	1.048871
3594.000000	1.048908
3593.000000	1.048973
3592.000000	1.049053
3591.000000	1.049113
3590.000000	1.049127
3589.000000	1.049110
3588.000000	1.049108
3587.000000	1.049167
3586.000000	1.049291
3585.000000	1.049439
3584.000000	1.049559
3583.000000	1.049629
3582.000000	1.049663
3581.000000	1.049692
3580.000000	1.049736
3579.000000	1.049798
3578.000000	1.049868
3577.000000	1.049934
3576.000000	1.049990
3575.000000	1.050034
3574.000000	1.050065
3573.000000	1.050077
3572.000000	1.050062
3571.000000	1.050014
3570.000000	1.049936
3569.000000	1.049850
3568.000000	1.049792
3567.000000	1.049795
3566.000000	1.049869
3565.000000	1.049991
3564.000000	1.050126
3563.000000	1.050239
3562.000000	1.050318
3561.000000	1.050366
3560.000000	1.050393
3559.000000	1.050403
3558.000000	1.050395
3557.000000	1.050376
3556.000000	1.050363
3555.000000	1.050376
3554.000000	1.050416
3553.000000	1.050468
3552.000000	1.050511
3551.000000	1.050530
3550.000000	1.050523
3549.000000	1.050499
3548.000000	1.050481
3547.000000	1.050485
3546.000000	1.050520
3545.000000	1.050583
3544.000000	1.050670
3543.000000	1.050776
3542.000000	1.050886
3541.000000	1.050980
3540.000000	1.051038
3539.000000	1.051056
3538.000000	1.051050
3537.000000	1.051049
3536.000000	1.051081
3535.000000	1.051151
3534.000000	1.051235
3533.000000	1.051294
3532.000000	1.051307
3531.000000	1.051288
3530.000000	1.051263
3529.000000	1.051255
3528.000000	1.051274
3527.000000	1.051322
3526.000000	1.051393
3525.000000	1.051467
3524.000000	1.051530
3523.000000	1.051583
3522.000000	1.051642
3521.000000	1.051717
3520.000000	1.051806
3519.000000	1.051895
3518.000000	1.051972
3517.000000	1.052034
3516.000000	1.052092
3515.000000	1.052161
3514.000000	1.052248
3513.000000	1.052341
3512.000000	1.052423
3511.000000	1.052489
3510.000000	1.052553
3509.000000	1.052632
3508.000000	1.052731
3507.000000	1.052834
3506.000000	1.052923
3505.000000	1.052989
3504.000000	1.053038
3503.000000	1.053090
3502.000000	1.053154
3501.000000	1.053232
3500.000000	1.053319
3499.000000	1.053418
3498.000000	1.053535
3497.000000	1.053669
3496.000000	1.053808
3495.000000	1.053935
3494.000000	1.054039
3493.000000	1.054119
3492.000000	1.054186
3491.000000	1.054260
3490.000000	1.054354
3489.000000	1.054462
3488.000000	1.054566
3487.000000	1.054656
3486.000000	1.054730
3485.000000	1.054797
3484.000000	1.054861
3483.000000	1.054930
3482.000000	1.055011
3481.000000	1.055107
3480.000000	1.055219
3479.000000	1.055346
3478.000000	1.055487
3477.000000	1.055630
3476.000000	1.055765
3475.000000	1.055888
3474.000000	1.056006
3473.000000	1.056127
3472.000000	1.056250
3471.000000	1.056368
3470.000000	1.056479
3469.000000	1.056585
3468.000000	1.056693
3467.000000	1.056811
3466.000000	1.056944
3465.000000	1.057090
3464.000000	1.057236
3463.000000	1.057371
3462.000000	1.057500
3461.000000	1.057643
3460.000000	1.057809
3459.000000	1.057987
3458.000000	1.058150
3457.000000	1.058277
3456.000000	1.058375
3455.000000	1.058469
3454.000000	1.058579
3453.000000	1.058706
3452.000000	1.058850
3451.000000	1.059010
3450.000000	1.059187
3449.000000	1.059375
3448.000000	1.059559
3447.000000	1.059731
3446.000000	1.059887
3445.000000	1.060024
3444.000000	1.060145
3443.000000	1.060255
3442.000000	1.060370
3441.000000	1.060498
3440.000000	1.060638
3439.000000	1.060778
3438.000000	1.060910
3437.000000	1.061031
3436.000000	1.061145
3435.000000	1.061263
3434.000000	1.061397
3433.000000	1.061557
3432.000000	1.061736
3431.000000	1.061915
3430.000000	1.062072
3429.000000	1.062203
3428.000000	1.062320
3427.000000	1.062439
3426.000000	1.062563
3425.000000	1.062691
3424.000000	1.062820
3423.000000	1.062953
3422.000000	1.063089
3421.000000	1.063223
3420.000000	1.063353
3419.000000	1.063484
3418.000000	1.063619
3417.000000	1.063749
3416.000000	1.063870
3415.000000	1.063989
3414.000000	1.064115
3413.000000	1.064243
3412.000000	1.064359
3411.000000	1.064454
3410.000000	1.064537
3409.000000	1.064623
3408.000000	1.064719
3407.000000	1.064815
3406.000000	1.064898
3405.000000	1.064968
3404.000000	1.065033
3403.000000	1.065102
3402.000000	1.065177
3401.000000	1.065254
3400.000000	1.065331
3399.000000	1.065413
3398.000000	1.065502
3397.000000	1.065593
3396.000000	1.065676
3395.000000	1.065752
3394.000000	1.065826
3393.000000	1.065896
3392.000000	1.065956
3391.000000	1.066005
3390.000000	1.066047
3389.000000	1.066088
3388.000000	1.066123
3387.000000	1.066150
3386.000000	1.066182
3385.000000	1.066233
3384.000000	1.066307
3383.000000	1.066390
3382.000000	1.066465
3381.000000	1.066526
3380.000000	1.066576
3379.000000	1.066613
3378.000000	1.066632
3377.000000	1.066632
3376.000000	1.066628
3375.000000	1.066645
3374.000000	1.066696
3373.000000	1.066769
3372.000000	1.066834
3371.000000	1.066864
3370.000000	1.066859
3369.000000	1.066841
3368.000000	1.066838
3367.000000	1.066858
3366.000000	1.066899
3365.000000	1.066951
3364.000000	1.067007
3363.000000	1.067065
3362.000000	1.067124
3361.000000	1.067183
3360.000000	1.067241
3359.000000	1.067294
3358.000000	1.067342
3357.000000	1.067384
3356.000000	1.067414
3355.000000	1.067425
3354.000000	1.067415
3353.000000	1.067402
3352.000000	1.067412
3351.000000	1.067458
3350.000000	1.067530
3349.000000	1.067599
3348.000000	1.067638
3347.000000	1.067642
3346.000000	1.067621
3345.000000	1.067597
3344.000000	1.067591
3343.000000	1.067610
3342.000000	1.067651
3341.000000	1.067698
3340.000000	1.067741
3339.000000	1.067778
3338.000000	1.067814
3337.000000	1.067853
3336.000000	1.067898
3335.000000	1.067946
3334.000000	1.067988
3333.000000	1.068013
3332.000000	1.068016
3331.000000	1.068005
3330.000000	1.067996
3329.000000	1.068000
3328.000000	1.068023
3327.000000	1.068057
3326.000000	1.068093
3325.000000	1.068124
3324.000000	1.068144
3323.000000	1.068156
3322.000000	1.068164
3321.000000	1.068181
3320.000000	1.068219
3319.000000	1.068282
3318.000000	1.068353
3317.000000	1.068411
3316.000000	1.068449
3315.000000	1.068475
3314.000000	1.068502
3313.000000	1.068532
3312.000000	1.068565
3311.000000	1.068603
3310.000000	1.068650
3309.000000	1.068701
3308.000000	1.068746
3307.000000	1.068782
3306.000000	1.068810
3305.000000	1.068840
3304.000000	1.068876
3303.000000	1.068921
3302.000000	1.068970
3301.000000	1.069018
3300.000000	1.069059
3299.000000	1.069092
3298.000000	1.069124
3297.000000	1.069161
3296.000000	1.069208
3295.000000	1.069261
3294.000000	1.069316
3293.000000	1.069371
3292.000000	1.069421
3291.000000	1.069458
3290.000000	1.069481
3289.000000	1.069503
3288.000000	1.069543
3287.000000	1.069604
3286.000000	1.069666
3285.000000	1.069702
3284.000000	1.069710
3283.000000	1.069712
3282.000000	1.069730
3281.000000	1.069767
3280.000000	1.069808
3279.000000	1.069846
3278.000000	1.069879
3277.000000	1.069910
3276.000000	1.069941
3275.000000	1.069974
3274.000000	1.070008
3273.000000	1.070035
3272.000000	1.070050
3271.000000	1.070063
3270.000000	1.070086
3269.000000	1.070124
3268.000000	1.070170
3267.000000	1.070214
3266.000000	1.070258
3265.000000	1.070308
3264.000000	1.070360
3263.000000	1.070407
3262.000000	1.070444
3261.000000	1.070478
3260.000000	1.070516
3259.000000	1.070551
3258.000000	1.070569
3257.000000	1.070570
3256.000000	1.070572
3255.000000	1.070596
3254.000000	1.070646
3253.000000	1.070701
3252.000000	1.070743
3251.000000	1.070775
3250.000000	1.070809
3249.000000	1.070849
3248.000000	1.070875
3247.000000	1.070874
3246.000000	1.070857
3245.000000	1.070857
3244.000000	1.070895
3243.000000	1.070964
3242.000000	1.071038
3241.000000	1.071096
3240.000000	1.071134
3239.000000	1.071156
3238.000000	1.071165
3237.000000	1.071162
3236.000000	1.071159
3235.000000	1.071173
3234.000000	1.071215
3233.000000	1.071282
3232.000000	1.071361
3231.000000	1.071439
3230.000000	1.071507
3229.000000	1.071565
3228.000000	1.071615
3227.000000	1.071658
3226.000000	1.071685
3225.000000	1.071688
3224.000000	1.071666
3223.000000	1.071640
3222.000000	1.071635
3221.000000	1.071659
3220.000000	1.071700
3219.000000	1.071742
3218.000000	1.071779
3217.000000	1.071814
3216.000000	1.071843
3215.000000	1.071861
3214.000000	1.071859
3213.000000	1.071841
3212.000000	1.071814
3211.000000	1.071786
3210.000000	1.071766
3209.000000	1.071758
3208.000000	1.071761
3207.000000	1.071768
3206.000000	1.071774
3205.000000	1.071775
3204.000000	1.071775
3203.000000	1.071771
3202.000000	1.071757
3201.000000	1.071735
3200.000000	1.071718
3199.000000	1.071719
3198.000000	1.071737
3197.000000	1.071755
3196.000000	1.071756
3195.000000	1.071736
3194.000000	1.071709
3193.000000	1.071688
3192.000000	1.071687
3191.000000	1.071701
3190.000000	1.071716
3189.000000	1.071718
3188.000000	1.071707
3187.000000	1.071691
3186.000000	1.071673
3185.000000	1.071648
3184.000000	1.071614
3183.000000	1.071583
3182.000000	1.071576
3181.000000	1.071602
3180.000000	1.071649
3179.000000	1.071693
3178.000000	1.071715
3177.000000	1.071707
3176.000000	1.071674
3175.000000	1.071628
3174.000000	1.071582
3173.000000	1.071548
3172.000000	1.071532
3171.000000	1.071536
3170.000000	1.071550
3169.000000	1.071564
3168.000000	1.071570
3167.000000	1.071571
3166.000000	1.071570
3165.000000	1.071571
3164.000000	1.071575
3163.000000	1.071580
3162.000000	1.071582
3161.000000	1.071571
3160.000000	1.071552
3159.000000	1.071538
3158.000000	1.071544
3157.000000	1.071570
3156.000000	1.071601
3155.000000	1.071622
3154.000000	1.071630
3153.000000	1.071633
3152.000000	1.071641
3151.000000	1.071655
3150.000000	1.071671
3149.000000	1.071678
3148.000000	1.071672
3147.000000	1.071653
3146.000000	1.071625
3145.000000	1.071598
3144.000000	1.071582
3143.000000	1.071590
3142.000000	1.071620
3141.000000	1.071660
3140.000000	1.071695
3139.000000	1.071712
3138.000000	1.071704
3137.000000	1.071674
3136.000000	1.071636
3135.000000	1.071608
3134.000000	1.071600
3133.000000	1.071607
3132.000000	1.071623
3131.000000	1.071645
3130.000000	1.071674
3129.000000	1.071697
3128.000000	1.071701
3127.000000	1.071682
3126.000000	1.071651
3125.000000	1.071622
3124.000000	1.071603
3123.000000	1.071592
3122.000000	1.071579
3121.000000	1.071556
3120.000000	1.071520
3119.000000	1.071483
3118.000000	1.071460
3117.000000	1.071455
3116.000000	1.071469
3115.000000	1.071498
3114.000000	1.071530
3113.000000	1.071547
3112.000000	1.071531
3111.000000	1.071478
3110.000000	1.071407
3109.000000	1.071345
3108.000000	1.071304
3107.000000	1.071273
3106.000000	1.071236
3105.000000	1.071183
3104.000000	1.071120
3103.000000	1.071063
3102.000000	1.071019
3101.000000	1.070986
3100.000000	1.070966
3099.000000	1.070959
3098.000000	1.070959
3097.000000	1.070942
3096.000000	1.070888
3095.000000	1.070808
3094.000000	1.070732
3093.000000	1.070684
3092.000000	1.070663
3091.000000	1.070647
3090.000000	1.070613
3089.000000	1.070553
3088.000000	1.070468
3087.000000	1.070377
3086.000000	1.070302
3085.000000	1.070249
3084.000000	1.070199
3083.000000	1.070128
3082.000000	1.070024
3081.000000	1.069906
3080.000000	1.069800
3079.000000	1.069730
3078.000000	1.069696
3077.000000	1.069680
3076.000000	1.069651
3075.000000	1.069584
3074.000000	1.069475
3073.000000	1.069348
3072.000000	1.069230
3071.000000	1.069139
3070.000000	1.069077
3069.000000	1.069034
3068.000000	1.068994
3067.000000	1.068940
3066.000000	1.068860
3065.000000	1.068760
3064.000000	1.068656
3063.000000	1.068568
3062.000000	1.068502
3061.000000	1.068455
3060.000000	1.068420
3059.000000	1.068388
3058.000000	1.068349
3057.000000	1.068291
3056.000000	1.068211
3055.000000	1.068117
3054.000000	1.068028
3053.000000	1.067960
3052.000000	1.067909
3051.000000	1.067856
3050.000000	1.067780
3049.000000	1.067685
3048.000000	1.067594
3047.000000	1.067528
3046.000000	1.067482
3045.000000	1.067426
3044.000000	1.067341
3043.000000	1.067229
3042.000000	1.067116
3041.000000	1.067022
3040.000000	1.066956
3039.000000	1.066903
3038.000000	1.066838
3037.000000	1.066748
3036.000000	1.066640
3035.000000	1.066541
3034.000000	1.066470
3033.000000	1.066423
3032.000000	1.066382
3031.000000	1.066334
3030.000000	1.066276
3029.000000	1.066207
3028.000000	1.066133
3027.000000	1.066062
3026.000000	1.065999
3025.000000	1.065940
3024.000000	1.065875
3023.000000	1.065798
3022.000000	1.065709
3021.000000	1.065612
3020.000000	1.065514
3019.000000	1.065417
3018.000000	1.065321
3017.000000	1.065220
3016.000000	1.065114
3015.000000	1.065007
3014.000000	1.064905
3013.000000	1.064809
3012.000000	1.064715
3011.000000	1.064629
3010.000000	1.064555
3009.000000	1.064489
3008.000000	1.064418
3007.000000	1.064329
3006.000000	1.064223
3005.000000	1.064108
3004.000000	1.063995
3003.000000	1.063884
3002.000000	1.063765
3001.000000	1.063631
3000.000000	1.063486
2999.000000	1.063351
2998.000000	1.063238
2997.000000	1.063138
2996.000000	1.063037
2995.000000	1.062923
2994.000000	1.062802
2993.000000	1.062677
2992.000000	1.062550
2991.000000	1.062424
2990.000000	1.062300
2989.000000	1.062178
2988.000000	1.062049
2987.000000	1.061915
2986.000000	1.061785
2985.000000	1.061669
2984.000000	1.061567
2983.000000	1.061467
2982.000000	1.061358
2981.000000	1.061234
2980.000000	1.061097
2979.000000	1.060952
2978.000000	1.060811
2977.000000	1.060677
2976.000000	1.060550
2975.000000	1.060419
2974.000000	1.060281
2973.000000	1.060137
2972.000000	1.059996
2971.000000	1.059862
2970.000000	1.059728
2969.000000	1.059584
2968.000000	1.059421
2967.000000	1.059239
2966.000000	1.059042
2965.000000	1.058837
2964.000000	1.058640
2963.000000	1.058466
2962.000000	1.058319
2961.000000	1.058180
2960.000000	1.058026
2959.000000	1.057844
2958.000000	1.057641
2957.000000	1.057429
2956.000000	1.057212
2955.000000	1.056995
2954.000000	1.056785
2953.000000	1.056596
2952.000000	1.056431
2951.000000	1.056276
2950.000000	1.056106
2949.000000	1.055906
2948.000000	1.055680
2947.000000	1.055452
2946.000000	1.055243
2945.000000	1.055059
2944.000000	1.054888
2943.000000	1.054722
2942.000000	1.054548
2941.000000	1.054355
2940.000000	1.054136
2939.000000	1.053908
2938.000000	1.053692
2937.000000	1.053494
2936.000000	1.053303
2935.000000	1.053104
2934.000000	1.052903
2933.000000	1.052717
2932.000000	1.052553
2931.000000	1.052395
2930.000000	1.052217
2929.000000	1.052001
2928.000000	1.051753
2927.000000	1.051497
2926.000000	1.051258
2925.000000	1.051040
2924.000000	1.050829
2923.000000	1.050613
2922.000000	1.050396
2921.000000	1.050184
2920.000000	1.049977
2919.000000	1.049771
2918.000000	1.049564
2917.000000	1.049353
2916.000000	1.049130
2915.000000	1.048888
2914.000000	1.048639
2913.000000	1.048402
2912.000000	1.048192
2911.000000	1.048000
2910.000000	1.047808
2909.000000	1.047604
2908.000000	1.047387
2907.000000	1.047173
2906.000000	1.046978
2905.000000	1.046802
2904.000000	1.046628
2903.000000	1.046435
2902.000000	1.046220
2901.000000	1.045999
2900.000000	1.045785
2899.000000	1.045577
2898.000000	1.045369
2897.000000	1.045158
2896.000000	1.044946
2895.000000	1.044739
2894.000000	1.044537
2893.000000	1.044344
2892.000000	1.044161
2891.000000	1.043983
2890.000000	1.043797
2889.000000	1.043594
2888.000000	1.043372
2887.000000	1.043140
2886.000000	1.042912
2885.000000	1.042708
2884.000000	1.042532
2883.000000	1.042367
2882.000000	1.042186
2881.000000	1.041982
2880.000000	1.041776
2879.000000	1.041597
2878.000000	1.041447
2877.000000	1.041298
2876.000000	1.041123
2875.000000	1.040914
2874.000000	1.040687
2873.000000	1.040463
2872.000000	1.040257
2871.000000	1.040071
2870.000000	1.039896
2869.000000	1.039720
2868.000000	1.039544
2867.000000	1.039377
2866.000000	1.039222
2865.000000	1.039069
2864.000000	1.038898
2863.000000	1.038706
2862.000000	1.038497
2861.000000	1.038281
2860.000000	1.038065
2859.000000	1.037859
2858.000000	1.037674
2857.000000	1.037515
2856.000000	1.037377
2855.000000	1.037250
2854.000000	1.037126
2853.000000	1.036997
2852.000000	1.036858
2851.000000	1.036709
2850.000000	1.036554
2849.000000	1.036397
2848.000000	1.036239
2847.000000	1.036086
2846.000000	1.035946
2845.000000	1.035822
2844.000000	1.035704
2843.000000	1.035574
2842.000000	1.035425
2841.000000	1.035263
2840.000000	1.035111
2839.000000	1.034981
2838.000000	1.034869
2837.000000	1.034762
2836.000000	1.034651
2835.000000	1.034541
2834.000000	1.034437
2833.000000	1.034333
2832.000000	1.034213
2831.000000	1.034070
2830.000000	1.033913
2829.000000	1.033758
2828.000000	1.033618
2827.000000	1.033495
2826.000000	1.033382
2825.000000	1.033273
2824.000000	1.033163
2823.000000	1.033053
2822.000000	1.032945
2821.000000	1.032838
2820.000000	1.032732
2819.000000	1.032622
2818.000000	1.032508
2817.000000	1.032391
2816.000000	1.032274
2815.000000	1.032164
2814.000000	1.032068
2813.000000	1.031983
2812.000000	1.031899
2811.000000	1.031805
2810.000000	1.031696
2809.000000	1.031585
2808.000000	1.031490
2807.000000	1.031418
2806.000000	1.031356
2805.000000	1.031284
2804.000000	1.031200
2803.000000	1.031110
2802.000000	1.031020
2801.000000	1.030924
2800.000000	1.030823
2799.000000	1.030725
2798.000000	1.030640
2797.000000	1.030568
2796.000000	1.030502
2795.000000	1.030442
2794.000000	1.030389
2793.000000	1.030333
2792.000000	1.030265
2791.000000	1.030182
2790.000000	1.030091
2789.000000	1.029999
2788.000000	1.029906
2787.000000	1.029821
2786.000000	1.029753
2785.000000	1.029705
2784.000000	1.029670
2783.000000	1.029633
2782.000000	1.029582
2781.000000	1.029513
2780.000000	1.029430
2779.000000	1.029347
2778.000000	1.029282
2777.000000	1.029240
2776.000000	1.029210
2775.000000	1.029174
2774.000000	1.029115
2773.000000	1.029029
2772.000000	1.028930
2771.000000	1.028837
2770.000000	1.028766
2769.000000	1.028717
2768.000000	1.028674
2767.000000	1.028624
2766.000000	1.028568
2765.000000	1.028519
2764.000000	1.028488
2763.000000	1.028471
2762.000000	1.028450
2761.000000	1.028408
2760.000000	1.028346
2759.000000	1.028284
2758.000000	1.028242
2757.000000	1.028221
2756.000000	1.028203
2755.000000	1.028167
2754.000000	1.028110
2753.000000	1.028047
2752.000000	1.027993
2751.000000	1.027954
2750.000000	1.027920
2749.000000	1.027882
2748.000000	1.027838
2747.000000	1.027799
2746.000000	1.027772
2745.000000	1.027754
2744.000000	1.027739
2743.000000	1.027733
2742.000000	1.027743
2741.000000	1.027765
2740.000000	1.027776
2739.000000	1.027758
2738.000000	1.027711
2737.000000	1.027658
2736.000000	1.027617
2735.000000	1.027592
2734.000000	1.027573
2733.000000	1.027559
2732.000000	1.027553
2731.000000	1.027554
2730.000000	1.027551
2729.000000	1.027529
2728.000000	1.027486
2727.000000	1.027439
2726.000000	1.027401
2725.000000	1.027373
2724.000000	1.027347
2723.000000	1.027323
2722.000000	1.027307
2721.000000	1.027308
2720.000000	1.027326
2719.000000	1.027353
2718.000000	1.027377
2717.000000	1.027385
2716.000000	1.027372
2715.000000	1.027353
2714.000000	1.027349
2713.000000	1.027374
2712.000000	1.027417
2711.000000	1.027456
2710.000000	1.027476
2709.000000	1.027479
2708.000000	1.027476
2707.000000	1.027481
2706.000000	1.027497
2705.000000	1.027518
2704.000000	1.027535
2703.000000	1.027542
2702.000000	1.027538
2701.000000	1.027532
2700.000000	1.027533
2699.000000	1.027546
2698.000000	1.027566
2697.000000	1.027580
2696.000000	1.027588
2695.000000	1.027598
2694.000000	1.027619
2693.000000	1.027653
2692.000000	1.027692
2691.000000	1.027731
2690.000000	1.027766
2689.000000	1.027791
2688.000000	1.027802
2687.000000	1.027806
2686.000000	1.027812
2685.000000	1.027828
2684.000000	1.027860
2683.000000	1.027913
2682.000000	1.027985
2681.000000	1.028067
2680.000000	1.028140
2679.000000	1.028196
2678.000000	1.028235
2677.000000	1.028263
2676.000000	1.028284
2675.000000	1.028305
2674.000000	1.028332
2673.000000	1.028364
2672.000000	1.028401
2671.000000	1.028438
2670.000000	1.028476
2669.000000	1.028519
2668.000000	1.028569
2667.000000	1.028632
2666.000000	1.028707
2665.000000	1.028782
2664.000000	1.028848
2663.000000	1.028903
2662.000000	1.028955
2661.000000	1.029007
2660.000000	1.029060
2659.000000	1.029115
2658.000000	1.029176
2657.000000	1.029244
2656.000000	1.029313
2655.000000	1.029379
2654.000000	1.029446
2653.000000	1.029519
2652.000000	1.029603
2651.000000	1.029697
2650.000000	1.029802
2649.000000	1.029913
2648.000000	1.030020
2647.000000	1.030114
2646.000000	1.030195
2645.000000	1.030270
2644.000000	1.030344
2643.000000	1.030422
2642.000000	1.030505
2641.000000	1.030594
2640.000000	1.030683
2639.000000	1.030764
2638.000000	1.030830
2637.000000	1.030880
2636.000000	1.030934
2635.000000	1.031016
2634.000000	1.031138
2633.000000	1.031282
2632.000000	1.031414
2631.000000	1.031510
2630.000000	1.031575
2629.000000	1.031629
2628.000000	1.031691
2627.000000	1.031770
2626.000000	1.031864
2625.000000	1.031970
2624.000000	1.032082
2623.000000	1.032192
2622.000000	1.032289
2621.000000	1.032368
2620.000000	1.032436
2619.000000	1.032511
2618.000000	1.032601
2617.000000	1.032699
2616.000000	1.032796
2615.000000	1.032899
2614.000000	1.033016
2613.000000	1.033141
2612.000000	1.033259
2611.000000	1.033360
2610.000000	1.033450
2609.000000	1.033542
2608.000000	1.033644
2607.000000	1.033758
2606.000000	1.033878
2605.000000	1.033994
2604.000000	1.034102
2603.000000	1.034209
2602.000000	1.034327
2601.000000	1.034452
2600.000000	1.034574
2599.000000	1.034686
2598.000000	1.034793
2597.000000	1.034896
2596.000000	1.034998
2595.000000	1.035110
2594.000000	1.035245
2593.000000	1.035398
2592.000000	1.035545
2591.000000	1.035671
2590.000000	1.035785
2589.000000	1.035896
2588.000000	1.036003
2587.000000	1.036096
2586.000000	1.036188
2585.000000	1.036302
2584.000000	1.036447
2583.000000	1.036610
2582.000000	1.036772
2581.000000	1.036919
2580.000000	1.037050
2579.000000	1.037166
2578.000000	1.037273
2577.000000	1.037379
2576.000000	1.037488
2575.000000	1.037603
2574.000000	1.037733
2573.000000	1.037881
2572.000000	1.038045
2571.000000	1.038212
2570.000000	1.038368
2569.000000	1.038505
2568.000000	1.038625
2567.000000	1.038736
2566.000000	1.038856
2565.000000	1.038997
2564.000000	1.039158
2563.000000	1.039323
2562.000000	1.039482
2561.000000	1.039635
2560.000000	1.039788
2559.000000	1.039943
2558.000000	1.040101
2557.000000	1.040259
2556.000000	1.040419
2555.000000	1.040582
2554.000000	1.040744
2553.000000	1.040906
2552.000000	1.041074
2551.000000	1.041251
2550.000000	1.041430
2549.000000	1.041595
2548.000000	1.041739
2547.000000	1.041873
2546.000000	1.042019
2545.000000	1.042184
2544.000000	1.042359
2543.000000	1.042533
2542.000000	1.042710
2541.000000	1.042897
2540.000000	1.043092
2539.000000	1.043278
2538.000000	1.043443
2537.000000	1.043592
2536.000000	1.043742
2535.000000	1.043911
2534.000000	1.044103
2533.000000	1.044310
2532.000000	1.044519
2531.000000	1.044721
2530.000000	1.044910
2529.000000	1.045085
2528.000000	1.045245
2527.000000	1.045399
2526.000000	1.045558
2525.000000	1.045726
2524.000000	1.045904
2523.000000	1.046089
2522.000000	1.046276
2521.000000	1.046459
2520.000000	1.046634
2519.000000	1.046802
2518.000000	1.046965
2517.000000	1.047124
2516.000000	1.047275
2515.000000	1.047424
2514.000000	1.047585
2513.000000	1.047763
2512.000000	1.047953
2511.000000	1.048141
2510.000000	1.048315
2509.000000	1.048470
2508.000000	1.048609
2507.000000	1.048745
2506.000000	1.048893
2505.000000	1.049058
2504.000000	1.049232
2503.000000	1.049403
2502.000000	1.049570
2501.000000	1.049734
2500.000000	1.049893
2499.000000	1.050044
2498.000000	1.050181
2497.000000	1.050299
2496.000000	1.050400
2495.000000	1.050500
2494.000000	1.050615
2493.000000	1.050743
2492.000000	1.050867
2491.000000	1.050976
2490.000000	1.051073
2489.000000	1.051171
2488.000000	1.051274
2487.000000	1.051384
2486.000000	1.051505
2485.000000	1.051631
2484.000000	1.051747
2483.000000	1.051839
2482.000000	1.051906
2481.000000	1.051958
2480.000000	1.052005
2479.000000	1.052054
2478.000000	1.052112
2477.000000	1.052178
2476.000000	1.052247
2475.000000	1.052307
2474.000000	1.052354
2473.000000	1.052389
2472.000000	1.052412
2471.000000	1.052429
2470.000000	1.052451
2469.000000	1.052494
2468.000000	1.052562
2467.000000	1.052651
2466.000000	1.052747
2465.000000	1.052831
2464.000000	1.052882
2463.000000	1.052892
2462.000000	1.052879
2461.000000	1.052873
2460.000000	1.052890
2459.000000	1.052920
2458.000000	1.052949
2457.000000	1.052970
2456.000000	1.052982
2455.000000	1.052979
2454.000000	1.052958
2453.000000	1.052925
2452.000000	1.052896
2451.000000	1.052885
2450.000000	1.052888
2449.000000	1.052887
2448.000000	1.052864
2447.000000	1.052820
2446.000000	1.052776
2445.000000	1.052748
2444.000000	1.052732
2443.000000	1.052718
2442.000000	1.052699
2441.000000	1.052678
2440.000000	1.052651
2439.000000	1.052615
2438.000000	1.052572
2437.000000	1.052531
2436.000000	1.052494
2435.000000	1.052452
2434.000000	1.052403
2433.000000	1.052357
2432.000000	1.052323
2431.000000	1.052293
2430.000000	1.052251
2429.000000	1.052188
2428.000000	1.052114
2427.000000	1.052041
2426.000000	1.051978
2425.000000	1.051928
2424.000000	1.051889
2423.000000	1.051856
2422.000000	1.051820
2421.000000	1.051775
2420.000000	1.051718
2419.000000	1.051650
2418.000000	1.051575
2417.000000	1.051506
2416.000000	1.051450
2415.000000	1.051403
2414.000000	1.051349
2413.000000	1.051282
2412.000000	1.051214
2411.000000	1.051163
2410.000000	1.051129
2409.000000	1.051096
2408.000000	1.051047
2407.000000	1.050983
2406.000000	1.050916
2405.000000	1.050858
2404.000000	1.050815
2403.000000	1.050785
2402.000000	1.050759
2401.000000	1.050737
2400.000000	1.050720
2399.000000	1.050710
2398.000000	1.050704
2397.000000	1.050689
2396.000000	1.050655
2395.000000	1.050605
2394.000000	1.050551
2393.000000	1.050510
2392.000000	1.050490
2391.000000	1.050486
2390.000000	1.050486
2389.000000	1.050485
2388.000000	1.050487
2387.000000	1.050490
2386.000000	1.050484
2385.000000	1.050457
2384.000000	1.050410
2383.000000	1.050357
2382.000000	1.050304
2381.000000	1.050244
2380.000000	1.050168
2379.000000	1.050080
2378.000000	1.049983
2377.000000	1.049868
2376.000000	1.049718
2375.000000	1.049527
2374.000000	1.049310
2373.000000	1.049090
2372.000000	1.048877
2371.000000	1.048666
2370.000000	1.048443
2369.000000	1.048207
2368.000000	1.047979
2367.000000	1.047782
2366.000000	1.047629
2365.000000	1.047521
2364.000000	1.047456
2363.000000	1.047437
2362.000000	1.047465
2361.000000	1.047530
2360.000000	1.047628
2359.000000	1.047762
2358.000000	1.047936
2357.000000	1.048146
2356.000000	1.048383
2355.000000	1.048651
2354.000000	1.048962
2353.000000	1.049324
2352.000000	1.049726
2351.000000	1.050140
2350.000000	1.050528
2349.000000	1.050867
2348.000000	1.051172
2347.000000	1.051505
2346.000000	1.051941
2345.000000	1.052525
2344.000000	1.053245
2343.000000	1.054027
2342.000000	1.054735
2341.000000	1.055178
2340.000000	1.055171
2339.000000	1.054653
2338.000000	1.053751
2337.000000	1.052721
2336.000000	1.051815
2335.000000	1.051166
2334.000000	1.050775
2333.000000	1.050576
2332.000000	1.050497
2331.000000	1.050495
2330.000000	1.050547
2329.000000	1.050640
2328.000000	1.050763
2327.000000	1.050907
2326.000000	1.051063
2325.000000	1.051216
2324.000000	1.051352
2323.000000	1.051469
2322.000000	1.051570
2321.000000	1.051662
2320.000000	1.051755
2319.000000	1.051859
2318.000000	1.051981
2317.000000	1.052115
2316.000000	1.052246
2315.000000	1.052370
2314.000000	1.052494
2313.000000	1.052619
2312.000000	1.052734
2311.000000	1.052834
2310.000000	1.052926
2309.000000	1.053020
2308.000000	1.053113
2307.000000	1.053194
2306.000000	1.053262
2305.000000	1.053327
2304.000000	1.053393
2303.000000	1.053455
2302.000000	1.053505
2301.000000	1.053546
2300.000000	1.053585
2299.000000	1.053635
2298.000000	1.053706
2297.000000	1.053800
2296.000000	1.053899
2295.000000	1.053974
2294.000000	1.054011
2293.000000	1.054025
2292.000000	1.054051
2291.000000	1.054108
2290.000000	1.054182
2289.000000	1.054245
2288.000000	1.054288
2287.000000	1.054325
2286.000000	1.054372
2285.000000	1.054428
2284.000000	1.054488
2283.000000	1.054553
2282.000000	1.054629
2281.000000	1.054701
2280.000000	1.054751
2279.000000	1.054783
2278.000000	1.054823
2277.000000	1.054884
2276.000000	1.054947
2275.000000	1.054988
2274.000000	1.055006
2273.000000	1.055018
2272.000000	1.055042
2271.000000	1.055079
2270.000000	1.055124
2269.000000	1.055172
2268.000000	1.055212
2267.000000	1.055235
2266.000000	1.055246
2265.000000	1.055264
2264.000000	1.055304
2263.000000	1.055364
2262.000000	1.055426
2261.000000	1.055470
2260.000000	1.055495
2259.000000	1.055514
2258.000000	1.055543
2257.000000	1.055584
2256.000000	1.055633
2255.000000	1.055679
2254.000000	1.055718
2253.000000	1.055749
2252.000000	1.055775
2251.000000	1.055803
2250.000000	1.055841
2249.000000	1.055880
2248.000000	1.055908
2247.000000	1.055921
2246.000000	1.055930
2245.000000	1.055952
2244.000000	1.055993
2243.000000	1.056046
2242.000000	1.056096
2241.000000	1.056129
2240.000000	1.056137
2239.000000	1.056131
2238.000000	1.056135
2237.000000	1.056164
2236.000000	1.056211
2235.000000	1.056262
2234.000000	1.056307
2233.000000	1.056347
2232.000000	1.056381
2231.000000	1.056410
2230.000000	1.056435
2229.000000	1.056456
2228.000000	1.056465
2227.000000	1.056462
2226.000000	1.056451
2225.000000	1.056440
2224.000000	1.056429
2223.000000	1.056428
2222.000000	1.056451
2221.000000	1.056502
2220.000000	1.056561
2219.000000	1.056598
2218.000000	1.056612
2217.000000	1.056621
2216.000000	1.056636
2215.000000	1.056649
2214.000000	1.056645
2213.000000	1.056629
2212.000000	1.056610
2211.000000	1.056597
2210.000000	1.056594
2209.000000	1.056602
2208.000000	1.056619
2207.000000	1.056638
2206.000000	1.056651
2205.000000	1.056655
2204.000000	1.056651
2203.000000	1.056644
2202.000000	1.056639
2201.000000	1.056637
2200.000000	1.056637
2199.000000	1.056635
2198.000000	1.056625
2197.000000	1.056606
2196.000000	1.056579
2195.000000	1.056548
2194.000000	1.056522
2193.000000	1.056511
2192.000000	1.056516
2191.000000	1.056527
2190.000000	1.056531
2189.000000	1.056522
2188.000000	1.056508
2187.000000	1.056500
2186.000000	1.056500
2185.000000	1.056501
2184.000000	1.056496
2183.000000	1.056484
2182.000000	1.056466
2181.000000	1.056440
2180.000000	1.056397
2179.000000	1.056339
2178.000000	1.056278
2177.000000	1.056223
2176.000000	1.056179
2175.000000	1.056149
2174.000000	1.056131
2173.000000	1.056122
2172.000000	1.056112
2171.000000	1.056097
2170.000000	1.056081
2169.000000	1.056068
2168.000000	1.056048
2167.000000	1.056007
2166.000000	1.055947
2165.000000	1.055882
2164.000000	1.055826
2163.000000	1.055781
2162.000000	1.055744
2161.000000	1.055708
2160.000000	1.055671
2159.000000	1.055633
2158.000000	1.055592
2157.000000	1.055540
2156.000000	1.055475
2155.000000	1.055401
2154.000000	1.055333
2153.000000	1.055276
2152.000000	1.055226
2151.000000	1.055178
2150.000000	1.055130
2149.000000	1.055079
2148.000000	1.055018
2147.000000	1.054945
2146.000000	1.054876
2145.000000	1.054823
2144.000000	1.054781
2143.000000	1.054726
2142.000000	1.054644
2141.000000	1.054545
2140.000000	1.054451
2139.000000	1.054376
2138.000000	1.054316
2137.000000	1.054260
2136.000000	1.054199
2135.000000	1.054130
2134.000000	1.054054
2133.000000	1.053972
2132.000000	1.053880
2131.000000	1.053784
2130.000000	1.053697
2129.000000	1.053629
2128.000000	1.053573
2127.000000	1.053508
2126.000000	1.053418
2125.000000	1.053301
2124.000000	1.053174
2123.000000	1.053053
2122.000000	1.052951
2121.000000	1.052863
2120.000000	1.052782
2119.000000	1.052702
2118.000000	1.052615
2117.000000	1.052515
2116.000000	1.052394
2115.000000	1.052261
2114.000000	1.052136
2113.000000	1.052026
2112.000000	1.051921
2111.000000	1.051810
2110.000000	1.051696
2109.000000	1.051587
2108.000000	1.051479
2107.000000	1.051362
2106.000000	1.051237
2105.000000	1.051111
2104.000000	1.050987
2103.000000	1.050865
2102.000000	1.050744
2101.000000	1.050630
2100.000000	1.050518
2099.000000	1.050397
2098.000000	1.050264
2097.000000	1.050127
2096.000000	1.049992
2095.000000	1.049858
2094.000000	1.049720
2093.000000	1.049580
2092.000000	1.049444
2091.000000	1.049317
2090.000000	1.049199
2089.000000	1.049082
2088.000000	1.048956
2087.000000	1.048818
2086.000000	1.048671
2085.000000	1.048523
2084.000000	1.048377
2083.000000	1.048235
2082.000000	1.048100
2081.000000	1.047975
2080.000000	1.047851
2079.000000	1.047718
2078.000000	1.047575
2077.000000	1.047429
2076.000000	1.047285
2075.000000	1.047145
2074.000000	1.047006
2073.000000	1.046866
2072.000000	1.046721
2071.000000	1.046568
2070.000000	1.046409
2069.000000	1.046251
2068.000000	1.046099
2067.000000	1.045951
2066.000000	1.045806
2065.000000	1.045664
2064.000000	1.045522
2063.000000	1.045375
2062.000000	1.045219
2061.000000	1.045059
2060.000000	1.044907
2059.000000	1.044768
2058.000000	1.044638
2057.000000	1.044505
2056.000000	1.044362
2055.000000	1.044211
2054.000000	1.044057
2053.000000	1.043900
2052.000000	1.043732
2051.000000	1.043559
2050.000000	1.043396
2049.000000	1.043258
2048.000000	1.043139
2047.000000	1.043025
2046.000000	1.042906
2045.000000	1.042777
2044.000000	1.042634
2043.000000	1.042479
2042.000000	1.042317
2041.000000	1.042157
2040.000000	1.041999
2039.000000	1.041842
2038.000000	1.041692
2037.000000	1.041563
2036.000000	1.041460
2035.000000	1.041370
2034.000000	1.041271
2033.000000	1.041155
2032.000000	1.041027
2031.000000	1.040892
2030.000000	1.040748
2029.000000	1.040592
2028.000000	1.040431
2027.000000	1.040280
2026.000000	1.040151
2025.000000	1.040041
2024.000000	1.039934
2023.000000	1.039816
2022.000000	1.039682
2021.000000	1.039539
2020.000000	1.039401
2019.000000	1.039281
2018.000000	1.039184
2017.000000	1.039099
2016.000000	1.039011
2015.000000	1.038910
2014.000000	1.038797
2013.000000	1.038677
2012.000000	1.038559
2011.000000	1.038447
2010.000000	1.038342
2009.000000	1.038234
2008.000000	1.038121
2007.000000	1.038009
2006.000000	1.037909
2005.000000	1.037816
2004.000000	1.037715
2003.000000	1.037598
2002.000000	1.037482
2001.000000	1.037382
2000.000000	1.037297
1999.000000	1.037214
1998.000000	1.037131
1997.000000	1.037057
1996.000000	1.036995
1995.000000	1.036934
1994.000000	1.036861
1993.000000	1.036771
1992.000000	1.036671
1991.000000	1.036566
1990.000000	1.036461
1989.000000	1.036356
1988.000000	1.036253
1987.000000	1.036166
1986.000000	1.036102
1985.000000	1.036059
1984.000000	1.036022
1983.000000	1.035976
1982.000000	1.035918
1981.000000	1.035851
1980.000000	1.035778
1979.000000	1.035702
1978.000000	1.035627
1977.000000	1.035553
1976.000000	1.035479
1975.000000	1.035412
1974.000000	1.035359
1973.000000	1.035320
1972.000000	1.035284
1971.000000	1.035240
1970.000000	1.035188
1969.000000	1.035130
1968.000000	1.035066
1967.000000	1.035001
1966.000000	1.034944
1965.000000	1.034901
1964.000000	1.034868
1963.000000	1.034836
1962.000000	1.034803
1961.000000	1.034769
1960.000000	1.034734
1959.000000	1.034700
1958.000000	1.034670
1957.000000	1.034644
1956.000000	1.034613
1955.000000	1.034577
1954.000000	1.034546
1953.000000	1.034525
1952.000000	1.034504
1951.000000	1.034477
1950.000000	1.034447
1949.000000	1.034415
1948.000000	1.034375
1947.000000	1.034325
1946.000000	1.034283
1945.000000	1.034257
1944.000000	1.034237
1943.000000	1.034206
1942.000000	1.034172
1941.000000	1.034156
1940.000000	1.034161
1939.000000	1.034170
1938.000000	1.034170
1937.000000	1.034172
1936.000000	1.034184
1935.000000	1.034198
1934.000000	1.034201
1933.000000	1.034193
1932.000000	1.034181
1931.000000	1.034167
1930.000000	1.034146
1929.000000	1.034116
1928.000000	1.034085
1927.000000	1.034069
1926.000000	1.034073
1925.000000	1.034089
1924.000000	1.034112
1923.000000	1.034148
1922.000000	1.034190
1921.000000	1.034205
1920.000000	1.034163
1919.000000	1.034090
1918.000000	1.034059
1917.000000	1.034107
1916.000000	1.034198
1915.000000	1.034266
1914.000000	1.034289
1913.000000	1.034289
1912.000000	1.034286
1911.000000	1.034283
1910.000000	1.034289
1909.000000	1.034316
1908.000000	1.034367
1907.000000	1.034424
1906.000000	1.034471
1905.000000	1.034506
1904.000000	1.034526
1903.000000	1.034531
1902.000000	1.034525
1901.000000	1.034524
1900.000000	1.034537
1899.000000	1.034566
1898.000000	1.034604
1897.000000	1.034639
1896.000000	1.034663
1895.000000	1.034682
1894.000000	1.034710
1893.000000	1.034746
1892.000000	1.034765
1891.000000	1.034762
1890.000000	1.034765
1889.000000	1.034810
1888.000000	1.034892
1887.000000	1.034978
1886.000000	1.035049
1885.000000	1.035105
1884.000000	1.035149
1883.000000	1.035178
1882.000000	1.035201
1881.000000	1.035232
1880.000000	1.035266
1879.000000	1.035292
1878.000000	1.035310
1877.000000	1.035338
1876.000000	1.035386
1875.000000	1.035448
1874.000000	1.035518
1873.000000	1.035584
1872.000000	1.035611
1871.000000	1.035578
1870.000000	1.035515
1869.000000	1.035497
1868.000000	1.035565
1867.000000	1.035702
1866.000000	1.035857
1865.000000	1.035991
1864.000000	1.036089
1863.000000	1.036145
1862.000000	1.036175
1861.000000	1.036208
1860.000000	1.036261
1859.000000	1.036323
1858.000000	1.036381
1857.000000	1.036437
1856.000000	1.036496
1855.000000	1.036565
1854.000000	1.036652
1853.000000	1.036758
1852.000000	1.036862
1851.000000	1.036934
1850.000000	1.036978
1849.000000	1.037023
1848.000000	1.037073
1847.000000	1.037087
1846.000000	1.037041
1845.000000	1.036989
1844.000000	1.037024
1843.000000	1.037187
1842.000000	1.037430
1841.000000	1.037666
1840.000000	1.037840
1839.000000	1.037951
1838.000000	1.038021
1837.000000	1.038079
1836.000000	1.038143
1835.000000	1.038229
1834.000000	1.038330
1833.000000	1.038418
1832.000000	1.038462
1831.000000	1.038472
1830.000000	1.038506
1829.000000	1.038609
1828.000000	1.038755
1827.000000	1.038889
1826.000000	1.039000
1825.000000	1.039131
1824.000000	1.039313
1823.000000	1.039519
1822.000000	1.039708
1821.000000	1.039863
1820.000000	1.039993
1819.000000	1.040105
1818.000000	1.040206
1817.000000	1.040312
1816.000000	1.040435
1815.000000	1.040566
1814.000000	1.040687
1813.000000	1.040794
1812.000000	1.040894
1811.000000	1.041000
1810.000000	1.041125
1809.000000	1.041269
1808.000000	1.041419
1807.000000	1.041553
1806.000000	1.041666
1805.000000	1.041768
1804.000000	1.041864
1803.000000	1.041955
1802.000000	1.042051
1801.000000	1.042170
1800.000000	1.042319
1799.000000	1.042487
1798.000000	1.042664
1797.000000	1.042838
1796.000000	1.042975
1795.000000	1.043037
1794.000000	1.043040
1793.000000	1.043069
1792.000000	1.043207
1791.000000	1.043458
1790.000000	1.043755
1789.000000	1.044020
1788.000000	1.044207
1787.000000	1.044320
1786.000000	1.044407
1785.000000	1.044535
1784.000000	1.044724
1783.000000	1.044930
1782.000000	1.045102
1781.000000	1.045243
1780.000000	1.045392
1779.000000	1.045568
1778.000000	1.045758
1777.000000	1.045935
1776.000000	1.046062
1775.000000	1.046098
1774.000000	1.046062
1773.000000	1.046059
1772.000000	1.046204
1771.000000	1.046490
1770.000000	1.046796
1769.000000	1.047030
1768.000000	1.047220
1767.000000	1.047450
1766.000000	1.047734
1765.000000	1.047997
1764.000000	1.048173
1763.000000	1.048282
1762.000000	1.048403
1761.000000	1.048597
1760.000000	1.048839
1759.000000	1.049059
1758.000000	1.049219
1757.000000	1.049365
1756.000000	1.049558
1755.000000	1.049781
1754.000000	1.049939
1753.000000	1.049978
1752.000000	1.049958
1751.000000	1.050003
1750.000000	1.050173
1749.000000	1.050433
1748.000000	1.050712
1747.000000	1.050968
1746.000000	1.051189
1745.000000	1.051375
1744.000000	1.051526
1743.000000	1.051641
1742.000000	1.051713
1741.000000	1.051762
1740.000000	1.051856
1739.000000	1.052040
1738.000000	1.052244
1737.000000	1.052295
1736.000000	1.052113
1735.000000	1.051861
1734.000000	1.051827
1733.000000	1.052132
1732.000000	1.052612
1731.000000	1.053025
1730.000000	1.053280
1729.000000	1.053450
1728.000000	1.053614
1727.000000	1.053773
1726.000000	1.053897
1725.000000	1.053988
1724.000000	1.054065
1723.000000	1.054137
1722.000000	1.054179
1721.000000	1.054126
1720.000000	1.053917
1719.000000	1.053598
1718.000000	1.053352
1717.000000	1.053361
1716.000000	1.053631
1715.000000	1.054003
1714.000000	1.054331
1713.000000	1.054576
1712.000000	1.054743
1711.000000	1.054818
1710.000000	1.054815
1709.000000	1.054783
1708.000000	1.054748
1707.000000	1.054698
1706.000000	1.054666
1705.000000	1.054714
1704.000000	1.054782
1703.000000	1.054675
1702.000000	1.054316
1701.000000	1.053934
1700.000000	1.053836
1699.000000	1.054021
1698.000000	1.054192
1697.000000	1.054176
1696.000000	1.054146
1695.000000	1.054359
1694.000000	1.054803
1693.000000	1.055215
1692.000000	1.055405
1691.000000	1.055418
1690.000000	1.055403
1689.000000	1.055404
1688.000000	1.055308
1687.000000	1.054987
1686.000000	1.054495
1685.000000	1.054107
1684.000000	1.054100
1683.000000	1.054483
1682.000000	1.054990
1681.000000	1.055361
1680.000000	1.055539
1679.000000	1.055597
1678.000000	1.055565
1677.000000	1.055436
1676.000000	1.055287
1675.000000	1.055263
1674.000000	1.055397
1673.000000	1.055551
1672.000000	1.055566
1671.000000	1.055442
1670.000000	1.055324
1669.000000	1.055340
1668.000000	1.055498
1667.000000	1.055698
1666.000000	1.055816
1665.000000	1.055793
1664.000000	1.055680
1663.000000	1.055609
1662.000000	1.055671
1661.000000	1.055833
1660.000000	1.055986
1659.000000	1.056064
1658.000000	1.056061
1657.000000	1.055918
1656.000000	1.055508
1655.000000	1.054811
1654.000000	1.054100
1653.000000	1.053816
1652.000000	1.054159
1651.000000	1.054858
1650.000000	1.055423
1649.000000	1.055574
1648.000000	1.055414
1647.000000	1.055239
1646.000000	1.055261
1645.000000	1.055495
1644.000000	1.055815
1643.000000	1.056076
1642.000000	1.056207
1641.000000	1.056229
1640.000000	1.056182
1639.000000	1.056047
1638.000000	1.055778
1637.000000	1.055429
1636.000000	1.055191
1635.000000	1.055237
1634.000000	1.055544
1633.000000	1.055916
1632.000000	1.056166
1631.000000	1.056247
1630.000000	1.056222
1629.000000	1.056173
1628.000000	1.056143
1627.000000	1.056129
1626.000000	1.056095
1625.000000	1.056009
1624.000000	1.055897
1623.000000	1.055837
1622.000000	1.055878
1621.000000	1.055961
1620.000000	1.055941
1619.000000	1.055727
1618.000000	1.055412
1617.000000	1.055225
1616.000000	1.055338
1615.000000	1.055695
1614.000000	1.056070
1613.000000	1.056289
1612.000000	1.056351
1611.000000	1.056349
1610.000000	1.056339
1609.000000	1.056319
1608.000000	1.056299
1607.000000	1.056309
1606.000000	1.056349
1605.000000	1.056381
1604.000000	1.056376
1603.000000	1.056352
1602.000000	1.056335
1601.000000	1.056333
1600.000000	1.056341
1599.000000	1.056355
1598.000000	1.056368
1597.000000	1.056373
1596.000000	1.056369
1595.000000	1.056368
1594.000000	1.056373
1593.000000	1.056375
1592.000000	1.056368
1591.000000	1.056362
1590.000000	1.056368
1589.000000	1.056386
1588.000000	1.056403
1587.000000	1.056415
1586.000000	1.056422
1585.000000	1.056424
1584.000000	1.056424
1583.000000	1.056431
1582.000000	1.056455
1581.000000	1.056479
1580.000000	1.056435
1579.000000	1.056227
1578.000000	1.055850
1577.000000	1.055469
1576.000000	1.055338
1575.000000	1.055554
1574.000000	1.055936
1573.000000	1.056186
1572.000000	1.056172
1571.000000	1.056008
1570.000000	1.055893
1569.000000	1.055924
1568.000000	1.056054
1567.000000	1.056191
1566.000000	1.056280
1565.000000	1.056322
1564.000000	1.056316
1563.000000	1.056189
1562.000000	1.055819
1561.000000	1.055197
1560.000000	1.054561
1559.000000	1.054279
1558.000000	1.054497
1557.000000	1.054991
1556.000000	1.055428
1555.000000	1.055682
1554.000000	1.055845
1553.000000	1.056002
1552.000000	1.056120
1551.000000	1.056156
1550.000000	1.056157
1549.000000	1.056185
1548.000000	1.056219
1547.000000	1.056189
1546.000000	1.056063
1545.000000	1.055870
1544.000000	1.055628
1543.000000	1.055319
1542.000000	1.054940
1541.000000	1.054585
1540.000000	1.054439
1539.000000	1.054653
1538.000000	1.055164
1537.000000	1.055690
1536.000000	1.055958
1535.000000	1.055946
1534.000000	1.055867
1533.000000	1.055920
1532.000000	1.056095
1531.000000	1.056247
1530.000000	1.056279
1529.000000	1.056202
1528.000000	1.056073
1527.000000	1.055951
1526.000000	1.055884
1525.000000	1.055846
1524.000000	1.055736
1523.000000	1.055500
1522.000000	1.055254
1521.000000	1.055197
1520.000000	1.055375
1519.000000	1.055627
1518.000000	1.055778
1517.000000	1.055822
1516.000000	1.055864
1515.000000	1.055949
1514.000000	1.056029
1513.000000	1.056069
1512.000000	1.056083
1511.000000	1.056057
1510.000000	1.055901
1509.000000	1.055546
1508.000000	1.055084
1507.000000	1.054763
1506.000000	1.054807
1505.000000	1.055217
1504.000000	1.055763
1503.000000	1.056176
1502.000000	1.056343
1501.000000	1.056327
1500.000000	1.056230
