PE IR       SUBTECH     SPECTRUM    ASCII       PEDS        4.00        
   -1
TE108B1_017.ASC
20/02/21
15:21:50.00
20/02/21
15:21:50.00
Administrator
Sample 017 By Administrator Date Friday, February 21 2020
1500.000000
#HDR
-1
-1
#GR
cm-1
A
1.0
0.0
4000.000000
-1.000000
2501
8
1.073198
0.987082
#DATA
4000.000000	1.002100
3999.000000	1.002187
3998.000000	1.002229
3997.000000	1.002225
3996.000000	1.002194
3995.000000	1.002166
3994.000000	1.002163
3993.000000	1.002188
3992.000000	1.002216
3991.000000	1.002217
3990.000000	1.002173
3989.000000	1.002095
3988.000000	1.002011
3987.000000	1.001949
3986.000000	1.001915
3985.000000	1.001898
3984.000000	1.001878
3983.000000	1.001843
3982.000000	1.001788
3981.000000	1.001726
3980.000000	1.001678
3979.000000	1.001663
3978.000000	1.001676
3977.000000	1.001692
3976.000000	1.001683
3975.000000	1.001640
3974.000000	1.001569
3973.000000	1.001479
3972.000000	1.001379
3971.000000	1.001282
3970.000000	1.001202
3969.000000	1.001148
3968.000000	1.001114
3967.000000	1.001083
3966.000000	1.001038
3965.000000	1.000966
3964.000000	1.000866
3963.000000	1.000750
3962.000000	1.000638
3961.000000	1.000549
3960.000000	1.000487
3959.000000	1.000440
3958.000000	1.000386
3957.000000	1.000301
3956.000000	1.000180
3955.000000	1.000034
3954.000000	0.999885
3953.000000	0.999749
3952.000000	0.999634
3951.000000	0.999539
3950.000000	0.999462
3949.000000	0.999402
3948.000000	0.999352
3947.000000	0.999301
3946.000000	0.999226
3945.000000	0.999114
3944.000000	0.998972
3943.000000	0.998825
3942.000000	0.998694
3941.000000	0.998577
3940.000000	0.998452
3939.000000	0.998309
3938.000000	0.998163
3937.000000	0.998037
3936.000000	0.997939
3935.000000	0.997853
3934.000000	0.997758
3933.000000	0.997646
3932.000000	0.997535
3931.000000	0.997439
3930.000000	0.997356
3929.000000	0.997257
3928.000000	0.997121
3927.000000	0.996952
3926.000000	0.996783
3925.000000	0.996640
3924.000000	0.996523
3923.000000	0.996405
3922.000000	0.996265
3921.000000	0.996102
3920.000000	0.995934
3919.000000	0.995778
3918.000000	0.995642
3917.000000	0.995522
3916.000000	0.995415
3915.000000	0.995316
3914.000000	0.995218
3913.000000	0.995109
3912.000000	0.994981
3911.000000	0.994840
3910.000000	0.994697
3909.000000	0.994551
3908.000000	0.994379
3907.000000	0.994151
3906.000000	0.993865
3905.000000	0.993569
3904.000000	0.993333
3903.000000	0.993194
3902.000000	0.993127
3901.000000	0.993072
3900.000000	0.992996
3899.000000	0.992916
3898.000000	0.992872
3897.000000	0.992870
3896.000000	0.992872
3895.000000	0.992823
3894.000000	0.992691
3893.000000	0.992498
3892.000000	0.992304
3891.000000	0.992161
3890.000000	0.992071
3889.000000	0.991985
3888.000000	0.991846
3887.000000	0.991653
3886.000000	0.991467
3885.000000	0.991354
3884.000000	0.991321
3883.000000	0.991308
3882.000000	0.991249
3881.000000	0.991135
3880.000000	0.991011
3879.000000	0.990918
3878.000000	0.990851
3877.000000	0.990782
3876.000000	0.990705
3875.000000	0.990638
3874.000000	0.990573
3873.000000	0.990458
3872.000000	0.990247
3871.000000	0.989973
3870.000000	0.989738
3869.000000	0.989632
3868.000000	0.989647
3867.000000	0.989689
3866.000000	0.989675
3865.000000	0.989600
3864.000000	0.989518
3863.000000	0.989476
3862.000000	0.989467
3861.000000	0.989465
3860.000000	0.989453
3859.000000	0.989412
3858.000000	0.989279
3857.000000	0.988975
3856.000000	0.988480
3855.000000	0.987909
3854.000000	0.987476
3853.000000	0.987366
3852.000000	0.987600
3851.000000	0.988031
3850.000000	0.988448
3849.000000	0.988708
3848.000000	0.988785
3847.000000	0.988733
3846.000000	0.988618
3845.000000	0.988486
3844.000000	0.988367
3843.000000	0.988273
3842.000000	0.988183
3841.000000	0.988042
3840.000000	0.987819
3839.000000	0.987561
3838.000000	0.987371
3837.000000	0.987337
3836.000000	0.987454
3835.000000	0.987633
3834.000000	0.987779
3833.000000	0.987858
3832.000000	0.987898
3831.000000	0.987940
3830.000000	0.987985
3829.000000	0.988006
3828.000000	0.987987
3827.000000	0.987946
3826.000000	0.987910
3825.000000	0.987869
3824.000000	0.987780
3823.000000	0.987625
3822.000000	0.987454
3821.000000	0.987355
3820.000000	0.987357
3819.000000	0.987390
3818.000000	0.987346
3817.000000	0.987208
3816.000000	0.987082
3815.000000	0.987106
3814.000000	0.987312
3813.000000	0.987604
3812.000000	0.987850
3811.000000	0.987967
3810.000000	0.987938
3809.000000	0.987797
3808.000000	0.987624
3807.000000	0.987521
3806.000000	0.987545
3805.000000	0.987636
3804.000000	0.987660
3803.000000	0.987543
3802.000000	0.987363
3801.000000	0.987283
3800.000000	0.987397
3799.000000	0.987648
3798.000000	0.987899
3797.000000	0.988064
3796.000000	0.988156
3795.000000	0.988239
3794.000000	0.988344
3793.000000	0.988454
3792.000000	0.988546
3791.000000	0.988620
3790.000000	0.988688
3789.000000	0.988750
3788.000000	0.988789
3787.000000	0.988790
3786.000000	0.988770
3785.000000	0.988764
3784.000000	0.988802
3783.000000	0.988873
3782.000000	0.988939
3781.000000	0.988965
3780.000000	0.988960
3779.000000	0.988974
3778.000000	0.989051
3777.000000	0.989187
3776.000000	0.989338
3775.000000	0.989454
3774.000000	0.989516
3773.000000	0.989529
3772.000000	0.989511
3771.000000	0.989497
3770.000000	0.989525
3769.000000	0.989613
3768.000000	0.989735
3767.000000	0.989847
3766.000000	0.989930
3765.000000	0.990004
3764.000000	0.990093
3763.000000	0.990187
3762.000000	0.990252
3761.000000	0.990270
3760.000000	0.990264
3759.000000	0.990286
3758.000000	0.990373
3757.000000	0.990511
3756.000000	0.990623
3755.000000	0.990619
3754.000000	0.990447
3753.000000	0.990150
3752.000000	0.989858
3751.000000	0.989722
3750.000000	0.989827
3749.000000	0.990119
3748.000000	0.990425
3747.000000	0.990558
3746.000000	0.990471
3745.000000	0.990317
3744.000000	0.990339
3743.000000	0.990663
3742.000000	0.991187
3741.000000	0.991684
3740.000000	0.991977
3739.000000	0.992048
3738.000000	0.991988
3737.000000	0.991910
3736.000000	0.991887
3735.000000	0.991950
3734.000000	0.992094
3733.000000	0.992297
3732.000000	0.992540
3731.000000	0.992816
3730.000000	0.993098
3729.000000	0.993340
3728.000000	0.993505
3727.000000	0.993609
3726.000000	0.993706
3725.000000	0.993844
3724.000000	0.994030
3723.000000	0.994243
3722.000000	0.994471
3721.000000	0.994710
3720.000000	0.994956
3719.000000	0.995199
3718.000000	0.995435
3717.000000	0.995659
3716.000000	0.995858
3715.000000	0.996011
3714.000000	0.996119
3713.000000	0.996224
3712.000000	0.996395
3711.000000	0.996678
3710.000000	0.997067
3709.000000	0.997517
3708.000000	0.997984
3707.000000	0.998444
3706.000000	0.998881
3705.000000	0.999284
3704.000000	0.999648
3703.000000	0.999995
3702.000000	1.000372
3701.000000	1.000819
3700.000000	1.001341
3699.000000	1.001906
3698.000000	1.002477
3697.000000	1.003030
3696.000000	1.003548
3695.000000	1.004022
3694.000000	1.004453
3693.000000	1.004848
3692.000000	1.005211
3691.000000	1.005537
3690.000000	1.005850
3689.000000	1.006229
3688.000000	1.006775
3687.000000	1.007529
3686.000000	1.008425
3685.000000	1.009331
3684.000000	1.010146
3683.000000	1.010859
3682.000000	1.011517
3681.000000	1.012170
3680.000000	1.012820
3679.000000	1.013424
3678.000000	1.013945
3677.000000	1.014426
3676.000000	1.014993
3675.000000	1.015758
3674.000000	1.016695
3673.000000	1.017638
3672.000000	1.018440
3671.000000	1.019115
3670.000000	1.019820
3669.000000	1.020689
3668.000000	1.021710
3667.000000	1.022761
3666.000000	1.023734
3665.000000	1.024600
3664.000000	1.025392
3663.000000	1.026156
3662.000000	1.026916
3661.000000	1.027672
3660.000000	1.028393
3659.000000	1.029047
3658.000000	1.029635
3657.000000	1.030221
3656.000000	1.030881
3655.000000	1.031633
3654.000000	1.032398
3653.000000	1.033050
3652.000000	1.033528
3651.000000	1.033893
3650.000000	1.034287
3649.000000	1.034833
3648.000000	1.035552
3647.000000	1.036374
3646.000000	1.037199
3645.000000	1.037955
3644.000000	1.038619
3643.000000	1.039199
3642.000000	1.039715
3641.000000	1.040180
3640.000000	1.040609
3639.000000	1.041022
3638.000000	1.041435
3637.000000	1.041844
3636.000000	1.042239
3635.000000	1.042622
3634.000000	1.043000
3633.000000	1.043350
3632.000000	1.043609
3631.000000	1.043748
3630.000000	1.043845
3629.000000	1.044054
3628.000000	1.044475
3627.000000	1.045053
3626.000000	1.045632
3625.000000	1.046083
3624.000000	1.046382
3623.000000	1.046570
3622.000000	1.046690
3621.000000	1.046777
3620.000000	1.046882
3619.000000	1.047064
3618.000000	1.047342
3617.000000	1.047672
3616.000000	1.047979
3615.000000	1.048217
3614.000000	1.048386
3613.000000	1.048511
3612.000000	1.048611
3611.000000	1.048691
3610.000000	1.048769
3609.000000	1.048885
3608.000000	1.049076
3607.000000	1.049336
3606.000000	1.049613
3605.000000	1.049845
3604.000000	1.050003
3603.000000	1.050100
3602.000000	1.050162
3601.000000	1.050211
3600.000000	1.050266
3599.000000	1.050344
3598.000000	1.050448
3597.000000	1.050561
3596.000000	1.050664
3595.000000	1.050754
3594.000000	1.050841
3593.000000	1.050932
3592.000000	1.051014
3591.000000	1.051059
3590.000000	1.051054
3589.000000	1.051011
3588.000000	1.050980
3587.000000	1.051010
3586.000000	1.051121
3585.000000	1.051282
3584.000000	1.051436
3583.000000	1.051543
3582.000000	1.051595
3581.000000	1.051612
3580.000000	1.051618
3579.000000	1.051622
3578.000000	1.051622
3577.000000	1.051616
3576.000000	1.051611
3575.000000	1.051628
3574.000000	1.051680
3573.000000	1.051758
3572.000000	1.051826
3571.000000	1.051846
3570.000000	1.051807
3569.000000	1.051732
3568.000000	1.051672
3567.000000	1.051665
3566.000000	1.051718
3565.000000	1.051807
3564.000000	1.051901
3563.000000	1.051976
3562.000000	1.052022
3561.000000	1.052045
3560.000000	1.052062
3559.000000	1.052095
3558.000000	1.052151
3557.000000	1.052226
3556.000000	1.052297
3555.000000	1.052342
3554.000000	1.052351
3553.000000	1.052335
3552.000000	1.052319
3551.000000	1.052319
3550.000000	1.052322
3549.000000	1.052301
3548.000000	1.052254
3547.000000	1.052217
3546.000000	1.052233
3545.000000	1.052315
3544.000000	1.052430
3543.000000	1.052539
3542.000000	1.052618
3541.000000	1.052666
3540.000000	1.052690
3539.000000	1.052701
3538.000000	1.052711
3537.000000	1.052733
3536.000000	1.052777
3535.000000	1.052843
3534.000000	1.052922
3533.000000	1.052997
3532.000000	1.053052
3531.000000	1.053082
3530.000000	1.053095
3529.000000	1.053107
3528.000000	1.053130
3527.000000	1.053162
3526.000000	1.053196
3525.000000	1.053224
3524.000000	1.053250
3523.000000	1.053288
3522.000000	1.053351
3521.000000	1.053442
3520.000000	1.053551
3519.000000	1.053663
3518.000000	1.053763
3517.000000	1.053838
3516.000000	1.053887
3515.000000	1.053919
3514.000000	1.053952
3513.000000	1.054000
3512.000000	1.054064
3511.000000	1.054144
3510.000000	1.054238
3509.000000	1.054342
3508.000000	1.054446
3507.000000	1.054539
3506.000000	1.054617
3505.000000	1.054686
3504.000000	1.054759
3503.000000	1.054846
3502.000000	1.054942
3501.000000	1.055027
3500.000000	1.055087
3499.000000	1.055130
3498.000000	1.055182
3497.000000	1.055264
3496.000000	1.055376
3495.000000	1.055503
3494.000000	1.055631
3493.000000	1.055751
3492.000000	1.055856
3491.000000	1.055939
3490.000000	1.056006
3489.000000	1.056068
3488.000000	1.056144
3487.000000	1.056240
3486.000000	1.056352
3485.000000	1.056466
3484.000000	1.056572
3483.000000	1.056672
3482.000000	1.056782
3481.000000	1.056922
3480.000000	1.057090
3479.000000	1.057266
3478.000000	1.057428
3477.000000	1.057567
3476.000000	1.057693
3475.000000	1.057808
3474.000000	1.057903
3473.000000	1.057969
3472.000000	1.058011
3471.000000	1.058052
3470.000000	1.058116
3469.000000	1.058217
3468.000000	1.058357
3467.000000	1.058528
3466.000000	1.058720
3465.000000	1.058917
3464.000000	1.059102
3463.000000	1.059266
3462.000000	1.059409
3461.000000	1.059539
3460.000000	1.059662
3459.000000	1.059769
3458.000000	1.059859
3457.000000	1.059943
3456.000000	1.060048
3455.000000	1.060187
3454.000000	1.060348
3453.000000	1.060509
3452.000000	1.060668
3451.000000	1.060833
3450.000000	1.061009
3449.000000	1.061186
3448.000000	1.061355
3447.000000	1.061519
3446.000000	1.061675
3445.000000	1.061808
3444.000000	1.061913
3443.000000	1.062005
3442.000000	1.062115
3441.000000	1.062264
3440.000000	1.062437
3439.000000	1.062603
3438.000000	1.062737
3437.000000	1.062839
3436.000000	1.062932
3435.000000	1.063038
3434.000000	1.063157
3433.000000	1.063277
3432.000000	1.063397
3431.000000	1.063529
3430.000000	1.063689
3429.000000	1.063866
3428.000000	1.064037
3427.000000	1.064181
3426.000000	1.064299
3425.000000	1.064406
3424.000000	1.064517
3423.000000	1.064636
3422.000000	1.064764
3421.000000	1.064901
3420.000000	1.065050
3419.000000	1.065211
3418.000000	1.065367
3417.000000	1.065501
3416.000000	1.065602
3415.000000	1.065689
3414.000000	1.065788
3413.000000	1.065918
3412.000000	1.066072
3411.000000	1.066229
3410.000000	1.066368
3409.000000	1.066475
3408.000000	1.066547
3407.000000	1.066592
3406.000000	1.066625
3405.000000	1.066657
3404.000000	1.066694
3403.000000	1.066733
3402.000000	1.066781
3401.000000	1.066843
3400.000000	1.066925
3399.000000	1.067015
3398.000000	1.067097
3397.000000	1.067156
3396.000000	1.067191
3395.000000	1.067213
3394.000000	1.067242
3393.000000	1.067298
3392.000000	1.067391
3391.000000	1.067508
3390.000000	1.067619
3389.000000	1.067698
3388.000000	1.067747
3387.000000	1.067793
3386.000000	1.067855
3385.000000	1.067929
3384.000000	1.068000
3383.000000	1.068050
3382.000000	1.068077
3381.000000	1.068084
3380.000000	1.068085
3379.000000	1.068099
3378.000000	1.068139
3377.000000	1.068204
3376.000000	1.068284
3375.000000	1.068364
3374.000000	1.068432
3373.000000	1.068478
3372.000000	1.068496
3371.000000	1.068493
3370.000000	1.068495
3369.000000	1.068532
3368.000000	1.068614
3367.000000	1.068720
3366.000000	1.068808
3365.000000	1.068848
3364.000000	1.068847
3363.000000	1.068837
3362.000000	1.068844
3361.000000	1.068869
3360.000000	1.068894
3359.000000	1.068909
3358.000000	1.068916
3357.000000	1.068925
3356.000000	1.068943
3355.000000	1.068966
3354.000000	1.068982
3353.000000	1.068989
3352.000000	1.068998
3351.000000	1.069022
3350.000000	1.069060
3349.000000	1.069096
3348.000000	1.069120
3347.000000	1.069137
3346.000000	1.069159
3345.000000	1.069189
3344.000000	1.069221
3343.000000	1.069251
3342.000000	1.069280
3341.000000	1.069307
3340.000000	1.069325
3339.000000	1.069329
3338.000000	1.069326
3337.000000	1.069331
3336.000000	1.069353
3335.000000	1.069385
3334.000000	1.069412
3333.000000	1.069424
3332.000000	1.069423
3331.000000	1.069420
3330.000000	1.069430
3329.000000	1.069460
3328.000000	1.069507
3327.000000	1.069553
3326.000000	1.069583
3325.000000	1.069603
3324.000000	1.069632
3323.000000	1.069680
3322.000000	1.069733
3321.000000	1.069769
3320.000000	1.069788
3319.000000	1.069812
3318.000000	1.069855
3317.000000	1.069909
3316.000000	1.069958
3315.000000	1.070001
3314.000000	1.070049
3313.000000	1.070101
3312.000000	1.070144
3311.000000	1.070171
3310.000000	1.070190
3309.000000	1.070217
3308.000000	1.070261
3307.000000	1.070319
3306.000000	1.070377
3305.000000	1.070420
3304.000000	1.070450
3303.000000	1.070481
3302.000000	1.070522
3301.000000	1.070559
3300.000000	1.070572
3299.000000	1.070563
3298.000000	1.070559
3297.000000	1.070593
3296.000000	1.070669
3295.000000	1.070757
3294.000000	1.070823
3293.000000	1.070857
3292.000000	1.070873
3291.000000	1.070891
3290.000000	1.070919
3289.000000	1.070954
3288.000000	1.071001
3287.000000	1.071066
3286.000000	1.071139
3285.000000	1.071197
3284.000000	1.071232
3283.000000	1.071256
3282.000000	1.071288
3281.000000	1.071331
3280.000000	1.071374
3279.000000	1.071413
3278.000000	1.071452
3277.000000	1.071487
3276.000000	1.071512
3275.000000	1.071526
3274.000000	1.071534
3273.000000	1.071538
3272.000000	1.071543
3271.000000	1.071563
3270.000000	1.071608
3269.000000	1.071666
3268.000000	1.071715
3267.000000	1.071745
3266.000000	1.071766
3265.000000	1.071793
3264.000000	1.071825
3263.000000	1.071856
3262.000000	1.071890
3261.000000	1.071922
3260.000000	1.071942
3259.000000	1.071945
3258.000000	1.071951
3257.000000	1.071986
3256.000000	1.072054
3255.000000	1.072132
3254.000000	1.072191
3253.000000	1.072223
3252.000000	1.072232
3251.000000	1.072231
3250.000000	1.072227
3249.000000	1.072228
3248.000000	1.072241
3247.000000	1.072276
3246.000000	1.072339
3245.000000	1.072421
3244.000000	1.072500
3243.000000	1.072552
3242.000000	1.072574
3241.000000	1.072577
3240.000000	1.072578
3239.000000	1.072590
3238.000000	1.072618
3237.000000	1.072661
3236.000000	1.072709
3235.000000	1.072749
3234.000000	1.072776
3233.000000	1.072793
3232.000000	1.072805
3231.000000	1.072810
3230.000000	1.072807
3229.000000	1.072798
3228.000000	1.072797
3227.000000	1.072817
3226.000000	1.072863
3225.000000	1.072922
3224.000000	1.072973
3223.000000	1.073002
3222.000000	1.073012
3221.000000	1.073017
3220.000000	1.073021
3219.000000	1.073025
3218.000000	1.073031
3217.000000	1.073046
3216.000000	1.073069
3215.000000	1.073098
3214.000000	1.073126
3213.000000	1.073155
3212.000000	1.073183
3211.000000	1.073198
3210.000000	1.073193
3209.000000	1.073176
3208.000000	1.073164
3207.000000	1.073166
3206.000000	1.073168
3205.000000	1.073151
3204.000000	1.073113
3203.000000	1.073068
3202.000000	1.073031
3201.000000	1.073006
3200.000000	1.072990
3199.000000	1.072987
3198.000000	1.073001
3197.000000	1.073030
3196.000000	1.073064
3195.000000	1.073090
3194.000000	1.073106
3193.000000	1.073115
3192.000000	1.073121
3191.000000	1.073128
3190.000000	1.073140
3189.000000	1.073152
3188.000000	1.073149
3187.000000	1.073117
3186.000000	1.073063
3185.000000	1.073010
3184.000000	1.072984
3183.000000	1.072990
3182.000000	1.073007
3181.000000	1.073007
3180.000000	1.072976
3179.000000	1.072922
3178.000000	1.072867
3177.000000	1.072839
3176.000000	1.072853
3175.000000	1.072901
3174.000000	1.072956
3173.000000	1.072997
3172.000000	1.073015
3171.000000	1.073018
3170.000000	1.073011
3169.000000	1.072994
3168.000000	1.072970
3167.000000	1.072947
3166.000000	1.072937
3165.000000	1.072945
3164.000000	1.072963
3163.000000	1.072973
3162.000000	1.072966
3161.000000	1.072946
3160.000000	1.072931
3159.000000	1.072936
3158.000000	1.072954
3157.000000	1.072963
3156.000000	1.072950
3155.000000	1.072921
3154.000000	1.072901
3153.000000	1.072911
3152.000000	1.072954
3151.000000	1.073010
3150.000000	1.073043
3149.000000	1.073028
3148.000000	1.072978
3147.000000	1.072932
3146.000000	1.072920
3145.000000	1.072933
3144.000000	1.072942
3143.000000	1.072923
3142.000000	1.072883
3141.000000	1.072842
3140.000000	1.072822
3139.000000	1.072833
3138.000000	1.072873
3137.000000	1.072919
3136.000000	1.072944
3135.000000	1.072940
3134.000000	1.072925
3133.000000	1.072922
3132.000000	1.072941
3131.000000	1.072970
3130.000000	1.072996
3129.000000	1.073015
3128.000000	1.073026
3127.000000	1.073031
3126.000000	1.073030
3125.000000	1.073025
3124.000000	1.073019
3123.000000	1.073013
3122.000000	1.073004
3121.000000	1.072989
3120.000000	1.072970
3119.000000	1.072956
3118.000000	1.072947
3117.000000	1.072937
3116.000000	1.072919
3115.000000	1.072899
3114.000000	1.072890
3113.000000	1.072894
3112.000000	1.072895
3111.000000	1.072869
3110.000000	1.072810
3109.000000	1.072737
3108.000000	1.072679
3107.000000	1.072650
3106.000000	1.072643
3105.000000	1.072645
3104.000000	1.072648
3103.000000	1.072644
3102.000000	1.072619
3101.000000	1.072563
3100.000000	1.072485
3099.000000	1.072406
3098.000000	1.072344
3097.000000	1.072299
3096.000000	1.072260
3095.000000	1.072217
3094.000000	1.072159
3093.000000	1.072075
3092.000000	1.071970
3091.000000	1.071869
3090.000000	1.071799
3089.000000	1.071762
3088.000000	1.071734
3087.000000	1.071691
3086.000000	1.071631
3085.000000	1.071568
3084.000000	1.071508
3083.000000	1.071456
3082.000000	1.071408
3081.000000	1.071357
3080.000000	1.071292
3079.000000	1.071209
3078.000000	1.071116
3077.000000	1.071025
3076.000000	1.070941
3075.000000	1.070866
3074.000000	1.070803
3073.000000	1.070746
3072.000000	1.070687
3071.000000	1.070618
3070.000000	1.070539
3069.000000	1.070455
3068.000000	1.070371
3067.000000	1.070288
3066.000000	1.070213
3065.000000	1.070151
3064.000000	1.070097
3063.000000	1.070042
3062.000000	1.069985
3061.000000	1.069930
3060.000000	1.069880
3059.000000	1.069833
3058.000000	1.069782
3057.000000	1.069719
3056.000000	1.069637
3055.000000	1.069533
3054.000000	1.069419
3053.000000	1.069318
3052.000000	1.069246
3051.000000	1.069201
3050.000000	1.069168
3049.000000	1.069134
3048.000000	1.069095
3047.000000	1.069041
3046.000000	1.068958
3045.000000	1.068846
3044.000000	1.068729
3043.000000	1.068642
3042.000000	1.068600
3041.000000	1.068580
3040.000000	1.068546
3039.000000	1.068485
3038.000000	1.068408
3037.000000	1.068328
3036.000000	1.068243
3035.000000	1.068144
3034.000000	1.068039
3033.000000	1.067949
3032.000000	1.067891
3031.000000	1.067868
3030.000000	1.067862
3029.000000	1.067842
3028.000000	1.067784
3027.000000	1.067695
3026.000000	1.067613
3025.000000	1.067568
3024.000000	1.067550
3023.000000	1.067511
3022.000000	1.067422
3021.000000	1.067293
3020.000000	1.067158
3019.000000	1.067033
3018.000000	1.066909
3017.000000	1.066779
3016.000000	1.066651
3015.000000	1.066540
3014.000000	1.066455
3013.000000	1.066388
3012.000000	1.066329
3011.000000	1.066271
3010.000000	1.066212
3009.000000	1.066155
3008.000000	1.066098
3007.000000	1.066029
3006.000000	1.065939
3005.000000	1.065834
3004.000000	1.065736
3003.000000	1.065659
3002.000000	1.065594
3001.000000	1.065513
3000.000000	1.065402
2999.000000	1.065270
2998.000000	1.065142
2997.000000	1.065026
2996.000000	1.064908
2995.000000	1.064773
2994.000000	1.064627
2993.000000	1.064488
2992.000000	1.064374
2991.000000	1.064276
2990.000000	1.064179
2989.000000	1.064071
2988.000000	1.063954
2987.000000	1.063835
2986.000000	1.063720
2985.000000	1.063609
2984.000000	1.063502
2983.000000	1.063387
2982.000000	1.063255
2981.000000	1.063105
2980.000000	1.062952
2979.000000	1.062817
2978.000000	1.062701
2977.000000	1.062590
2976.000000	1.062473
2975.000000	1.062357
2974.000000	1.062253
2973.000000	1.062161
2972.000000	1.062062
2971.000000	1.061939
2970.000000	1.061794
2969.000000	1.061640
2968.000000	1.061485
2967.000000	1.061327
2966.000000	1.061165
2965.000000	1.060997
2964.000000	1.060823
2963.000000	1.060646
2962.000000	1.060475
2961.000000	1.060319
2960.000000	1.060178
2959.000000	1.060039
2958.000000	1.059886
2957.000000	1.059708
2956.000000	1.059503
2955.000000	1.059279
2954.000000	1.059049
2953.000000	1.058830
2952.000000	1.058629
2951.000000	1.058440
2950.000000	1.058251
2949.000000	1.058057
2948.000000	1.057860
2947.000000	1.057666
2946.000000	1.057486
2945.000000	1.057328
2944.000000	1.057193
2943.000000	1.057064
2942.000000	1.056917
2941.000000	1.056734
2940.000000	1.056519
2939.000000	1.056287
2938.000000	1.056056
2937.000000	1.055839
2936.000000	1.055645
2935.000000	1.055474
2934.000000	1.055318
2933.000000	1.055159
2932.000000	1.054981
2931.000000	1.054777
2930.000000	1.054552
2929.000000	1.054321
2928.000000	1.054095
2927.000000	1.053874
2926.000000	1.053650
2925.000000	1.053416
2924.000000	1.053181
2923.000000	1.052954
2922.000000	1.052738
2921.000000	1.052528
2920.000000	1.052318
2919.000000	1.052107
2918.000000	1.051897
2917.000000	1.051690
2916.000000	1.051484
2915.000000	1.051274
2914.000000	1.051054
2913.000000	1.050824
2912.000000	1.050595
2911.000000	1.050378
2910.000000	1.050182
2909.000000	1.050008
2908.000000	1.049849
2907.000000	1.049693
2906.000000	1.049524
2905.000000	1.049327
2904.000000	1.049099
2903.000000	1.048855
2902.000000	1.048613
2901.000000	1.048388
2900.000000	1.048185
2899.000000	1.048001
2898.000000	1.047822
2897.000000	1.047634
2896.000000	1.047429
2895.000000	1.047208
2894.000000	1.046980
2893.000000	1.046750
2892.000000	1.046524
2891.000000	1.046310
2890.000000	1.046113
2889.000000	1.045924
2888.000000	1.045726
2887.000000	1.045507
2886.000000	1.045277
2885.000000	1.045056
2884.000000	1.044857
2883.000000	1.044670
2882.000000	1.044477
2881.000000	1.044269
2880.000000	1.044060
2879.000000	1.043867
2878.000000	1.043696
2877.000000	1.043536
2876.000000	1.043377
2875.000000	1.043208
2874.000000	1.043026
2873.000000	1.042825
2872.000000	1.042613
2871.000000	1.042403
2870.000000	1.042211
2869.000000	1.042042
2868.000000	1.041888
2867.000000	1.041728
2866.000000	1.041543
2865.000000	1.041333
2864.000000	1.041110
2863.000000	1.040894
2862.000000	1.040690
2861.000000	1.040492
2860.000000	1.040292
2859.000000	1.040092
2858.000000	1.039894
2857.000000	1.039699
2856.000000	1.039505
2855.000000	1.039318
2854.000000	1.039145
2853.000000	1.038987
2852.000000	1.038839
2851.000000	1.038698
2850.000000	1.038565
2849.000000	1.038439
2848.000000	1.038310
2847.000000	1.038167
2846.000000	1.038005
2845.000000	1.037830
2844.000000	1.037656
2843.000000	1.037492
2842.000000	1.037345
2841.000000	1.037216
2840.000000	1.037106
2839.000000	1.037008
2838.000000	1.036909
2837.000000	1.036794
2836.000000	1.036654
2835.000000	1.036495
2834.000000	1.036334
2833.000000	1.036191
2832.000000	1.036076
2831.000000	1.035975
2830.000000	1.035864
2829.000000	1.035732
2828.000000	1.035587
2827.000000	1.035445
2826.000000	1.035310
2825.000000	1.035175
2824.000000	1.035040
2823.000000	1.034916
2822.000000	1.034810
2821.000000	1.034717
2820.000000	1.034622
2819.000000	1.034518
2818.000000	1.034403
2817.000000	1.034283
2816.000000	1.034164
2815.000000	1.034043
2814.000000	1.033914
2813.000000	1.033773
2812.000000	1.033625
2811.000000	1.033488
2810.000000	1.033378
2809.000000	1.033298
2808.000000	1.033236
2807.000000	1.033178
2806.000000	1.033110
2805.000000	1.033022
2804.000000	1.032911
2803.000000	1.032783
2802.000000	1.032650
2801.000000	1.032526
2800.000000	1.032421
2799.000000	1.032341
2798.000000	1.032279
2797.000000	1.032220
2796.000000	1.032150
2795.000000	1.032066
2794.000000	1.031973
2793.000000	1.031881
2792.000000	1.031796
2791.000000	1.031719
2790.000000	1.031647
2789.000000	1.031571
2788.000000	1.031485
2787.000000	1.031396
2786.000000	1.031316
2785.000000	1.031253
2784.000000	1.031203
2783.000000	1.031154
2782.000000	1.031099
2781.000000	1.031036
2780.000000	1.030962
2779.000000	1.030880
2778.000000	1.030793
2777.000000	1.030708
2776.000000	1.030627
2775.000000	1.030557
2774.000000	1.030502
2773.000000	1.030460
2772.000000	1.030417
2771.000000	1.030358
2770.000000	1.030283
2769.000000	1.030210
2768.000000	1.030155
2767.000000	1.030113
2766.000000	1.030068
2765.000000	1.030010
2764.000000	1.029942
2763.000000	1.029878
2762.000000	1.029824
2761.000000	1.029772
2760.000000	1.029715
2759.000000	1.029653
2758.000000	1.029600
2757.000000	1.029562
2756.000000	1.029535
2755.000000	1.029500
2754.000000	1.029435
2753.000000	1.029343
2752.000000	1.029248
2751.000000	1.029182
2750.000000	1.029156
2749.000000	1.029153
2748.000000	1.029154
2747.000000	1.029148
2746.000000	1.029141
2745.000000	1.029133
2744.000000	1.029122
2743.000000	1.029108
2742.000000	1.029093
2741.000000	1.029073
2740.000000	1.029045
2739.000000	1.029003
2738.000000	1.028952
2737.000000	1.028899
2736.000000	1.028854
2735.000000	1.028825
2734.000000	1.028813
2733.000000	1.028804
2732.000000	1.028784
2731.000000	1.028755
2730.000000	1.028728
2729.000000	1.028717
2728.000000	1.028718
2727.000000	1.028724
2726.000000	1.028726
2725.000000	1.028721
2724.000000	1.028705
2723.000000	1.028678
2722.000000	1.028646
2721.000000	1.028616
2720.000000	1.028592
2719.000000	1.028573
2718.000000	1.028558
2717.000000	1.028545
2716.000000	1.028537
2715.000000	1.028535
2714.000000	1.028544
2713.000000	1.028564
2712.000000	1.028584
2711.000000	1.028589
2710.000000	1.028573
2709.000000	1.028543
2708.000000	1.028512
2707.000000	1.028489
2706.000000	1.028480
2705.000000	1.028491
2704.000000	1.028528
2703.000000	1.028588
2702.000000	1.028652
2701.000000	1.028700
2700.000000	1.028718
2699.000000	1.028715
2698.000000	1.028704
2697.000000	1.028698
2696.000000	1.028699
2695.000000	1.028704
2694.000000	1.028711
2693.000000	1.028723
2692.000000	1.028743
2691.000000	1.028780
2690.000000	1.028837
2689.000000	1.028909
2688.000000	1.028975
2687.000000	1.029017
2686.000000	1.029029
2685.000000	1.029025
2684.000000	1.029029
2683.000000	1.029053
2682.000000	1.029091
2681.000000	1.029127
2680.000000	1.029159
2679.000000	1.029194
2678.000000	1.029239
2677.000000	1.029291
2676.000000	1.029346
2675.000000	1.029403
2674.000000	1.029464
2673.000000	1.029521
2672.000000	1.029563
2671.000000	1.029584
2670.000000	1.029595
2669.000000	1.029617
2668.000000	1.029664
2667.000000	1.029730
2666.000000	1.029797
2665.000000	1.029847
2664.000000	1.029877
2663.000000	1.029902
2662.000000	1.029947
2661.000000	1.030027
2660.000000	1.030133
2659.000000	1.030237
2658.000000	1.030312
2657.000000	1.030357
2656.000000	1.030400
2655.000000	1.030466
2654.000000	1.030549
2653.000000	1.030625
2652.000000	1.030683
2651.000000	1.030741
2650.000000	1.030822
2649.000000	1.030927
2648.000000	1.031033
2647.000000	1.031121
2646.000000	1.031185
2645.000000	1.031236
2644.000000	1.031295
2643.000000	1.031372
2642.000000	1.031463
2641.000000	1.031551
2640.000000	1.031624
2639.000000	1.031696
2638.000000	1.031788
2637.000000	1.031900
2636.000000	1.032005
2635.000000	1.032077
2634.000000	1.032126
2633.000000	1.032184
2632.000000	1.032274
2631.000000	1.032384
2630.000000	1.032486
2629.000000	1.032567
2628.000000	1.032632
2627.000000	1.032700
2626.000000	1.032778
2625.000000	1.032866
2624.000000	1.032962
2623.000000	1.033072
2622.000000	1.033194
2621.000000	1.033320
2620.000000	1.033435
2619.000000	1.033541
2618.000000	1.033649
2617.000000	1.033765
2616.000000	1.033875
2615.000000	1.033961
2614.000000	1.034021
2613.000000	1.034076
2612.000000	1.034150
2611.000000	1.034248
2610.000000	1.034362
2609.000000	1.034481
2608.000000	1.034600
2607.000000	1.034718
2606.000000	1.034833
2605.000000	1.034949
2604.000000	1.035072
2603.000000	1.035204
2602.000000	1.035337
2601.000000	1.035463
2600.000000	1.035576
2599.000000	1.035672
2598.000000	1.035754
2597.000000	1.035830
2596.000000	1.035919
2595.000000	1.036030
2594.000000	1.036155
2593.000000	1.036277
2592.000000	1.036393
2591.000000	1.036515
2590.000000	1.036647
2589.000000	1.036782
2588.000000	1.036908
2587.000000	1.037024
2586.000000	1.037136
2585.000000	1.037250
2584.000000	1.037372
2583.000000	1.037507
2582.000000	1.037643
2581.000000	1.037766
2580.000000	1.037874
2579.000000	1.037985
2578.000000	1.038114
2577.000000	1.038258
2576.000000	1.038404
2575.000000	1.038547
2574.000000	1.038692
2573.000000	1.038834
2572.000000	1.038962
2571.000000	1.039075
2570.000000	1.039181
2569.000000	1.039289
2568.000000	1.039404
2567.000000	1.039530
2566.000000	1.039670
2565.000000	1.039829
2564.000000	1.040007
2563.000000	1.040198
2562.000000	1.040389
2561.000000	1.040560
2560.000000	1.040703
2559.000000	1.040835
2558.000000	1.040975
2557.000000	1.041124
2556.000000	1.041270
2555.000000	1.041415
2554.000000	1.041578
2553.000000	1.041770
2552.000000	1.041974
2551.000000	1.042159
2550.000000	1.042309
2549.000000	1.042434
2548.000000	1.042559
2547.000000	1.042702
2546.000000	1.042872
2545.000000	1.043056
2544.000000	1.043237
2543.000000	1.043403
2542.000000	1.043558
2541.000000	1.043711
2540.000000	1.043870
2539.000000	1.044039
2538.000000	1.044218
2537.000000	1.044401
2536.000000	1.044578
2535.000000	1.044752
2534.000000	1.044929
2533.000000	1.045109
2532.000000	1.045282
2531.000000	1.045447
2530.000000	1.045614
2529.000000	1.045791
2528.000000	1.045976
2527.000000	1.046165
2526.000000	1.046360
2525.000000	1.046559
2524.000000	1.046758
2523.000000	1.046946
2522.000000	1.047124
2521.000000	1.047294
2520.000000	1.047454
2519.000000	1.047602
2518.000000	1.047748
2517.000000	1.047909
2516.000000	1.048095
2515.000000	1.048295
2514.000000	1.048490
2513.000000	1.048670
2512.000000	1.048839
2511.000000	1.049008
2510.000000	1.049182
2509.000000	1.049346
2508.000000	1.049481
2507.000000	1.049591
2506.000000	1.049704
2505.000000	1.049846
2504.000000	1.050013
2503.000000	1.050177
2502.000000	1.050325
2501.000000	1.050463
2500.000000	1.050607
2499.000000	1.050757
2498.000000	1.050903
2497.000000	1.051044
2496.000000	1.051187
2495.000000	1.051333
2494.000000	1.051469
2493.000000	1.051582
2492.000000	1.051678
2491.000000	1.051766
2490.000000	1.051850
2489.000000	1.051929
2488.000000	1.052009
2487.000000	1.052102
2486.000000	1.052209
2485.000000	1.052310
2484.000000	1.052385
2483.000000	1.052440
2482.000000	1.052497
2481.000000	1.052573
2480.000000	1.052661
2479.000000	1.052744
2478.000000	1.052814
2477.000000	1.052876
2476.000000	1.052941
2475.000000	1.053009
2474.000000	1.053076
2473.000000	1.053136
2472.000000	1.053192
2471.000000	1.053252
2470.000000	1.053315
2469.000000	1.053370
2468.000000	1.053405
2467.000000	1.053420
2466.000000	1.053429
2465.000000	1.053445
2464.000000	1.053475
2463.000000	1.053518
2462.000000	1.053570
2461.000000	1.053628
2460.000000	1.053683
2459.000000	1.053728
2458.000000	1.053754
2457.000000	1.053756
2456.000000	1.053737
2455.000000	1.053711
2454.000000	1.053696
2453.000000	1.053698
2452.000000	1.053711
2451.000000	1.053721
2450.000000	1.053716
2449.000000	1.053688
2448.000000	1.053635
2447.000000	1.053577
2446.000000	1.053538
2445.000000	1.053527
2444.000000	1.053526
2443.000000	1.053513
2442.000000	1.053482
2441.000000	1.053443
2440.000000	1.053406
2439.000000	1.053369
2438.000000	1.053328
2437.000000	1.053284
2436.000000	1.053238
2435.000000	1.053190
2434.000000	1.053138
2433.000000	1.053079
2432.000000	1.053009
2431.000000	1.052934
2430.000000	1.052865
2429.000000	1.052810
2428.000000	1.052765
2427.000000	1.052720
2426.000000	1.052671
2425.000000	1.052623
2424.000000	1.052579
2423.000000	1.052535
2422.000000	1.052489
2421.000000	1.052442
2420.000000	1.052394
2419.000000	1.052344
2418.000000	1.052288
2417.000000	1.052223
2416.000000	1.052153
2415.000000	1.052082
2414.000000	1.052014
2413.000000	1.051954
2412.000000	1.051906
2411.000000	1.051868
2410.000000	1.051827
2409.000000	1.051769
2408.000000	1.051693
2407.000000	1.051618
2406.000000	1.051566
2405.000000	1.051542
2404.000000	1.051532
2403.000000	1.051517
2402.000000	1.051493
2401.000000	1.051465
2400.000000	1.051436
2399.000000	1.051407
2398.000000	1.051377
2397.000000	1.051342
2396.000000	1.051304
2395.000000	1.051268
2394.000000	1.051247
2393.000000	1.051249
2392.000000	1.051267
2391.000000	1.051278
2390.000000	1.051263
2389.000000	1.051220
2388.000000	1.051166
2387.000000	1.051121
2386.000000	1.051092
2385.000000	1.051076
2384.000000	1.051065
2383.000000	1.051046
2382.000000	1.051011
2381.000000	1.050958
2380.000000	1.050888
2379.000000	1.050796
2378.000000	1.050673
2377.000000	1.050521
2376.000000	1.050354
2375.000000	1.050187
2374.000000	1.050020
2373.000000	1.049841
2372.000000	1.049645
2371.000000	1.049440
2370.000000	1.049237
2369.000000	1.049044
2368.000000	1.048865
2367.000000	1.048705
2366.000000	1.048562
2365.000000	1.048436
2364.000000	1.048337
2363.000000	1.048281
2362.000000	1.048275
2361.000000	1.048312
2360.000000	1.048388
2359.000000	1.048506
2358.000000	1.048666
2357.000000	1.048864
2356.000000	1.049099
2355.000000	1.049378
2354.000000	1.049706
2353.000000	1.050073
2352.000000	1.050460
2351.000000	1.050848
2350.000000	1.051203
2349.000000	1.051495
2348.000000	1.051731
2347.000000	1.051987
2346.000000	1.052370
2345.000000	1.052947
2344.000000	1.053697
2343.000000	1.054516
2342.000000	1.055232
2341.000000	1.055645
2340.000000	1.055598
2339.000000	1.055069
2338.000000	1.054204
2337.000000	1.053251
2336.000000	1.052429
2335.000000	1.051846
2334.000000	1.051495
2333.000000	1.051311
2332.000000	1.051232
2331.000000	1.051221
2330.000000	1.051260
2329.000000	1.051333
2328.000000	1.051430
2327.000000	1.051553
2326.000000	1.051704
2325.000000	1.051864
2324.000000	1.052013
2323.000000	1.052146
2322.000000	1.052269
2321.000000	1.052386
2320.000000	1.052490
2319.000000	1.052593
2318.000000	1.052715
2317.000000	1.052856
2316.000000	1.052982
2315.000000	1.053071
2314.000000	1.053133
2313.000000	1.053200
2312.000000	1.053288
2311.000000	1.053394
2310.000000	1.053510
2309.000000	1.053627
2308.000000	1.053733
2307.000000	1.053812
2306.000000	1.053861
2305.000000	1.053893
2304.000000	1.053924
2303.000000	1.053970
2302.000000	1.054038
2301.000000	1.054126
2300.000000	1.054221
2299.000000	1.054309
2298.000000	1.054383
2297.000000	1.054442
2296.000000	1.054494
2295.000000	1.054544
2294.000000	1.054596
2293.000000	1.054642
2292.000000	1.054684
2291.000000	1.054730
2290.000000	1.054789
2289.000000	1.054850
2288.000000	1.054890
2287.000000	1.054901
2286.000000	1.054903
2285.000000	1.054922
2284.000000	1.054964
2283.000000	1.055020
2282.000000	1.055082
2281.000000	1.055146
2280.000000	1.055214
2279.000000	1.055284
2278.000000	1.055353
2277.000000	1.055411
2276.000000	1.055449
2275.000000	1.055473
2274.000000	1.055509
2273.000000	1.055569
2272.000000	1.055637
2271.000000	1.055687
2270.000000	1.055717
2269.000000	1.055745
2268.000000	1.055784
2267.000000	1.055829
2266.000000	1.055871
2265.000000	1.055902
2264.000000	1.055921
2263.000000	1.055930
2262.000000	1.055940
2261.000000	1.055961
2260.000000	1.056000
2259.000000	1.056060
2258.000000	1.056136
2257.000000	1.056217
2256.000000	1.056282
2255.000000	1.056314
2254.000000	1.056318
2253.000000	1.056312
2252.000000	1.056315
2251.000000	1.056337
2250.000000	1.056380
2249.000000	1.056433
2248.000000	1.056480
2247.000000	1.056514
2246.000000	1.056544
2245.000000	1.056579
2244.000000	1.056618
2243.000000	1.056653
2242.000000	1.056684
2241.000000	1.056713
2240.000000	1.056737
2239.000000	1.056747
2238.000000	1.056745
2237.000000	1.056745
2236.000000	1.056757
2235.000000	1.056778
2234.000000	1.056811
2233.000000	1.056865
2232.000000	1.056934
2231.000000	1.057000
2230.000000	1.057044
2229.000000	1.057063
2228.000000	1.057066
2227.000000	1.057059
2226.000000	1.057053
2225.000000	1.057057
2224.000000	1.057081
2223.000000	1.057116
2222.000000	1.057145
2221.000000	1.057156
2220.000000	1.057152
2219.000000	1.057148
2218.000000	1.057153
2217.000000	1.057165
2216.000000	1.057172
2215.000000	1.057167
2214.000000	1.057156
2213.000000	1.057153
2212.000000	1.057164
2211.000000	1.057180
2210.000000	1.057182
2209.000000	1.057159
2208.000000	1.057123
2207.000000	1.057099
2206.000000	1.057102
2205.000000	1.057119
2204.000000	1.057125
2203.000000	1.057110
2202.000000	1.057091
2201.000000	1.057087
2200.000000	1.057096
2199.000000	1.057098
2198.000000	1.057083
2197.000000	1.057058
2196.000000	1.057037
2195.000000	1.057025
2194.000000	1.057020
2193.000000	1.057021
2192.000000	1.057025
2191.000000	1.057024
2190.000000	1.057012
2189.000000	1.056989
2188.000000	1.056960
2187.000000	1.056936
2186.000000	1.056925
2185.000000	1.056925
2184.000000	1.056927
2183.000000	1.056916
2182.000000	1.056891
2181.000000	1.056858
2180.000000	1.056827
2179.000000	1.056805
2178.000000	1.056793
2177.000000	1.056784
2176.000000	1.056768
2175.000000	1.056740
2174.000000	1.056710
2173.000000	1.056685
2172.000000	1.056659
2171.000000	1.056627
2170.000000	1.056594
2169.000000	1.056570
2168.000000	1.056550
2167.000000	1.056517
2166.000000	1.056467
2165.000000	1.056413
2164.000000	1.056366
2163.000000	1.056320
2162.000000	1.056267
2161.000000	1.056217
2160.000000	1.056180
2159.000000	1.056153
2158.000000	1.056112
2157.000000	1.056045
2156.000000	1.055965
2155.000000	1.055896
2154.000000	1.055848
2153.000000	1.055800
2152.000000	1.055727
2151.000000	1.055625
2150.000000	1.055518
2149.000000	1.055435
2148.000000	1.055383
2147.000000	1.055349
2146.000000	1.055317
2145.000000	1.055286
2144.000000	1.055252
2143.000000	1.055206
2142.000000	1.055136
2141.000000	1.055047
2140.000000	1.054954
2139.000000	1.054872
2138.000000	1.054804
2137.000000	1.054747
2136.000000	1.054695
2135.000000	1.054636
2134.000000	1.054559
2133.000000	1.054461
2132.000000	1.054348
2131.000000	1.054238
2130.000000	1.054141
2129.000000	1.054063
2128.000000	1.054002
2127.000000	1.053946
2126.000000	1.053881
2125.000000	1.053795
2124.000000	1.053696
2123.000000	1.053600
2122.000000	1.053508
2121.000000	1.053404
2120.000000	1.053281
2119.000000	1.053150
2118.000000	1.053036
2117.000000	1.052942
2116.000000	1.052852
2115.000000	1.052758
2114.000000	1.052658
2113.000000	1.052555
2112.000000	1.052441
2111.000000	1.052316
2110.000000	1.052190
2109.000000	1.052065
2108.000000	1.051934
2107.000000	1.051791
2106.000000	1.051652
2105.000000	1.051533
2104.000000	1.051431
2103.000000	1.051323
2102.000000	1.051201
2101.000000	1.051073
2100.000000	1.050952
2099.000000	1.050837
2098.000000	1.050720
2097.000000	1.050594
2096.000000	1.050458
2095.000000	1.050317
2094.000000	1.050178
2093.000000	1.050046
2092.000000	1.049916
2091.000000	1.049782
2090.000000	1.049650
2089.000000	1.049527
2088.000000	1.049406
2087.000000	1.049270
2086.000000	1.049111
2085.000000	1.048945
2084.000000	1.048792
2083.000000	1.048655
2082.000000	1.048526
2081.000000	1.048395
2080.000000	1.048255
2079.000000	1.048105
2078.000000	1.047946
2077.000000	1.047787
2076.000000	1.047638
2075.000000	1.047498
2074.000000	1.047356
2073.000000	1.047202
2072.000000	1.047033
2071.000000	1.046860
2070.000000	1.046700
2069.000000	1.046561
2068.000000	1.046433
2067.000000	1.046298
2066.000000	1.046147
2065.000000	1.045994
2064.000000	1.045853
2063.000000	1.045723
2062.000000	1.045588
2061.000000	1.045446
2060.000000	1.045309
2059.000000	1.045183
2058.000000	1.045051
2057.000000	1.044892
2056.000000	1.044701
2055.000000	1.044500
2054.000000	1.044307
2053.000000	1.044124
2052.000000	1.043951
2051.000000	1.043797
2050.000000	1.043671
2049.000000	1.043563
2048.000000	1.043450
2047.000000	1.043315
2046.000000	1.043163
2045.000000	1.043006
2044.000000	1.042856
2043.000000	1.042720
2042.000000	1.042600
2041.000000	1.042480
2040.000000	1.042344
2039.000000	1.042189
2038.000000	1.042035
2037.000000	1.041904
2036.000000	1.041794
2035.000000	1.041687
2034.000000	1.041568
2033.000000	1.041434
2032.000000	1.041294
2031.000000	1.041155
2030.000000	1.041017
2029.000000	1.040873
2028.000000	1.040720
2027.000000	1.040567
2026.000000	1.040430
2025.000000	1.040315
2024.000000	1.040208
2023.000000	1.040093
2022.000000	1.039965
2021.000000	1.039838
2020.000000	1.039718
2019.000000	1.039602
2018.000000	1.039487
2017.000000	1.039376
2016.000000	1.039274
2015.000000	1.039176
2014.000000	1.039067
2013.000000	1.038942
2012.000000	1.038809
2011.000000	1.038687
2010.000000	1.038582
2009.000000	1.038481
2008.000000	1.038371
2007.000000	1.038254
2006.000000	1.038144
2005.000000	1.038052
2004.000000	1.037985
2003.000000	1.037946
2002.000000	1.037929
2001.000000	1.037905
2000.000000	1.037833
1999.000000	1.037696
1998.000000	1.037531
1997.000000	1.037400
1996.000000	1.037326
1995.000000	1.037274
1994.000000	1.037195
1993.000000	1.037074
1992.000000	1.036940
1991.000000	1.036831
1990.000000	1.036756
1989.000000	1.036694
1988.000000	1.036620
1987.000000	1.036528
1986.000000	1.036424
1985.000000	1.036320
1984.000000	1.036229
1983.000000	1.036165
1982.000000	1.036125
1981.000000	1.036085
1980.000000	1.036022
1979.000000	1.035939
1978.000000	1.035859
1977.000000	1.035798
1976.000000	1.035752
1975.000000	1.035713
1974.000000	1.035678
1973.000000	1.035638
1972.000000	1.035580
1971.000000	1.035503
1970.000000	1.035421
1969.000000	1.035351
1968.000000	1.035293
1967.000000	1.035241
1966.000000	1.035192
1965.000000	1.035150
1964.000000	1.035117
1963.000000	1.035095
1962.000000	1.035077
1961.000000	1.035052
1960.000000	1.035011
1959.000000	1.034962
1958.000000	1.034925
1957.000000	1.034905
1956.000000	1.034884
1955.000000	1.034847
1954.000000	1.034800
1953.000000	1.034750
1952.000000	1.034699
1951.000000	1.034644
1950.000000	1.034594
1949.000000	1.034563
1948.000000	1.034550
1947.000000	1.034539
1946.000000	1.034515
1945.000000	1.034476
1944.000000	1.034434
1943.000000	1.034410
1942.000000	1.034419
1941.000000	1.034445
1940.000000	1.034457
1939.000000	1.034438
1938.000000	1.034403
1937.000000	1.034372
1936.000000	1.034351
1935.000000	1.034339
1934.000000	1.034340
1933.000000	1.034356
1932.000000	1.034379
1931.000000	1.034405
1930.000000	1.034438
1929.000000	1.034470
1928.000000	1.034477
1927.000000	1.034448
1926.000000	1.034403
1925.000000	1.034374
1924.000000	1.034370
1923.000000	1.034376
1922.000000	1.034375
1921.000000	1.034350
1920.000000	1.034295
1919.000000	1.034231
1918.000000	1.034206
1917.000000	1.034249
1916.000000	1.034334
1915.000000	1.034414
1914.000000	1.034471
1913.000000	1.034519
1912.000000	1.034569
1911.000000	1.034612
1910.000000	1.034642
1909.000000	1.034665
1908.000000	1.034684
1907.000000	1.034694
1906.000000	1.034695
1905.000000	1.034696
1904.000000	1.034697
1903.000000	1.034701
1902.000000	1.034715
1901.000000	1.034745
1900.000000	1.034785
1899.000000	1.034816
1898.000000	1.034828
1897.000000	1.034831
1896.000000	1.034835
1895.000000	1.034849
1894.000000	1.034875
1893.000000	1.034905
1892.000000	1.034923
1891.000000	1.034931
1890.000000	1.034956
1889.000000	1.035015
1888.000000	1.035087
1887.000000	1.035141
1886.000000	1.035176
1885.000000	1.035219
1884.000000	1.035280
1883.000000	1.035342
1882.000000	1.035393
1881.000000	1.035441
1880.000000	1.035496
1879.000000	1.035550
1878.000000	1.035599
1877.000000	1.035638
1876.000000	1.035665
1875.000000	1.035679
1874.000000	1.035698
1873.000000	1.035731
1872.000000	1.035758
1871.000000	1.035754
1870.000000	1.035730
1869.000000	1.035733
1868.000000	1.035790
1867.000000	1.035881
1866.000000	1.035976
1865.000000	1.036066
1864.000000	1.036155
1863.000000	1.036240
1862.000000	1.036319
1861.000000	1.036399
1860.000000	1.036478
1859.000000	1.036550
1858.000000	1.036614
1857.000000	1.036681
1856.000000	1.036752
1855.000000	1.036818
1854.000000	1.036877
1853.000000	1.036940
1852.000000	1.037008
1851.000000	1.037068
1850.000000	1.037119
1849.000000	1.037175
1848.000000	1.037224
1847.000000	1.037220
1846.000000	1.037153
1845.000000	1.037094
1844.000000	1.037147
1843.000000	1.037335
1842.000000	1.037577
1841.000000	1.037775
1840.000000	1.037900
1839.000000	1.037990
1838.000000	1.038083
1837.000000	1.038179
1836.000000	1.038262
1835.000000	1.038337
1834.000000	1.038416
1833.000000	1.038491
1832.000000	1.038543
1831.000000	1.038582
1830.000000	1.038659
1829.000000	1.038805
1828.000000	1.038983
1827.000000	1.039127
1826.000000	1.039224
1825.000000	1.039322
1824.000000	1.039459
1823.000000	1.039620
1822.000000	1.039769
1821.000000	1.039895
1820.000000	1.040011
1819.000000	1.040128
1818.000000	1.040246
1817.000000	1.040370
1816.000000	1.040502
1815.000000	1.040632
1814.000000	1.040751
1813.000000	1.040852
1812.000000	1.040938
1811.000000	1.041021
1810.000000	1.041124
1809.000000	1.041268
1808.000000	1.041442
1807.000000	1.041617
1806.000000	1.041773
1805.000000	1.041908
1804.000000	1.042019
1803.000000	1.042104
1802.000000	1.042189
1801.000000	1.042311
1800.000000	1.042475
1799.000000	1.042649
1798.000000	1.042809
1797.000000	1.042948
1796.000000	1.043057
1795.000000	1.043104
1794.000000	1.043097
1793.000000	1.043105
1792.000000	1.043215
1791.000000	1.043442
1790.000000	1.043734
1789.000000	1.044018
1788.000000	1.044240
1787.000000	1.044386
1786.000000	1.044486
1785.000000	1.044602
1784.000000	1.044770
1783.000000	1.044964
1782.000000	1.045143
1781.000000	1.045299
1780.000000	1.045455
1779.000000	1.045616
1778.000000	1.045780
1777.000000	1.045938
1776.000000	1.046070
1775.000000	1.046130
1774.000000	1.046118
1773.000000	1.046127
1772.000000	1.046281
1771.000000	1.046589
1770.000000	1.046933
1769.000000	1.047210
1768.000000	1.047434
1767.000000	1.047669
1766.000000	1.047920
1765.000000	1.048119
1764.000000	1.048225
1763.000000	1.048286
1762.000000	1.048392
1761.000000	1.048585
1760.000000	1.048824
1759.000000	1.049041
1758.000000	1.049212
1757.000000	1.049379
1756.000000	1.049584
1755.000000	1.049792
1754.000000	1.049914
1753.000000	1.049915
1752.000000	1.049880
1751.000000	1.049939
1750.000000	1.050148
1749.000000	1.050448
1748.000000	1.050745
1747.000000	1.050986
1746.000000	1.051172
1745.000000	1.051322
1744.000000	1.051448
1743.000000	1.051555
1742.000000	1.051638
1741.000000	1.051712
1740.000000	1.051832
1739.000000	1.052044
1738.000000	1.052280
1737.000000	1.052364
1736.000000	1.052196
1735.000000	1.051916
1734.000000	1.051823
1733.000000	1.052081
1732.000000	1.052565
1731.000000	1.053030
1730.000000	1.053354
1729.000000	1.053573
1728.000000	1.053753
1727.000000	1.053899
1726.000000	1.054005
1725.000000	1.054089
1724.000000	1.054175
1723.000000	1.054259
1722.000000	1.054304
1721.000000	1.054242
1720.000000	1.054023
1719.000000	1.053693
1718.000000	1.053441
1717.000000	1.053457
1716.000000	1.053747
1715.000000	1.054139
1714.000000	1.054471
1713.000000	1.054703
1712.000000	1.054855
1711.000000	1.054929
1710.000000	1.054935
1709.000000	1.054917
1708.000000	1.054895
1707.000000	1.054855
1706.000000	1.054818
1705.000000	1.054835
1704.000000	1.054859
1703.000000	1.054730
1702.000000	1.054395
1701.000000	1.054064
1700.000000	1.054009
1699.000000	1.054203
1698.000000	1.054357
1697.000000	1.054309
1696.000000	1.054236
1695.000000	1.054405
1694.000000	1.054818
1693.000000	1.055231
1692.000000	1.055450
1691.000000	1.055500
1690.000000	1.055511
1689.000000	1.055517
1688.000000	1.055402
1687.000000	1.055049
1686.000000	1.054539
1685.000000	1.054158
1684.000000	1.054177
1683.000000	1.054578
1682.000000	1.055085
1681.000000	1.055451
1680.000000	1.055633
1679.000000	1.055704
1678.000000	1.055678
1677.000000	1.055536
1676.000000	1.055355
1675.000000	1.055286
1674.000000	1.055381
1673.000000	1.055518
1672.000000	1.055546
1671.000000	1.055454
1670.000000	1.055368
1669.000000	1.055400
1668.000000	1.055554
1667.000000	1.055742
1666.000000	1.055862
1665.000000	1.055867
1664.000000	1.055787
1663.000000	1.055716
1662.000000	1.055730
1661.000000	1.055825
1660.000000	1.055936
1659.000000	1.056011
1658.000000	1.056026
1657.000000	1.055902
1656.000000	1.055503
1655.000000	1.054813
1654.000000	1.054108
1653.000000	1.053837
1652.000000	1.054209
1651.000000	1.054953
1650.000000	1.055561
1649.000000	1.055738
1648.000000	1.055577
1647.000000	1.055381
1646.000000	1.055374
1645.000000	1.055578
1644.000000	1.055867
1643.000000	1.056094
1642.000000	1.056194
1641.000000	1.056203
1640.000000	1.056169
1639.000000	1.056063
1638.000000	1.055819
1637.000000	1.055486
1636.000000	1.055254
1635.000000	1.055291
1634.000000	1.055571
1633.000000	1.055908
1632.000000	1.056139
1631.000000	1.056226
1630.000000	1.056219
1629.000000	1.056181
1628.000000	1.056150
1627.000000	1.056124
1626.000000	1.056071
1625.000000	1.055972
1624.000000	1.055869
1623.000000	1.055837
1622.000000	1.055904
1621.000000	1.055991
1620.000000	1.055963
1619.000000	1.055753
1618.000000	1.055460
1617.000000	1.055298
1616.000000	1.055416
1615.000000	1.055756
1614.000000	1.056110
1613.000000	1.056318
1612.000000	1.056374
1611.000000	1.056361
1610.000000	1.056332
1609.000000	1.056292
1608.000000	1.056254
1607.000000	1.056250
1606.000000	1.056283
1605.000000	1.056322
1604.000000	1.056346
1603.000000	1.056358
1602.000000	1.056369
1601.000000	1.056377
1600.000000	1.056386
1599.000000	1.056401
1598.000000	1.056419
1597.000000	1.056428
1596.000000	1.056424
1595.000000	1.056414
1594.000000	1.056394
1593.000000	1.056357
1592.000000	1.056312
1591.000000	1.056287
1590.000000	1.056297
1589.000000	1.056327
1588.000000	1.056357
1587.000000	1.056382
1586.000000	1.056407
1585.000000	1.056432
1584.000000	1.056440
1583.000000	1.056427
1582.000000	1.056410
1581.000000	1.056401
1580.000000	1.056358
1579.000000	1.056192
1578.000000	1.055876
1577.000000	1.055552
1576.000000	1.055454
1575.000000	1.055676
1574.000000	1.056041
1573.000000	1.056267
1572.000000	1.056229
1571.000000	1.056044
1570.000000	1.055912
1569.000000	1.055924
1568.000000	1.056036
1567.000000	1.056157
1566.000000	1.056239
1565.000000	1.056278
1564.000000	1.056263
1563.000000	1.056117
1562.000000	1.055727
1561.000000	1.055103
1560.000000	1.054490
1559.000000	1.054240
1558.000000	1.054488
1557.000000	1.055015
1556.000000	1.055494
1555.000000	1.055785
1554.000000	1.055956
1553.000000	1.056090
1552.000000	1.056179
1551.000000	1.056199
1550.000000	1.056188
1549.000000	1.056193
1548.000000	1.056190
1547.000000	1.056123
1546.000000	1.055984
1545.000000	1.055813
1544.000000	1.055633
1543.000000	1.055403
1542.000000	1.055083
1541.000000	1.054735
1540.000000	1.054551
1539.000000	1.054711
1538.000000	1.055176
1537.000000	1.055670
1536.000000	1.055911
1535.000000	1.055861
1534.000000	1.055732
1533.000000	1.055734
1532.000000	1.055882
1531.000000	1.056049
1530.000000	1.056128
1529.000000	1.056099
1528.000000	1.056001
1527.000000	1.055894
1526.000000	1.055827
1525.000000	1.055781
1524.000000	1.055664
1523.000000	1.055436
1522.000000	1.055216
1521.000000	1.055188
1520.000000	1.055376
1519.000000	1.055613
1518.000000	1.055743
1517.000000	1.055777
1516.000000	1.055817
1515.000000	1.055891
1514.000000	1.055943
1513.000000	1.055944
1512.000000	1.055932
1511.000000	1.055911
1510.000000	1.055795
1509.000000	1.055498
1508.000000	1.055082
1507.000000	1.054771
1506.000000	1.054783
1505.000000	1.055140
1504.000000	1.055642
1503.000000	1.056046
1502.000000	1.056240
1501.000000	1.056272
1500.000000	1.056218
