PE IR       SUBTECH     SPECTRUM    ASCII       PEDS        4.00        
   -1
TE108B1_020.ASC
20/02/21
15:28:28.00
20/02/21
15:28:28.00
Administrator
Sample 020 By Administrator Date Friday, February 21 2020
1500.000000
#HDR
-1
-1
#GR
cm-1
A
1.0
0.0
4000.000000
-1.000000
2501
8
1.075846
0.989577
#DATA
4000.000000	1.004825
3999.000000	1.004779
3998.000000	1.004713
3997.000000	1.004648
3996.000000	1.004609
3995.000000	1.004599
3994.000000	1.004609
3993.000000	1.004622
3992.000000	1.004636
3991.000000	1.004658
3990.000000	1.004688
3989.000000	1.004711
3988.000000	1.004709
3987.000000	1.004671
3986.000000	1.004602
3985.000000	1.004517
3984.000000	1.004437
3983.000000	1.004379
3982.000000	1.004346
3981.000000	1.004329
3980.000000	1.004313
3979.000000	1.004285
3978.000000	1.004236
3977.000000	1.004168
3976.000000	1.004090
3975.000000	1.004018
3974.000000	1.003965
3973.000000	1.003931
3972.000000	1.003909
3971.000000	1.003886
3970.000000	1.003850
3969.000000	1.003797
3968.000000	1.003724
3967.000000	1.003630
3966.000000	1.003520
3965.000000	1.003405
3964.000000	1.003304
3963.000000	1.003231
3962.000000	1.003184
3961.000000	1.003143
3960.000000	1.003084
3959.000000	1.002999
3958.000000	1.002892
3957.000000	1.002775
3956.000000	1.002665
3955.000000	1.002569
3954.000000	1.002486
3953.000000	1.002409
3952.000000	1.002323
3951.000000	1.002217
3950.000000	1.002091
3949.000000	1.001958
3948.000000	1.001842
3947.000000	1.001754
3946.000000	1.001681
3945.000000	1.001592
3944.000000	1.001465
3943.000000	1.001310
3942.000000	1.001156
3941.000000	1.001028
3940.000000	1.000935
3939.000000	1.000869
3938.000000	1.000815
3937.000000	1.000749
3936.000000	1.000643
3935.000000	1.000481
3934.000000	1.000273
3933.000000	1.000058
3932.000000	0.999884
3931.000000	0.999772
3930.000000	0.999704
3929.000000	0.999642
3928.000000	0.999552
3927.000000	0.999423
3926.000000	0.999259
3925.000000	0.999078
3924.000000	0.998901
3923.000000	0.998742
3922.000000	0.998601
3921.000000	0.998463
3920.000000	0.998318
3919.000000	0.998170
3918.000000	0.998035
3917.000000	0.997923
3916.000000	0.997831
3915.000000	0.997741
3914.000000	0.997635
3913.000000	0.997514
3912.000000	0.997391
3911.000000	0.997277
3910.000000	0.997167
3909.000000	0.997039
3908.000000	0.996872
3907.000000	0.996653
3906.000000	0.996392
3905.000000	0.996121
3904.000000	0.995876
3903.000000	0.995688
3902.000000	0.995562
3901.000000	0.995489
3900.000000	0.995453
3899.000000	0.995441
3898.000000	0.995441
3897.000000	0.995437
3896.000000	0.995402
3895.000000	0.995306
3894.000000	0.995129
3893.000000	0.994891
3892.000000	0.994656
3891.000000	0.994493
3890.000000	0.994416
3889.000000	0.994366
3888.000000	0.994263
3887.000000	0.994088
3886.000000	0.993904
3885.000000	0.993793
3884.000000	0.993779
3883.000000	0.993794
3882.000000	0.993754
3881.000000	0.993638
3880.000000	0.993501
3879.000000	0.993413
3878.000000	0.993383
3877.000000	0.993359
3876.000000	0.993292
3875.000000	0.993171
3874.000000	0.993009
3873.000000	0.992808
3872.000000	0.992570
3871.000000	0.992331
3870.000000	0.992157
3869.000000	0.992098
3868.000000	0.992127
3867.000000	0.992162
3866.000000	0.992132
3865.000000	0.992042
3864.000000	0.991954
3863.000000	0.991917
3862.000000	0.991926
3861.000000	0.991947
3860.000000	0.991955
3859.000000	0.991933
3858.000000	0.991822
3857.000000	0.991532
3856.000000	0.991030
3855.000000	0.990420
3854.000000	0.989928
3853.000000	0.989756
3852.000000	0.989946
3851.000000	0.990354
3850.000000	0.990767
3849.000000	0.991042
3848.000000	0.991157
3847.000000	0.991167
3846.000000	0.991122
3845.000000	0.991044
3844.000000	0.990942
3843.000000	0.990828
3842.000000	0.990692
3841.000000	0.990506
3840.000000	0.990255
3839.000000	0.989987
3838.000000	0.989797
3837.000000	0.989760
3836.000000	0.989869
3835.000000	0.990046
3834.000000	0.990209
3833.000000	0.990324
3832.000000	0.990405
3831.000000	0.990469
3830.000000	0.990506
3829.000000	0.990497
3828.000000	0.990446
3827.000000	0.990389
3826.000000	0.990349
3825.000000	0.990298
3824.000000	0.990176
3823.000000	0.989968
3822.000000	0.989753
3821.000000	0.989643
3820.000000	0.989673
3819.000000	0.989754
3818.000000	0.989756
3817.000000	0.989658
3816.000000	0.989577
3815.000000	0.989650
3814.000000	0.989892
3813.000000	0.990188
3812.000000	0.990397
3811.000000	0.990453
3810.000000	0.990365
3809.000000	0.990186
3808.000000	0.990000
3807.000000	0.989910
3806.000000	0.989970
3805.000000	0.990110
3804.000000	0.990176
3803.000000	0.990081
3802.000000	0.989901
3801.000000	0.989814
3800.000000	0.989918
3799.000000	0.990155
3798.000000	0.990387
3797.000000	0.990539
3796.000000	0.990636
3795.000000	0.990738
3794.000000	0.990856
3793.000000	0.990958
3792.000000	0.991022
3791.000000	0.991061
3790.000000	0.991100
3789.000000	0.991143
3788.000000	0.991171
3787.000000	0.991173
3786.000000	0.991163
3785.000000	0.991170
3784.000000	0.991206
3783.000000	0.991261
3782.000000	0.991314
3781.000000	0.991361
3780.000000	0.991424
3779.000000	0.991528
3778.000000	0.991669
3777.000000	0.991815
3776.000000	0.991938
3775.000000	0.992036
3774.000000	0.992117
3773.000000	0.992171
3772.000000	0.992179
3771.000000	0.992145
3770.000000	0.992110
3769.000000	0.992118
3768.000000	0.992174
3767.000000	0.992257
3766.000000	0.992357
3765.000000	0.992482
3764.000000	0.992636
3763.000000	0.992786
3762.000000	0.992889
3761.000000	0.992923
3760.000000	0.992914
3759.000000	0.992915
3758.000000	0.992968
3757.000000	0.993064
3756.000000	0.993145
3755.000000	0.993137
3754.000000	0.993000
3753.000000	0.992764
3752.000000	0.992523
3751.000000	0.992395
3750.000000	0.992465
3749.000000	0.992712
3748.000000	0.992996
3747.000000	0.993130
3746.000000	0.993040
3745.000000	0.992861
3744.000000	0.992845
3743.000000	0.993139
3742.000000	0.993656
3741.000000	0.994161
3740.000000	0.994467
3739.000000	0.994547
3738.000000	0.994493
3737.000000	0.994423
3736.000000	0.994408
3735.000000	0.994470
3734.000000	0.994593
3733.000000	0.994762
3732.000000	0.994977
3731.000000	0.995241
3730.000000	0.995524
3729.000000	0.995765
3728.000000	0.995924
3727.000000	0.996026
3726.000000	0.996138
3725.000000	0.996297
3724.000000	0.996491
3723.000000	0.996690
3722.000000	0.996896
3721.000000	0.997130
3720.000000	0.997400
3719.000000	0.997695
3718.000000	0.997994
3717.000000	0.998270
3716.000000	0.998491
3715.000000	0.998623
3714.000000	0.998673
3713.000000	0.998707
3712.000000	0.998821
3711.000000	0.999083
3710.000000	0.999491
3709.000000	0.999982
3708.000000	1.000486
3707.000000	1.000961
3706.000000	1.001397
3705.000000	1.001795
3704.000000	1.002161
3703.000000	1.002518
3702.000000	1.002910
3701.000000	1.003378
3700.000000	1.003925
3699.000000	1.004507
3698.000000	1.005073
3697.000000	1.005600
3696.000000	1.006098
3695.000000	1.006578
3694.000000	1.007038
3693.000000	1.007456
3692.000000	1.007820
3691.000000	1.008140
3690.000000	1.008471
3689.000000	1.008905
3688.000000	1.009520
3687.000000	1.010322
3686.000000	1.011228
3685.000000	1.012119
3684.000000	1.012918
3683.000000	1.013618
3682.000000	1.014263
3681.000000	1.014899
3680.000000	1.015535
3679.000000	1.016138
3678.000000	1.016669
3677.000000	1.017157
3676.000000	1.017715
3675.000000	1.018455
3674.000000	1.019358
3673.000000	1.020272
3672.000000	1.021063
3671.000000	1.021754
3670.000000	1.022493
3669.000000	1.023390
3668.000000	1.024411
3667.000000	1.025436
3666.000000	1.026380
3665.000000	1.027239
3664.000000	1.028052
3663.000000	1.028846
3662.000000	1.029623
3661.000000	1.030373
3660.000000	1.031072
3659.000000	1.031698
3658.000000	1.032262
3657.000000	1.032830
3656.000000	1.033483
3655.000000	1.034244
3654.000000	1.035032
3653.000000	1.035721
3652.000000	1.036239
3651.000000	1.036638
3650.000000	1.037051
3649.000000	1.037593
3648.000000	1.038292
3647.000000	1.039088
3646.000000	1.039890
3645.000000	1.040623
3644.000000	1.041263
3643.000000	1.041827
3642.000000	1.042353
3641.000000	1.042862
3640.000000	1.043347
3639.000000	1.043793
3638.000000	1.044195
3637.000000	1.044571
3636.000000	1.044945
3635.000000	1.045337
3634.000000	1.045741
3633.000000	1.046108
3632.000000	1.046360
3631.000000	1.046473
3630.000000	1.046538
3629.000000	1.046718
3628.000000	1.047119
3627.000000	1.047694
3626.000000	1.048287
3625.000000	1.048766
3624.000000	1.049095
3623.000000	1.049307
3622.000000	1.049442
3621.000000	1.049535
3620.000000	1.049640
3619.000000	1.049817
3618.000000	1.050088
3617.000000	1.050403
3616.000000	1.050682
3615.000000	1.050876
3614.000000	1.051000
3613.000000	1.051101
3612.000000	1.051206
3611.000000	1.051321
3610.000000	1.051451
3609.000000	1.051617
3608.000000	1.051844
3607.000000	1.052125
3606.000000	1.052416
3605.000000	1.052658
3604.000000	1.052827
3603.000000	1.052938
3602.000000	1.053026
3601.000000	1.053109
3600.000000	1.053184
3599.000000	1.053239
3598.000000	1.053275
3597.000000	1.053312
3596.000000	1.053379
3595.000000	1.053491
3594.000000	1.053636
3593.000000	1.053774
3592.000000	1.053861
3591.000000	1.053873
3590.000000	1.053818
3589.000000	1.053740
3588.000000	1.053698
3587.000000	1.053733
3586.000000	1.053846
3585.000000	1.053997
3584.000000	1.054137
3583.000000	1.054239
3582.000000	1.054301
3581.000000	1.054338
3580.000000	1.054363
3579.000000	1.054387
3578.000000	1.054415
3577.000000	1.054444
3576.000000	1.054463
3575.000000	1.054464
3574.000000	1.054452
3573.000000	1.054437
3572.000000	1.054424
3571.000000	1.054403
3570.000000	1.054361
3569.000000	1.054304
3568.000000	1.054263
3567.000000	1.054279
3566.000000	1.054363
3565.000000	1.054487
3564.000000	1.054600
3563.000000	1.054670
3562.000000	1.054699
3561.000000	1.054715
3560.000000	1.054746
3559.000000	1.054802
3558.000000	1.054873
3557.000000	1.054939
3556.000000	1.054981
3555.000000	1.054993
3554.000000	1.054984
3553.000000	1.054972
3552.000000	1.054974
3551.000000	1.054989
3550.000000	1.054998
3549.000000	1.054985
3548.000000	1.054951
3547.000000	1.054923
3546.000000	1.054932
3545.000000	1.054983
3544.000000	1.055060
3543.000000	1.055134
3542.000000	1.055192
3541.000000	1.055238
3540.000000	1.055282
3539.000000	1.055336
3538.000000	1.055400
3537.000000	1.055467
3536.000000	1.055525
3535.000000	1.055569
3534.000000	1.055602
3533.000000	1.055636
3532.000000	1.055678
3531.000000	1.055731
3530.000000	1.055785
3529.000000	1.055829
3528.000000	1.055850
3527.000000	1.055852
3526.000000	1.055851
3525.000000	1.055869
3524.000000	1.055921
3523.000000	1.056000
3522.000000	1.056083
3521.000000	1.056154
3520.000000	1.056215
3519.000000	1.056287
3518.000000	1.056385
3517.000000	1.056502
3516.000000	1.056613
3515.000000	1.056694
3514.000000	1.056740
3513.000000	1.056764
3512.000000	1.056786
3511.000000	1.056827
3510.000000	1.056901
3509.000000	1.057009
3508.000000	1.057131
3507.000000	1.057243
3506.000000	1.057327
3505.000000	1.057391
3504.000000	1.057461
3503.000000	1.057557
3502.000000	1.057681
3501.000000	1.057811
3500.000000	1.057914
3499.000000	1.057976
3498.000000	1.058013
3497.000000	1.058065
3496.000000	1.058151
3495.000000	1.058257
3494.000000	1.058352
3493.000000	1.058426
3492.000000	1.058494
3491.000000	1.058585
3490.000000	1.058700
3489.000000	1.058821
3488.000000	1.058925
3487.000000	1.059016
3486.000000	1.059110
3485.000000	1.059221
3484.000000	1.059338
3483.000000	1.059444
3482.000000	1.059537
3481.000000	1.059636
3480.000000	1.059758
3479.000000	1.059898
3478.000000	1.060036
3477.000000	1.060160
3476.000000	1.060272
3475.000000	1.060385
3474.000000	1.060500
3473.000000	1.060612
3472.000000	1.060719
3471.000000	1.060835
3470.000000	1.060967
3469.000000	1.061115
3468.000000	1.061272
3467.000000	1.061434
3466.000000	1.061600
3465.000000	1.061760
3464.000000	1.061905
3463.000000	1.062032
3462.000000	1.062153
3461.000000	1.062282
3460.000000	1.062426
3459.000000	1.062576
3458.000000	1.062724
3457.000000	1.062857
3456.000000	1.062969
3455.000000	1.063072
3454.000000	1.063190
3453.000000	1.063345
3452.000000	1.063526
3451.000000	1.063705
3450.000000	1.063857
3449.000000	1.063984
3448.000000	1.064108
3447.000000	1.064248
3446.000000	1.064402
3445.000000	1.064552
3444.000000	1.064680
3443.000000	1.064784
3442.000000	1.064884
3441.000000	1.065004
3440.000000	1.065152
3439.000000	1.065312
3438.000000	1.065468
3437.000000	1.065618
3436.000000	1.065767
3435.000000	1.065911
3434.000000	1.066038
3433.000000	1.066146
3432.000000	1.066253
3431.000000	1.066375
3430.000000	1.066516
3429.000000	1.066666
3428.000000	1.066819
3427.000000	1.066972
3426.000000	1.067119
3425.000000	1.067247
3424.000000	1.067355
3423.000000	1.067453
3422.000000	1.067560
3421.000000	1.067687
3420.000000	1.067830
3419.000000	1.067971
3418.000000	1.068095
3417.000000	1.068204
3416.000000	1.068318
3415.000000	1.068450
3414.000000	1.068594
3413.000000	1.068728
3412.000000	1.068835
3411.000000	1.068921
3410.000000	1.069002
3409.000000	1.069085
3408.000000	1.069162
3407.000000	1.069226
3406.000000	1.069284
3405.000000	1.069347
3404.000000	1.069419
3403.000000	1.069487
3402.000000	1.069543
3401.000000	1.069588
3400.000000	1.069637
3399.000000	1.069701
3398.000000	1.069783
3397.000000	1.069873
3396.000000	1.069954
3395.000000	1.070017
3394.000000	1.070063
3393.000000	1.070109
3392.000000	1.070170
3391.000000	1.070252
3390.000000	1.070344
3389.000000	1.070432
3388.000000	1.070508
3387.000000	1.070570
3386.000000	1.070621
3385.000000	1.070666
3384.000000	1.070712
3383.000000	1.070763
3382.000000	1.070822
3381.000000	1.070883
3380.000000	1.070940
3379.000000	1.070990
3378.000000	1.071032
3377.000000	1.071070
3376.000000	1.071110
3375.000000	1.071149
3374.000000	1.071178
3373.000000	1.071193
3372.000000	1.071194
3371.000000	1.071192
3370.000000	1.071201
3369.000000	1.071236
3368.000000	1.071303
3367.000000	1.071390
3366.000000	1.071474
3365.000000	1.071528
3364.000000	1.071541
3363.000000	1.071523
3362.000000	1.071497
3361.000000	1.071486
3360.000000	1.071506
3359.000000	1.071551
3358.000000	1.071600
3357.000000	1.071630
3356.000000	1.071640
3355.000000	1.071650
3354.000000	1.071677
3353.000000	1.071719
3352.000000	1.071761
3351.000000	1.071794
3350.000000	1.071823
3349.000000	1.071852
3348.000000	1.071878
3347.000000	1.071898
3346.000000	1.071917
3345.000000	1.071944
3344.000000	1.071981
3343.000000	1.072017
3342.000000	1.072035
3341.000000	1.072025
3340.000000	1.071998
3339.000000	1.071979
3338.000000	1.071987
3337.000000	1.072019
3336.000000	1.072059
3335.000000	1.072094
3334.000000	1.072119
3333.000000	1.072145
3332.000000	1.072177
3331.000000	1.072210
3330.000000	1.072236
3329.000000	1.072247
3328.000000	1.072253
3327.000000	1.072271
3326.000000	1.072311
3325.000000	1.072369
3324.000000	1.072428
3323.000000	1.072473
3322.000000	1.072501
3321.000000	1.072520
3320.000000	1.072542
3319.000000	1.072583
3318.000000	1.072645
3317.000000	1.072713
3316.000000	1.072768
3315.000000	1.072799
3314.000000	1.072818
3313.000000	1.072849
3312.000000	1.072900
3311.000000	1.072956
3310.000000	1.072995
3309.000000	1.073009
3308.000000	1.073014
3307.000000	1.073027
3306.000000	1.073054
3305.000000	1.073090
3304.000000	1.073133
3303.000000	1.073188
3302.000000	1.073255
3301.000000	1.073322
3300.000000	1.073375
3299.000000	1.073408
3298.000000	1.073425
3297.000000	1.073428
3296.000000	1.073425
3295.000000	1.073429
3294.000000	1.073452
3293.000000	1.073496
3292.000000	1.073551
3291.000000	1.073608
3290.000000	1.073663
3289.000000	1.073713
3288.000000	1.073753
3287.000000	1.073777
3286.000000	1.073787
3285.000000	1.073791
3284.000000	1.073800
3283.000000	1.073825
3282.000000	1.073866
3281.000000	1.073913
3280.000000	1.073951
3279.000000	1.073977
3278.000000	1.074000
3277.000000	1.074036
3276.000000	1.074089
3275.000000	1.074151
3274.000000	1.074210
3273.000000	1.074257
3272.000000	1.074294
3271.000000	1.074321
3270.000000	1.074335
3269.000000	1.074330
3268.000000	1.074315
3267.000000	1.074311
3266.000000	1.074339
3265.000000	1.074396
3264.000000	1.074460
3263.000000	1.074508
3262.000000	1.074541
3261.000000	1.074575
3260.000000	1.074620
3259.000000	1.074675
3258.000000	1.074729
3257.000000	1.074779
3256.000000	1.074830
3255.000000	1.074882
3254.000000	1.074928
3253.000000	1.074956
3252.000000	1.074966
3251.000000	1.074966
3250.000000	1.074964
3249.000000	1.074969
3248.000000	1.074988
3247.000000	1.075024
3246.000000	1.075071
3245.000000	1.075115
3244.000000	1.075143
3243.000000	1.075156
3242.000000	1.075166
3241.000000	1.075187
3240.000000	1.075221
3239.000000	1.075260
3238.000000	1.075289
3237.000000	1.075300
3236.000000	1.075293
3235.000000	1.075281
3234.000000	1.075279
3233.000000	1.075297
3232.000000	1.075331
3231.000000	1.075374
3230.000000	1.075413
3229.000000	1.075445
3228.000000	1.075477
3227.000000	1.075518
3226.000000	1.075564
3225.000000	1.075598
3224.000000	1.075608
3223.000000	1.075600
3222.000000	1.075595
3221.000000	1.075605
3220.000000	1.075631
3219.000000	1.075662
3218.000000	1.075690
3217.000000	1.075709
3216.000000	1.075721
3215.000000	1.075731
3214.000000	1.075742
3213.000000	1.075753
3212.000000	1.075763
3211.000000	1.075768
3210.000000	1.075769
3209.000000	1.075765
3208.000000	1.075758
3207.000000	1.075756
3206.000000	1.075769
3205.000000	1.075795
3204.000000	1.075826
3203.000000	1.075846
3202.000000	1.075841
3201.000000	1.075810
3200.000000	1.075765
3199.000000	1.075730
3198.000000	1.075713
3197.000000	1.075709
3196.000000	1.075704
3195.000000	1.075699
3194.000000	1.075707
3193.000000	1.075729
3192.000000	1.075753
3191.000000	1.075763
3190.000000	1.075760
3189.000000	1.075752
3188.000000	1.075741
3187.000000	1.075727
3186.000000	1.075713
3185.000000	1.075712
3184.000000	1.075727
3183.000000	1.075745
3182.000000	1.075749
3181.000000	1.075733
3180.000000	1.075707
3179.000000	1.075680
3178.000000	1.075654
3177.000000	1.075632
3176.000000	1.075621
3175.000000	1.075627
3174.000000	1.075639
3173.000000	1.075644
3172.000000	1.075636
3171.000000	1.075625
3170.000000	1.075621
3169.000000	1.075625
3168.000000	1.075630
3167.000000	1.075634
3166.000000	1.075641
3165.000000	1.075653
3164.000000	1.075670
3163.000000	1.075687
3162.000000	1.075696
3161.000000	1.075690
3160.000000	1.075671
3159.000000	1.075655
3158.000000	1.075659
3157.000000	1.075683
3156.000000	1.075710
3155.000000	1.075723
3154.000000	1.075713
3153.000000	1.075689
3152.000000	1.075663
3151.000000	1.075647
3150.000000	1.075645
3149.000000	1.075652
3148.000000	1.075657
3147.000000	1.075651
3146.000000	1.075630
3145.000000	1.075609
3144.000000	1.075606
3143.000000	1.075627
3142.000000	1.075662
3141.000000	1.075691
3140.000000	1.075700
3139.000000	1.075690
3138.000000	1.075667
3137.000000	1.075636
3136.000000	1.075608
3135.000000	1.075594
3134.000000	1.075592
3133.000000	1.075589
3132.000000	1.075572
3131.000000	1.075547
3130.000000	1.075533
3129.000000	1.075545
3128.000000	1.075582
3127.000000	1.075628
3126.000000	1.075671
3125.000000	1.075698
3124.000000	1.075702
3123.000000	1.075676
3122.000000	1.075623
3121.000000	1.075554
3120.000000	1.075493
3119.000000	1.075463
3118.000000	1.075465
3117.000000	1.075481
3116.000000	1.075493
3115.000000	1.075494
3114.000000	1.075491
3113.000000	1.075485
3112.000000	1.075475
3111.000000	1.075457
3110.000000	1.075428
3109.000000	1.075384
3108.000000	1.075330
3107.000000	1.075280
3106.000000	1.075249
3105.000000	1.075235
3104.000000	1.075226
3103.000000	1.075207
3102.000000	1.075164
3101.000000	1.075091
3100.000000	1.074999
3099.000000	1.074918
3098.000000	1.074871
3097.000000	1.074849
3096.000000	1.074818
3095.000000	1.074759
3094.000000	1.074686
3093.000000	1.074627
3092.000000	1.074598
3091.000000	1.074587
3090.000000	1.074576
3089.000000	1.074551
3088.000000	1.074507
3087.000000	1.074443
3086.000000	1.074367
3085.000000	1.074289
3084.000000	1.074221
3083.000000	1.074163
3082.000000	1.074101
3081.000000	1.074018
3080.000000	1.073917
3079.000000	1.073823
3078.000000	1.073758
3077.000000	1.073717
3076.000000	1.073674
3075.000000	1.073612
3074.000000	1.073534
3073.000000	1.073450
3072.000000	1.073371
3071.000000	1.073305
3070.000000	1.073251
3069.000000	1.073188
3068.000000	1.073095
3067.000000	1.072974
3066.000000	1.072859
3065.000000	1.072780
3064.000000	1.072743
3063.000000	1.072728
3062.000000	1.072712
3061.000000	1.072682
3060.000000	1.072629
3059.000000	1.072553
3058.000000	1.072462
3057.000000	1.072372
3056.000000	1.072290
3055.000000	1.072222
3054.000000	1.072166
3053.000000	1.072113
3052.000000	1.072050
3051.000000	1.071971
3050.000000	1.071881
3049.000000	1.071791
3048.000000	1.071713
3047.000000	1.071653
3046.000000	1.071612
3045.000000	1.071573
3044.000000	1.071519
3043.000000	1.071439
3042.000000	1.071344
3041.000000	1.071256
3040.000000	1.071184
3039.000000	1.071131
3038.000000	1.071087
3037.000000	1.071036
3036.000000	1.070962
3035.000000	1.070868
3034.000000	1.070772
3033.000000	1.070692
3032.000000	1.070630
3031.000000	1.070577
3030.000000	1.070532
3029.000000	1.070489
3028.000000	1.070439
3027.000000	1.070372
3026.000000	1.070297
3025.000000	1.070230
3024.000000	1.070175
3023.000000	1.070119
3022.000000	1.070058
3021.000000	1.070004
3020.000000	1.069962
3019.000000	1.069916
3018.000000	1.069840
3017.000000	1.069723
3016.000000	1.069581
3015.000000	1.069434
3014.000000	1.069301
3013.000000	1.069194
3012.000000	1.069121
3011.000000	1.069082
3010.000000	1.069063
3009.000000	1.069039
3008.000000	1.068986
3007.000000	1.068893
3006.000000	1.068772
3005.000000	1.068647
3004.000000	1.068536
3003.000000	1.068443
3002.000000	1.068365
3001.000000	1.068290
3000.000000	1.068204
2999.000000	1.068094
2998.000000	1.067964
2997.000000	1.067832
2996.000000	1.067719
2995.000000	1.067629
2994.000000	1.067542
2993.000000	1.067437
2992.000000	1.067310
2991.000000	1.067174
2990.000000	1.067043
2989.000000	1.066920
2988.000000	1.066802
2987.000000	1.066689
2986.000000	1.066588
2985.000000	1.066498
2984.000000	1.066412
2983.000000	1.066322
2982.000000	1.066223
2981.000000	1.066113
2980.000000	1.065989
2979.000000	1.065851
2978.000000	1.065708
2977.000000	1.065571
2976.000000	1.065444
2975.000000	1.065319
2974.000000	1.065192
2973.000000	1.065065
2972.000000	1.064945
2971.000000	1.064832
2970.000000	1.064718
2969.000000	1.064594
2968.000000	1.064462
2967.000000	1.064323
2966.000000	1.064178
2965.000000	1.064031
2964.000000	1.063891
2963.000000	1.063758
2962.000000	1.063616
2961.000000	1.063441
2960.000000	1.063231
2959.000000	1.063006
2958.000000	1.062794
2957.000000	1.062612
2956.000000	1.062456
2955.000000	1.062311
2954.000000	1.062162
2953.000000	1.061999
2952.000000	1.061828
2951.000000	1.061655
2950.000000	1.061477
2949.000000	1.061287
2948.000000	1.061088
2947.000000	1.060895
2946.000000	1.060716
2945.000000	1.060544
2944.000000	1.060372
2943.000000	1.060202
2942.000000	1.060039
2941.000000	1.059872
2940.000000	1.059689
2939.000000	1.059493
2938.000000	1.059298
2937.000000	1.059114
2936.000000	1.058937
2935.000000	1.058757
2934.000000	1.058573
2933.000000	1.058386
2932.000000	1.058197
2931.000000	1.058008
2930.000000	1.057820
2929.000000	1.057623
2928.000000	1.057407
2927.000000	1.057171
2926.000000	1.056928
2925.000000	1.056692
2924.000000	1.056465
2923.000000	1.056251
2922.000000	1.056054
2921.000000	1.055873
2920.000000	1.055694
2919.000000	1.055496
2918.000000	1.055273
2917.000000	1.055038
2916.000000	1.054807
2915.000000	1.054590
2914.000000	1.054391
2913.000000	1.054207
2912.000000	1.054024
2911.000000	1.053830
2910.000000	1.053613
2909.000000	1.053378
2908.000000	1.053141
2907.000000	1.052922
2906.000000	1.052722
2905.000000	1.052527
2904.000000	1.052320
2903.000000	1.052101
2902.000000	1.051884
2901.000000	1.051683
2900.000000	1.051502
2899.000000	1.051331
2898.000000	1.051150
2897.000000	1.050946
2896.000000	1.050716
2895.000000	1.050478
2894.000000	1.050253
2893.000000	1.050040
2892.000000	1.049829
2891.000000	1.049611
2890.000000	1.049394
2889.000000	1.049190
2888.000000	1.049004
2887.000000	1.048827
2886.000000	1.048642
2885.000000	1.048436
2884.000000	1.048214
2883.000000	1.047995
2882.000000	1.047796
2881.000000	1.047608
2880.000000	1.047410
2879.000000	1.047190
2878.000000	1.046962
2877.000000	1.046747
2876.000000	1.046551
2875.000000	1.046369
2874.000000	1.046196
2873.000000	1.046025
2872.000000	1.045849
2871.000000	1.045664
2870.000000	1.045475
2869.000000	1.045287
2868.000000	1.045093
2867.000000	1.044887
2866.000000	1.044670
2865.000000	1.044454
2864.000000	1.044241
2863.000000	1.044029
2862.000000	1.043822
2861.000000	1.043626
2860.000000	1.043441
2859.000000	1.043259
2858.000000	1.043076
2857.000000	1.042893
2856.000000	1.042712
2855.000000	1.042531
2854.000000	1.042353
2853.000000	1.042184
2852.000000	1.042031
2851.000000	1.041893
2850.000000	1.041763
2849.000000	1.041627
2848.000000	1.041477
2847.000000	1.041314
2846.000000	1.041147
2845.000000	1.040986
2844.000000	1.040837
2843.000000	1.040697
2842.000000	1.040565
2841.000000	1.040437
2840.000000	1.040311
2839.000000	1.040187
2838.000000	1.040062
2837.000000	1.039930
2836.000000	1.039781
2835.000000	1.039613
2834.000000	1.039439
2833.000000	1.039275
2832.000000	1.039135
2831.000000	1.039017
2830.000000	1.038912
2829.000000	1.038804
2828.000000	1.038683
2827.000000	1.038547
2826.000000	1.038403
2825.000000	1.038263
2824.000000	1.038134
2823.000000	1.038015
2822.000000	1.037898
2821.000000	1.037773
2820.000000	1.037634
2819.000000	1.037482
2818.000000	1.037326
2817.000000	1.037180
2816.000000	1.037053
2815.000000	1.036949
2814.000000	1.036865
2813.000000	1.036783
2812.000000	1.036687
2811.000000	1.036569
2810.000000	1.036441
2809.000000	1.036321
2808.000000	1.036225
2807.000000	1.036149
2806.000000	1.036080
2805.000000	1.035995
2804.000000	1.035883
2803.000000	1.035753
2802.000000	1.035624
2801.000000	1.035514
2800.000000	1.035429
2799.000000	1.035358
2798.000000	1.035283
2797.000000	1.035190
2796.000000	1.035087
2795.000000	1.034994
2794.000000	1.034927
2793.000000	1.034876
2792.000000	1.034815
2791.000000	1.034722
2790.000000	1.034599
2789.000000	1.034466
2788.000000	1.034345
2787.000000	1.034253
2786.000000	1.034188
2785.000000	1.034135
2784.000000	1.034075
2783.000000	1.034006
2782.000000	1.033940
2781.000000	1.033881
2780.000000	1.033819
2779.000000	1.033747
2778.000000	1.033667
2777.000000	1.033588
2776.000000	1.033509
2775.000000	1.033431
2774.000000	1.033363
2773.000000	1.033314
2772.000000	1.033281
2771.000000	1.033255
2770.000000	1.033226
2769.000000	1.033183
2768.000000	1.033122
2767.000000	1.033041
2766.000000	1.032949
2765.000000	1.032855
2764.000000	1.032767
2763.000000	1.032686
2762.000000	1.032620
2761.000000	1.032569
2760.000000	1.032527
2759.000000	1.032484
2758.000000	1.032435
2757.000000	1.032383
2756.000000	1.032338
2755.000000	1.032310
2754.000000	1.032296
2753.000000	1.032282
2752.000000	1.032255
2751.000000	1.032215
2750.000000	1.032174
2749.000000	1.032139
2748.000000	1.032100
2747.000000	1.032049
2746.000000	1.031989
2745.000000	1.031935
2744.000000	1.031889
2743.000000	1.031853
2742.000000	1.031828
2741.000000	1.031815
2740.000000	1.031809
2739.000000	1.031799
2738.000000	1.031778
2737.000000	1.031744
2736.000000	1.031702
2735.000000	1.031660
2734.000000	1.031628
2733.000000	1.031605
2732.000000	1.031580
2731.000000	1.031557
2730.000000	1.031547
2729.000000	1.031556
2728.000000	1.031562
2727.000000	1.031538
2726.000000	1.031486
2725.000000	1.031436
2724.000000	1.031411
2723.000000	1.031412
2722.000000	1.031424
2721.000000	1.031432
2720.000000	1.031428
2719.000000	1.031409
2718.000000	1.031380
2717.000000	1.031351
2716.000000	1.031327
2715.000000	1.031309
2714.000000	1.031299
2713.000000	1.031305
2712.000000	1.031320
2711.000000	1.031336
2710.000000	1.031349
2709.000000	1.031366
2708.000000	1.031386
2707.000000	1.031402
2706.000000	1.031409
2705.000000	1.031405
2704.000000	1.031393
2703.000000	1.031373
2702.000000	1.031354
2701.000000	1.031352
2700.000000	1.031376
2699.000000	1.031416
2698.000000	1.031451
2697.000000	1.031469
2696.000000	1.031469
2695.000000	1.031463
2694.000000	1.031466
2693.000000	1.031484
2692.000000	1.031517
2691.000000	1.031555
2690.000000	1.031592
2689.000000	1.031624
2688.000000	1.031650
2687.000000	1.031671
2686.000000	1.031698
2685.000000	1.031737
2684.000000	1.031783
2683.000000	1.031825
2682.000000	1.031857
2681.000000	1.031882
2680.000000	1.031902
2679.000000	1.031916
2678.000000	1.031925
2677.000000	1.031942
2676.000000	1.031981
2675.000000	1.032043
2674.000000	1.032114
2673.000000	1.032177
2672.000000	1.032221
2671.000000	1.032255
2670.000000	1.032296
2669.000000	1.032357
2668.000000	1.032429
2667.000000	1.032486
2666.000000	1.032516
2665.000000	1.032529
2664.000000	1.032549
2663.000000	1.032593
2662.000000	1.032669
2661.000000	1.032770
2660.000000	1.032876
2659.000000	1.032962
2658.000000	1.033018
2657.000000	1.033055
2656.000000	1.033091
2655.000000	1.033136
2654.000000	1.033191
2653.000000	1.033261
2652.000000	1.033346
2651.000000	1.033446
2650.000000	1.033550
2649.000000	1.033644
2648.000000	1.033722
2647.000000	1.033786
2646.000000	1.033850
2645.000000	1.033930
2644.000000	1.034028
2643.000000	1.034126
2642.000000	1.034202
2641.000000	1.034250
2640.000000	1.034281
2639.000000	1.034320
2638.000000	1.034388
2637.000000	1.034489
2636.000000	1.034608
2635.000000	1.034720
2634.000000	1.034808
2633.000000	1.034873
2632.000000	1.034933
2631.000000	1.035012
2630.000000	1.035118
2629.000000	1.035238
2628.000000	1.035353
2627.000000	1.035449
2626.000000	1.035531
2625.000000	1.035614
2624.000000	1.035703
2623.000000	1.035797
2622.000000	1.035892
2621.000000	1.035986
2620.000000	1.036080
2619.000000	1.036173
2618.000000	1.036267
2617.000000	1.036369
2616.000000	1.036481
2615.000000	1.036598
2614.000000	1.036708
2613.000000	1.036804
2612.000000	1.036888
2611.000000	1.036969
2610.000000	1.037064
2609.000000	1.037181
2608.000000	1.037311
2607.000000	1.037437
2606.000000	1.037543
2605.000000	1.037631
2604.000000	1.037715
2603.000000	1.037811
2602.000000	1.037925
2601.000000	1.038052
2600.000000	1.038185
2599.000000	1.038315
2598.000000	1.038438
2597.000000	1.038551
2596.000000	1.038648
2595.000000	1.038733
2594.000000	1.038820
2593.000000	1.038929
2592.000000	1.039066
2591.000000	1.039216
2590.000000	1.039357
2589.000000	1.039473
2588.000000	1.039568
2587.000000	1.039658
2586.000000	1.039756
2585.000000	1.039870
2584.000000	1.039993
2583.000000	1.040121
2582.000000	1.040258
2581.000000	1.040409
2580.000000	1.040572
2579.000000	1.040732
2578.000000	1.040871
2577.000000	1.040981
2576.000000	1.041068
2575.000000	1.041151
2574.000000	1.041252
2573.000000	1.041382
2572.000000	1.041533
2571.000000	1.041687
2570.000000	1.041829
2569.000000	1.041959
2568.000000	1.042083
2567.000000	1.042210
2566.000000	1.042347
2565.000000	1.042496
2564.000000	1.042649
2563.000000	1.042800
2562.000000	1.042946
2561.000000	1.043093
2560.000000	1.043246
2559.000000	1.043406
2558.000000	1.043568
2557.000000	1.043727
2556.000000	1.043874
2555.000000	1.044007
2554.000000	1.044133
2553.000000	1.044268
2552.000000	1.044424
2551.000000	1.044607
2550.000000	1.044810
2549.000000	1.045019
2548.000000	1.045212
2547.000000	1.045381
2546.000000	1.045530
2545.000000	1.045674
2544.000000	1.045819
2543.000000	1.045965
2542.000000	1.046115
2541.000000	1.046277
2540.000000	1.046456
2539.000000	1.046641
2538.000000	1.046824
2537.000000	1.047003
2536.000000	1.047183
2535.000000	1.047357
2534.000000	1.047512
2533.000000	1.047646
2532.000000	1.047778
2531.000000	1.047931
2530.000000	1.048115
2529.000000	1.048311
2528.000000	1.048499
2527.000000	1.048676
2526.000000	1.048851
2525.000000	1.049029
2524.000000	1.049206
2523.000000	1.049380
2522.000000	1.049556
2521.000000	1.049738
2520.000000	1.049920
2519.000000	1.050092
2518.000000	1.050262
2517.000000	1.050441
2516.000000	1.050629
2515.000000	1.050809
2514.000000	1.050975
2513.000000	1.051135
2512.000000	1.051306
2511.000000	1.051487
2510.000000	1.051663
2509.000000	1.051824
2508.000000	1.051967
2507.000000	1.052104
2506.000000	1.052246
2505.000000	1.052399
2504.000000	1.052556
2503.000000	1.052704
2502.000000	1.052837
2501.000000	1.052966
2500.000000	1.053105
2499.000000	1.053256
2498.000000	1.053408
2497.000000	1.053544
2496.000000	1.053661
2495.000000	1.053768
2494.000000	1.053877
2493.000000	1.053988
2492.000000	1.054092
2491.000000	1.054186
2490.000000	1.054279
2489.000000	1.054387
2488.000000	1.054509
2487.000000	1.054628
2486.000000	1.054721
2485.000000	1.054787
2484.000000	1.054845
2483.000000	1.054915
2482.000000	1.055006
2481.000000	1.055108
2480.000000	1.055207
2479.000000	1.055287
2478.000000	1.055344
2477.000000	1.055390
2476.000000	1.055442
2475.000000	1.055511
2474.000000	1.055589
2473.000000	1.055666
2472.000000	1.055735
2471.000000	1.055794
2470.000000	1.055838
2469.000000	1.055865
2468.000000	1.055880
2467.000000	1.055897
2466.000000	1.055922
2465.000000	1.055955
2464.000000	1.055991
2463.000000	1.056024
2462.000000	1.056055
2461.000000	1.056087
2460.000000	1.056120
2459.000000	1.056153
2458.000000	1.056174
2457.000000	1.056174
2456.000000	1.056148
2455.000000	1.056115
2454.000000	1.056099
2453.000000	1.056113
2452.000000	1.056141
2451.000000	1.056159
2450.000000	1.056150
2449.000000	1.056122
2448.000000	1.056093
2447.000000	1.056074
2446.000000	1.056064
2445.000000	1.056052
2444.000000	1.056031
2443.000000	1.055998
2442.000000	1.055957
2441.000000	1.055917
2440.000000	1.055882
2439.000000	1.055854
2438.000000	1.055832
2437.000000	1.055808
2436.000000	1.055773
2435.000000	1.055726
2434.000000	1.055668
2433.000000	1.055606
2432.000000	1.055545
2431.000000	1.055489
2430.000000	1.055438
2429.000000	1.055391
2428.000000	1.055344
2427.000000	1.055295
2426.000000	1.055247
2425.000000	1.055202
2424.000000	1.055154
2423.000000	1.055093
2422.000000	1.055013
2421.000000	1.054920
2420.000000	1.054833
2419.000000	1.054770
2418.000000	1.054730
2417.000000	1.054691
2416.000000	1.054631
2415.000000	1.054553
2414.000000	1.054482
2413.000000	1.054442
2412.000000	1.054428
2411.000000	1.054419
2410.000000	1.054397
2409.000000	1.054351
2408.000000	1.054282
2407.000000	1.054200
2406.000000	1.054122
2405.000000	1.054066
2404.000000	1.054036
2403.000000	1.054021
2402.000000	1.054010
2401.000000	1.053998
2400.000000	1.053978
2399.000000	1.053947
2398.000000	1.053900
2397.000000	1.053845
2396.000000	1.053797
2395.000000	1.053766
2394.000000	1.053752
2393.000000	1.053739
2392.000000	1.053715
2391.000000	1.053680
2390.000000	1.053650
2389.000000	1.053636
2388.000000	1.053634
2387.000000	1.053632
2386.000000	1.053618
2385.000000	1.053591
2384.000000	1.053552
2383.000000	1.053506
2382.000000	1.053457
2381.000000	1.053403
2380.000000	1.053332
2379.000000	1.053238
2378.000000	1.053127
2377.000000	1.053009
2376.000000	1.052884
2375.000000	1.052739
2374.000000	1.052566
2373.000000	1.052370
2372.000000	1.052159
2371.000000	1.051933
2370.000000	1.051695
2369.000000	1.051454
2368.000000	1.051225
2367.000000	1.051023
2366.000000	1.050862
2365.000000	1.050750
2364.000000	1.050684
2363.000000	1.050647
2362.000000	1.050629
2361.000000	1.050636
2360.000000	1.050689
2359.000000	1.050799
2358.000000	1.050966
2357.000000	1.051179
2356.000000	1.051434
2355.000000	1.051735
2354.000000	1.052091
2353.000000	1.052498
2352.000000	1.052933
2351.000000	1.053343
2350.000000	1.053678
2349.000000	1.053918
2348.000000	1.054112
2347.000000	1.054354
2346.000000	1.054740
2345.000000	1.055312
2344.000000	1.056035
2343.000000	1.056806
2342.000000	1.057468
2341.000000	1.057838
2340.000000	1.057778
2339.000000	1.057273
2338.000000	1.056460
2337.000000	1.055569
2336.000000	1.054801
2335.000000	1.054253
2334.000000	1.053915
2333.000000	1.053727
2332.000000	1.053634
2331.000000	1.053601
2330.000000	1.053614
2329.000000	1.053670
2328.000000	1.053764
2327.000000	1.053890
2326.000000	1.054034
2325.000000	1.054182
2324.000000	1.054323
2323.000000	1.054458
2322.000000	1.054596
2321.000000	1.054741
2320.000000	1.054890
2319.000000	1.055034
2318.000000	1.055169
2317.000000	1.055296
2316.000000	1.055413
2315.000000	1.055517
2314.000000	1.055609
2313.000000	1.055697
2312.000000	1.055791
2311.000000	1.055892
2310.000000	1.055994
2309.000000	1.056083
2308.000000	1.056150
2307.000000	1.056200
2306.000000	1.056255
2305.000000	1.056333
2304.000000	1.056432
2303.000000	1.056529
2302.000000	1.056604
2301.000000	1.056655
2300.000000	1.056695
2299.000000	1.056737
2298.000000	1.056787
2297.000000	1.056841
2296.000000	1.056894
2295.000000	1.056942
2294.000000	1.056986
2293.000000	1.057034
2292.000000	1.057089
2291.000000	1.057153
2290.000000	1.057219
2289.000000	1.057278
2288.000000	1.057321
2287.000000	1.057353
2286.000000	1.057383
2285.000000	1.057423
2284.000000	1.057478
2283.000000	1.057551
2282.000000	1.057634
2281.000000	1.057715
2280.000000	1.057781
2279.000000	1.057832
2278.000000	1.057877
2277.000000	1.057927
2276.000000	1.057982
2275.000000	1.058033
2274.000000	1.058074
2273.000000	1.058100
2272.000000	1.058117
2271.000000	1.058130
2270.000000	1.058147
2269.000000	1.058173
2268.000000	1.058203
2267.000000	1.058233
2266.000000	1.058261
2265.000000	1.058287
2264.000000	1.058315
2263.000000	1.058347
2262.000000	1.058383
2261.000000	1.058424
2260.000000	1.058466
2259.000000	1.058513
2258.000000	1.058566
2257.000000	1.058621
2256.000000	1.058671
2255.000000	1.058708
2254.000000	1.058732
2253.000000	1.058750
2252.000000	1.058771
2251.000000	1.058803
2250.000000	1.058852
2249.000000	1.058907
2248.000000	1.058951
2247.000000	1.058976
2246.000000	1.058987
2245.000000	1.058998
2244.000000	1.059009
2243.000000	1.059019
2242.000000	1.059028
2241.000000	1.059045
2240.000000	1.059075
2239.000000	1.059114
2238.000000	1.059152
2237.000000	1.059180
2236.000000	1.059193
2235.000000	1.059195
2234.000000	1.059202
2233.000000	1.059225
2232.000000	1.059254
2231.000000	1.059278
2230.000000	1.059292
2229.000000	1.059306
2228.000000	1.059323
2227.000000	1.059341
2226.000000	1.059361
2225.000000	1.059385
2224.000000	1.059413
2223.000000	1.059438
2222.000000	1.059459
2221.000000	1.059479
2220.000000	1.059498
2219.000000	1.059510
2218.000000	1.059514
2217.000000	1.059518
2216.000000	1.059524
2215.000000	1.059530
2214.000000	1.059534
2213.000000	1.059541
2212.000000	1.059552
2211.000000	1.059560
2210.000000	1.059563
2209.000000	1.059565
2208.000000	1.059578
2207.000000	1.059598
2206.000000	1.059610
2205.000000	1.059609
2204.000000	1.059600
2203.000000	1.059597
2202.000000	1.059599
2201.000000	1.059593
2200.000000	1.059567
2199.000000	1.059528
2198.000000	1.059492
2197.000000	1.059472
2196.000000	1.059463
2195.000000	1.059456
2194.000000	1.059445
2193.000000	1.059434
2192.000000	1.059423
2191.000000	1.059412
2190.000000	1.059405
2189.000000	1.059405
2188.000000	1.059414
2187.000000	1.059423
2186.000000	1.059423
2185.000000	1.059403
2184.000000	1.059361
2183.000000	1.059306
2182.000000	1.059261
2181.000000	1.059239
2180.000000	1.059232
2179.000000	1.059218
2178.000000	1.059186
2177.000000	1.059144
2176.000000	1.059112
2175.000000	1.059096
2174.000000	1.059089
2173.000000	1.059073
2172.000000	1.059041
2171.000000	1.059001
2170.000000	1.058965
2169.000000	1.058937
2168.000000	1.058905
2167.000000	1.058863
2166.000000	1.058811
2165.000000	1.058760
2164.000000	1.058711
2163.000000	1.058668
2162.000000	1.058631
2161.000000	1.058595
2160.000000	1.058552
2159.000000	1.058499
2158.000000	1.058447
2157.000000	1.058403
2156.000000	1.058356
2155.000000	1.058296
2154.000000	1.058227
2153.000000	1.058165
2152.000000	1.058115
2151.000000	1.058067
2150.000000	1.058019
2149.000000	1.057974
2148.000000	1.057931
2147.000000	1.057878
2146.000000	1.057811
2145.000000	1.057736
2144.000000	1.057659
2143.000000	1.057581
2142.000000	1.057500
2141.000000	1.057420
2140.000000	1.057340
2139.000000	1.057254
2138.000000	1.057162
2137.000000	1.057072
2136.000000	1.056991
2135.000000	1.056915
2134.000000	1.056841
2133.000000	1.056771
2132.000000	1.056706
2131.000000	1.056636
2130.000000	1.056551
2129.000000	1.056451
2128.000000	1.056351
2127.000000	1.056259
2126.000000	1.056177
2125.000000	1.056099
2124.000000	1.056013
2123.000000	1.055916
2122.000000	1.055813
2121.000000	1.055713
2120.000000	1.055611
2119.000000	1.055498
2118.000000	1.055374
2117.000000	1.055258
2116.000000	1.055161
2115.000000	1.055069
2114.000000	1.054962
2113.000000	1.054833
2112.000000	1.054699
2111.000000	1.054574
2110.000000	1.054462
2109.000000	1.054360
2108.000000	1.054261
2107.000000	1.054155
2106.000000	1.054032
2105.000000	1.053895
2104.000000	1.053761
2103.000000	1.053641
2102.000000	1.053531
2101.000000	1.053423
2100.000000	1.053312
2099.000000	1.053195
2098.000000	1.053068
2097.000000	1.052928
2096.000000	1.052779
2095.000000	1.052632
2094.000000	1.052490
2093.000000	1.052351
2092.000000	1.052212
2091.000000	1.052080
2090.000000	1.051959
2089.000000	1.051846
2088.000000	1.051732
2087.000000	1.051610
2086.000000	1.051481
2085.000000	1.051340
2084.000000	1.051185
2083.000000	1.051022
2082.000000	1.050865
2081.000000	1.050720
2080.000000	1.050577
2079.000000	1.050431
2078.000000	1.050284
2077.000000	1.050146
2076.000000	1.050018
2075.000000	1.049888
2074.000000	1.049742
2073.000000	1.049578
2072.000000	1.049408
2071.000000	1.049252
2070.000000	1.049116
2069.000000	1.048986
2068.000000	1.048841
2067.000000	1.048669
2066.000000	1.048488
2065.000000	1.048322
2064.000000	1.048181
2063.000000	1.048051
2062.000000	1.047916
2061.000000	1.047767
2060.000000	1.047606
2059.000000	1.047437
2058.000000	1.047267
2057.000000	1.047101
2056.000000	1.046942
2055.000000	1.046790
2054.000000	1.046646
2053.000000	1.046504
2052.000000	1.046363
2051.000000	1.046225
2050.000000	1.046092
2049.000000	1.045961
2048.000000	1.045826
2047.000000	1.045683
2046.000000	1.045537
2045.000000	1.045391
2044.000000	1.045243
2043.000000	1.045097
2042.000000	1.044961
2041.000000	1.044839
2040.000000	1.044724
2039.000000	1.044603
2038.000000	1.044467
2037.000000	1.044315
2036.000000	1.044153
2035.000000	1.043990
2034.000000	1.043838
2033.000000	1.043702
2032.000000	1.043575
2031.000000	1.043445
2030.000000	1.043313
2029.000000	1.043183
2028.000000	1.043056
2027.000000	1.042929
2026.000000	1.042805
2025.000000	1.042686
2024.000000	1.042570
2023.000000	1.042448
2022.000000	1.042321
2021.000000	1.042189
2020.000000	1.042050
2019.000000	1.041902
2018.000000	1.041754
2017.000000	1.041624
2016.000000	1.041520
2015.000000	1.041434
2014.000000	1.041357
2013.000000	1.041281
2012.000000	1.041196
2011.000000	1.041091
2010.000000	1.040964
2009.000000	1.040826
2008.000000	1.040696
2007.000000	1.040593
2006.000000	1.040519
2005.000000	1.040464
2004.000000	1.040401
2003.000000	1.040312
2002.000000	1.040203
2001.000000	1.040093
2000.000000	1.039994
1999.000000	1.039902
1998.000000	1.039811
1997.000000	1.039725
1996.000000	1.039644
1995.000000	1.039560
1994.000000	1.039466
1993.000000	1.039368
1992.000000	1.039278
1991.000000	1.039196
1990.000000	1.039108
1989.000000	1.039008
1988.000000	1.038910
1987.000000	1.038830
1986.000000	1.038770
1985.000000	1.038710
1984.000000	1.038638
1983.000000	1.038565
1982.000000	1.038506
1981.000000	1.038460
1980.000000	1.038409
1979.000000	1.038342
1978.000000	1.038268
1977.000000	1.038198
1976.000000	1.038133
1975.000000	1.038068
1974.000000	1.038005
1973.000000	1.037948
1972.000000	1.037892
1971.000000	1.037832
1970.000000	1.037768
1969.000000	1.037709
1968.000000	1.037663
1967.000000	1.037625
1966.000000	1.037590
1965.000000	1.037550
1964.000000	1.037502
1963.000000	1.037449
1962.000000	1.037396
1961.000000	1.037341
1960.000000	1.037282
1959.000000	1.037230
1958.000000	1.037195
1957.000000	1.037180
1956.000000	1.037164
1955.000000	1.037133
1954.000000	1.037093
1953.000000	1.037061
1952.000000	1.037041
1951.000000	1.037028
1950.000000	1.037011
1949.000000	1.036987
1948.000000	1.036954
1947.000000	1.036913
1946.000000	1.036871
1945.000000	1.036829
1944.000000	1.036787
1943.000000	1.036755
1942.000000	1.036748
1941.000000	1.036767
1940.000000	1.036792
1939.000000	1.036804
1938.000000	1.036802
1937.000000	1.036799
1936.000000	1.036797
1935.000000	1.036793
1934.000000	1.036793
1933.000000	1.036799
1932.000000	1.036806
1931.000000	1.036804
1930.000000	1.036797
1929.000000	1.036790
1928.000000	1.036781
1927.000000	1.036766
1926.000000	1.036750
1925.000000	1.036742
1924.000000	1.036740
1923.000000	1.036737
1922.000000	1.036730
1921.000000	1.036712
1920.000000	1.036677
1919.000000	1.036637
1918.000000	1.036636
1917.000000	1.036701
1916.000000	1.036798
1915.000000	1.036862
1914.000000	1.036867
1913.000000	1.036842
1912.000000	1.036823
1911.000000	1.036821
1910.000000	1.036831
1909.000000	1.036853
1908.000000	1.036886
1907.000000	1.036917
1906.000000	1.036943
1905.000000	1.036975
1904.000000	1.037018
1903.000000	1.037060
1902.000000	1.037086
1901.000000	1.037100
1900.000000	1.037118
1899.000000	1.037148
1898.000000	1.037185
1897.000000	1.037222
1896.000000	1.037251
1895.000000	1.037270
1894.000000	1.037285
1893.000000	1.037300
1892.000000	1.037311
1891.000000	1.037314
1890.000000	1.037325
1889.000000	1.037367
1888.000000	1.037440
1887.000000	1.037519
1886.000000	1.037581
1885.000000	1.037623
1884.000000	1.037656
1883.000000	1.037689
1882.000000	1.037724
1881.000000	1.037754
1880.000000	1.037775
1879.000000	1.037790
1878.000000	1.037815
1877.000000	1.037861
1876.000000	1.037914
1875.000000	1.037956
1874.000000	1.037989
1873.000000	1.038017
1872.000000	1.038029
1871.000000	1.038014
1870.000000	1.037993
1869.000000	1.038018
1868.000000	1.038108
1867.000000	1.038233
1866.000000	1.038349
1865.000000	1.038441
1864.000000	1.038516
1863.000000	1.038584
1862.000000	1.038651
1861.000000	1.038723
1860.000000	1.038800
1859.000000	1.038875
1858.000000	1.038949
1857.000000	1.039026
1856.000000	1.039100
1855.000000	1.039158
1854.000000	1.039206
1853.000000	1.039266
1852.000000	1.039345
1851.000000	1.039420
1850.000000	1.039478
1849.000000	1.039531
1848.000000	1.039583
1847.000000	1.039597
1846.000000	1.039544
1845.000000	1.039476
1844.000000	1.039499
1843.000000	1.039668
1842.000000	1.039923
1841.000000	1.040145
1840.000000	1.040269
1839.000000	1.040327
1838.000000	1.040386
1837.000000	1.040476
1836.000000	1.040579
1835.000000	1.040675
1834.000000	1.040759
1833.000000	1.040821
1832.000000	1.040849
1831.000000	1.040860
1830.000000	1.040918
1829.000000	1.041062
1828.000000	1.041252
1827.000000	1.041411
1826.000000	1.041514
1825.000000	1.041604
1824.000000	1.041721
1823.000000	1.041859
1822.000000	1.041995
1821.000000	1.042127
1820.000000	1.042260
1819.000000	1.042388
1818.000000	1.042511
1817.000000	1.042643
1816.000000	1.042795
1815.000000	1.042949
1814.000000	1.043080
1813.000000	1.043183
1812.000000	1.043274
1811.000000	1.043375
1810.000000	1.043504
1809.000000	1.043669
1808.000000	1.043849
1807.000000	1.044008
1806.000000	1.044131
1805.000000	1.044233
1804.000000	1.044323
1803.000000	1.044400
1802.000000	1.044474
1801.000000	1.044585
1800.000000	1.044752
1799.000000	1.044951
1798.000000	1.045140
1797.000000	1.045292
1796.000000	1.045390
1795.000000	1.045418
1794.000000	1.045402
1793.000000	1.045422
1792.000000	1.045559
1791.000000	1.045809
1790.000000	1.046101
1789.000000	1.046362
1788.000000	1.046563
1787.000000	1.046710
1786.000000	1.046835
1785.000000	1.046975
1784.000000	1.047144
1783.000000	1.047313
1782.000000	1.047456
1781.000000	1.047589
1780.000000	1.047748
1779.000000	1.047941
1778.000000	1.048136
1777.000000	1.048298
1776.000000	1.048391
1775.000000	1.048393
1774.000000	1.048337
1773.000000	1.048334
1772.000000	1.048497
1771.000000	1.048812
1770.000000	1.049152
1769.000000	1.049420
1768.000000	1.049642
1767.000000	1.049896
1766.000000	1.050178
1765.000000	1.050401
1764.000000	1.050500
1763.000000	1.050525
1762.000000	1.050594
1761.000000	1.050786
1760.000000	1.051062
1759.000000	1.051313
1758.000000	1.051476
1757.000000	1.051600
1756.000000	1.051772
1755.000000	1.051989
1754.000000	1.052156
1753.000000	1.052213
1752.000000	1.052226
1751.000000	1.052312
1750.000000	1.052516
1749.000000	1.052779
1748.000000	1.053033
1747.000000	1.053267
1746.000000	1.053489
1745.000000	1.053688
1744.000000	1.053846
1743.000000	1.053957
1742.000000	1.054032
1741.000000	1.054099
1740.000000	1.054214
1739.000000	1.054409
1738.000000	1.054609
1737.000000	1.054651
1736.000000	1.054462
1735.000000	1.054198
1734.000000	1.054142
1733.000000	1.054422
1732.000000	1.054898
1731.000000	1.055338
1730.000000	1.055637
1729.000000	1.055828
1728.000000	1.055957
1727.000000	1.056040
1726.000000	1.056095
1725.000000	1.056163
1724.000000	1.056261
1723.000000	1.056372
1722.000000	1.056453
1721.000000	1.056436
1720.000000	1.056256
1719.000000	1.055945
1718.000000	1.055689
1717.000000	1.055687
1716.000000	1.055955
1715.000000	1.056320
1714.000000	1.056627
1713.000000	1.056849
1712.000000	1.057018
1711.000000	1.057128
1710.000000	1.057171
1709.000000	1.057168
1708.000000	1.057133
1707.000000	1.057061
1706.000000	1.056996
1705.000000	1.057011
1704.000000	1.057062
1703.000000	1.056966
1702.000000	1.056643
1701.000000	1.056296
1700.000000	1.056208
1699.000000	1.056373
1698.000000	1.056512
1697.000000	1.056473
1696.000000	1.056435
1695.000000	1.056654
1694.000000	1.057106
1693.000000	1.057518
1692.000000	1.057695
1691.000000	1.057684
1690.000000	1.057653
1689.000000	1.057662
1688.000000	1.057592
1687.000000	1.057302
1686.000000	1.056835
1685.000000	1.056464
1684.000000	1.056470
1683.000000	1.056854
1682.000000	1.057338
1681.000000	1.057664
1680.000000	1.057797
1679.000000	1.057835
1678.000000	1.057811
1677.000000	1.057700
1676.000000	1.057551
1675.000000	1.057503
1674.000000	1.057613
1673.000000	1.057765
1672.000000	1.057801
1671.000000	1.057707
1670.000000	1.057611
1669.000000	1.057642
1668.000000	1.057805
1667.000000	1.057998
1666.000000	1.058098
1665.000000	1.058055
1664.000000	1.057935
1663.000000	1.057868
1662.000000	1.057939
1661.000000	1.058108
1660.000000	1.058260
1659.000000	1.058325
1658.000000	1.058296
1657.000000	1.058131
1656.000000	1.057715
1655.000000	1.057033
1654.000000	1.056344
1653.000000	1.056079
1652.000000	1.056435
1651.000000	1.057150
1650.000000	1.057736
1649.000000	1.057915
1648.000000	1.057772
1647.000000	1.057592
1646.000000	1.057590
1645.000000	1.057799
1644.000000	1.058106
1643.000000	1.058358
1642.000000	1.058472
1641.000000	1.058475
1640.000000	1.058424
1639.000000	1.058301
1638.000000	1.058048
1637.000000	1.057709
1636.000000	1.057483
1635.000000	1.057549
1634.000000	1.057873
1633.000000	1.058241
1632.000000	1.058461
1631.000000	1.058499
1630.000000	1.058428
1629.000000	1.058338
1628.000000	1.058276
1627.000000	1.058246
1626.000000	1.058215
1625.000000	1.058148
1624.000000	1.058059
1623.000000	1.058017
1622.000000	1.058071
1621.000000	1.058167
1620.000000	1.058164
1619.000000	1.057970
1618.000000	1.057669
1617.000000	1.057486
1616.000000	1.057592
1615.000000	1.057938
1614.000000	1.058311
1613.000000	1.058537
1612.000000	1.058602
1611.000000	1.058590
1610.000000	1.058564
1609.000000	1.058543
1608.000000	1.058538
1607.000000	1.058562
1606.000000	1.058602
1605.000000	1.058630
1604.000000	1.058635
1603.000000	1.058636
1602.000000	1.058654
1601.000000	1.058687
1600.000000	1.058718
1599.000000	1.058726
1598.000000	1.058701
1597.000000	1.058652
1596.000000	1.058610
1595.000000	1.058601
1594.000000	1.058619
1593.000000	1.058637
1592.000000	1.058644
1591.000000	1.058644
1590.000000	1.058650
1589.000000	1.058664
1588.000000	1.058685
1587.000000	1.058704
1586.000000	1.058712
1585.000000	1.058702
1584.000000	1.058678
1583.000000	1.058653
1582.000000	1.058648
1581.000000	1.058655
1580.000000	1.058614
1579.000000	1.058427
1578.000000	1.058069
1577.000000	1.057696
1576.000000	1.057564
1575.000000	1.057782
1574.000000	1.058170
1573.000000	1.058430
1572.000000	1.058431
1571.000000	1.058285
1570.000000	1.058183
1569.000000	1.058210
1568.000000	1.058324
1567.000000	1.058444
1566.000000	1.058519
1565.000000	1.058535
1564.000000	1.058478
1563.000000	1.058281
1562.000000	1.057848
1561.000000	1.057197
1560.000000	1.056580
1559.000000	1.056347
1558.000000	1.056625
1557.000000	1.057174
1556.000000	1.057644
1555.000000	1.057901
1554.000000	1.058044
1553.000000	1.058189
1552.000000	1.058335
1551.000000	1.058433
1550.000000	1.058485
1549.000000	1.058516
1548.000000	1.058510
1547.000000	1.058432
1546.000000	1.058283
1545.000000	1.058094
1544.000000	1.057877
1543.000000	1.057602
1542.000000	1.057253
1541.000000	1.056906
1540.000000	1.056743
1539.000000	1.056925
1538.000000	1.057408
1537.000000	1.057924
1536.000000	1.058197
1535.000000	1.058190
1534.000000	1.058094
1533.000000	1.058098
1532.000000	1.058207
1531.000000	1.058305
1530.000000	1.058319
1529.000000	1.058260
1528.000000	1.058171
1527.000000	1.058095
1526.000000	1.058061
1525.000000	1.058034
1524.000000	1.057913
1523.000000	1.057654
1522.000000	1.057382
1521.000000	1.057294
1520.000000	1.057431
1519.000000	1.057641
1518.000000	1.057782
1517.000000	1.057872
1516.000000	1.057998
1515.000000	1.058153
1514.000000	1.058246
1513.000000	1.058245
1512.000000	1.058200
1511.000000	1.058130
1510.000000	1.057961
1509.000000	1.057622
1508.000000	1.057189
1507.000000	1.056888
1506.000000	1.056928
1505.000000	1.057322
1504.000000	1.057863
1503.000000	1.058291
1502.000000	1.058486
1501.000000	1.058490
1500.000000	1.058392
