PE IR       SUBTECH     SPECTRUM    ASCII       PEDS        4.00        
   -1
TE108B1_022.ASC
20/02/21
15:35:17.00
20/02/21
15:35:17.00
Administrator
Sample 022 By Administrator Date Friday, February 21 2020
1500.000000
#HDR
-1
-1
#GR
cm-1
A
1.0
0.0
4000.000000
-1.000000
2501
8
1.001004
0.932062
#DATA
4000.000000	0.944242
3999.000000	0.944250
3998.000000	0.944264
3997.000000	0.944278
3996.000000	0.944293
3995.000000	0.944310
3994.000000	0.944322
3993.000000	0.944318
3992.000000	0.944291
3991.000000	0.944249
3990.000000	0.944212
3989.000000	0.944197
3988.000000	0.944202
3987.000000	0.944205
3986.000000	0.944186
3985.000000	0.944144
3984.000000	0.944092
3983.000000	0.944052
3982.000000	0.944030
3981.000000	0.944019
3980.000000	0.944007
3979.000000	0.943982
3978.000000	0.943941
3977.000000	0.943885
3976.000000	0.943816
3975.000000	0.943737
3974.000000	0.943658
3973.000000	0.943585
3972.000000	0.943526
3971.000000	0.943482
3970.000000	0.943456
3969.000000	0.943447
3968.000000	0.943448
3967.000000	0.943442
3966.000000	0.943408
3965.000000	0.943334
3964.000000	0.943234
3963.000000	0.943133
3962.000000	0.943054
3961.000000	0.942999
3960.000000	0.942945
3959.000000	0.942873
3958.000000	0.942786
3957.000000	0.942701
3956.000000	0.942632
3955.000000	0.942574
3954.000000	0.942513
3953.000000	0.942438
3952.000000	0.942354
3951.000000	0.942264
3950.000000	0.942174
3949.000000	0.942089
3948.000000	0.942015
3947.000000	0.941954
3946.000000	0.941888
3945.000000	0.941796
3944.000000	0.941674
3943.000000	0.941541
3942.000000	0.941426
3941.000000	0.941342
3940.000000	0.941278
3939.000000	0.941213
3938.000000	0.941139
3937.000000	0.941059
3936.000000	0.940975
3935.000000	0.940878
3934.000000	0.940761
3933.000000	0.940630
3932.000000	0.940507
3931.000000	0.940407
3930.000000	0.940328
3929.000000	0.940243
3928.000000	0.940130
3927.000000	0.939995
3926.000000	0.939862
3925.000000	0.939756
3924.000000	0.939677
3923.000000	0.939604
3922.000000	0.939512
3921.000000	0.939389
3920.000000	0.939238
3919.000000	0.939073
3918.000000	0.938915
3917.000000	0.938788
3916.000000	0.938711
3915.000000	0.938679
3914.000000	0.938657
3913.000000	0.938610
3912.000000	0.938530
3911.000000	0.938434
3910.000000	0.938344
3909.000000	0.938253
3908.000000	0.938131
3907.000000	0.937955
3906.000000	0.937733
3905.000000	0.937503
3904.000000	0.937303
3903.000000	0.937151
3902.000000	0.937038
3901.000000	0.936953
3900.000000	0.936897
3899.000000	0.936876
3898.000000	0.936884
3897.000000	0.936894
3896.000000	0.936870
3895.000000	0.936790
3894.000000	0.936653
3893.000000	0.936488
3892.000000	0.936341
3891.000000	0.936251
3890.000000	0.936213
3889.000000	0.936178
3888.000000	0.936086
3887.000000	0.935921
3886.000000	0.935735
3885.000000	0.935605
3884.000000	0.935562
3883.000000	0.935571
3882.000000	0.935563
3881.000000	0.935508
3880.000000	0.935435
3879.000000	0.935388
3878.000000	0.935371
3877.000000	0.935341
3876.000000	0.935265
3875.000000	0.935150
3874.000000	0.935024
3873.000000	0.934890
3872.000000	0.934730
3871.000000	0.934546
3870.000000	0.934386
3869.000000	0.934310
3868.000000	0.934320
3867.000000	0.934349
3866.000000	0.934323
3865.000000	0.934228
3864.000000	0.934118
3863.000000	0.934056
3862.000000	0.934060
3861.000000	0.934100
3860.000000	0.934144
3859.000000	0.934157
3858.000000	0.934081
3857.000000	0.933832
3856.000000	0.933370
3855.000000	0.932779
3854.000000	0.932271
3853.000000	0.932062
3852.000000	0.932222
3851.000000	0.932635
3850.000000	0.933090
3849.000000	0.933420
3848.000000	0.933578
3847.000000	0.933609
3846.000000	0.933569
3845.000000	0.933494
3844.000000	0.933396
3843.000000	0.933285
3842.000000	0.933154
3841.000000	0.932970
3840.000000	0.932712
3839.000000	0.932418
3838.000000	0.932191
3837.000000	0.932135
3836.000000	0.932268
3835.000000	0.932500
3834.000000	0.932702
3833.000000	0.932797
3832.000000	0.932805
3831.000000	0.932796
3830.000000	0.932818
3829.000000	0.932867
3828.000000	0.932908
3827.000000	0.932926
3826.000000	0.932918
3825.000000	0.932868
3824.000000	0.932745
3823.000000	0.932546
3822.000000	0.932337
3821.000000	0.932220
3820.000000	0.932235
3819.000000	0.932310
3818.000000	0.932325
3817.000000	0.932233
3816.000000	0.932121
3815.000000	0.932121
3814.000000	0.932284
3813.000000	0.932533
3812.000000	0.932743
3811.000000	0.932834
3810.000000	0.932799
3809.000000	0.932676
3808.000000	0.932527
3807.000000	0.932429
3806.000000	0.932428
3805.000000	0.932486
3804.000000	0.932503
3803.000000	0.932410
3802.000000	0.932256
3801.000000	0.932175
3800.000000	0.932256
3799.000000	0.932467
3798.000000	0.932692
3797.000000	0.932845
3796.000000	0.932930
3795.000000	0.932999
3794.000000	0.933083
3793.000000	0.933172
3792.000000	0.933239
3791.000000	0.933281
3790.000000	0.933310
3789.000000	0.933339
3788.000000	0.933370
3787.000000	0.933400
3786.000000	0.933429
3785.000000	0.933466
3784.000000	0.933514
3783.000000	0.933561
3782.000000	0.933588
3781.000000	0.933583
3780.000000	0.933566
3779.000000	0.933582
3778.000000	0.933657
3777.000000	0.933772
3776.000000	0.933870
3775.000000	0.933909
3774.000000	0.933892
3773.000000	0.933850
3772.000000	0.933818
3771.000000	0.933810
3770.000000	0.933827
3769.000000	0.933868
3768.000000	0.933927
3767.000000	0.934000
3766.000000	0.934090
3765.000000	0.934207
3764.000000	0.934342
3763.000000	0.934465
3762.000000	0.934535
3761.000000	0.934536
3760.000000	0.934496
3759.000000	0.934470
3758.000000	0.934499
3757.000000	0.934575
3756.000000	0.934635
3755.000000	0.934605
3754.000000	0.934447
3753.000000	0.934189
3752.000000	0.933914
3751.000000	0.933729
3750.000000	0.933715
3749.000000	0.933870
3748.000000	0.934087
3747.000000	0.934214
3746.000000	0.934167
3745.000000	0.934033
3744.000000	0.934017
3743.000000	0.934264
3742.000000	0.934727
3741.000000	0.935204
3740.000000	0.935497
3739.000000	0.935543
3738.000000	0.935415
3737.000000	0.935246
3736.000000	0.935144
3735.000000	0.935154
3734.000000	0.935263
3733.000000	0.935437
3732.000000	0.935648
3731.000000	0.935883
3730.000000	0.936120
3729.000000	0.936319
3728.000000	0.936457
3727.000000	0.936550
3726.000000	0.936640
3725.000000	0.936757
3724.000000	0.936894
3723.000000	0.937040
3722.000000	0.937197
3721.000000	0.937375
3720.000000	0.937570
3719.000000	0.937774
3718.000000	0.937983
3717.000000	0.938197
3716.000000	0.938390
3715.000000	0.938512
3714.000000	0.938534
3713.000000	0.938496
3712.000000	0.938498
3711.000000	0.938635
3710.000000	0.938936
3709.000000	0.939348
3708.000000	0.939793
3707.000000	0.940214
3706.000000	0.940590
3705.000000	0.940912
3704.000000	0.941180
3703.000000	0.941411
3702.000000	0.941650
3701.000000	0.941952
3700.000000	0.942340
3699.000000	0.942790
3698.000000	0.943245
3697.000000	0.943662
3696.000000	0.944033
3695.000000	0.944368
3694.000000	0.944683
3693.000000	0.944979
3692.000000	0.945242
3691.000000	0.945465
3690.000000	0.945675
3689.000000	0.945947
3688.000000	0.946371
3687.000000	0.946983
3686.000000	0.947727
3685.000000	0.948489
3684.000000	0.949170
3683.000000	0.949747
3682.000000	0.950254
3681.000000	0.950738
3680.000000	0.951209
3679.000000	0.951631
3678.000000	0.951972
3677.000000	0.952261
3676.000000	0.952605
3675.000000	0.953118
3674.000000	0.953808
3673.000000	0.954559
3672.000000	0.955234
3671.000000	0.955812
3670.000000	0.956393
3669.000000	0.957085
3668.000000	0.957903
3667.000000	0.958770
3666.000000	0.959597
3665.000000	0.960340
3664.000000	0.961002
3663.000000	0.961605
3662.000000	0.962171
3661.000000	0.962712
3660.000000	0.963225
3659.000000	0.963702
3658.000000	0.964158
3657.000000	0.964634
3656.000000	0.965175
3655.000000	0.965778
3654.000000	0.966375
3653.000000	0.966873
3652.000000	0.967221
3651.000000	0.967458
3650.000000	0.967701
3649.000000	0.968070
3648.000000	0.968622
3647.000000	0.969320
3646.000000	0.970065
3645.000000	0.970750
3644.000000	0.971319
3643.000000	0.971781
3642.000000	0.972180
3641.000000	0.972561
3640.000000	0.972940
3639.000000	0.973314
3638.000000	0.973680
3637.000000	0.974038
3636.000000	0.974389
3635.000000	0.974731
3634.000000	0.975055
3633.000000	0.975326
3632.000000	0.975496
3631.000000	0.975552
3630.000000	0.975564
3629.000000	0.975659
3628.000000	0.975932
3627.000000	0.976365
3626.000000	0.976851
3625.000000	0.977274
3624.000000	0.977586
3623.000000	0.977791
3622.000000	0.977913
3621.000000	0.977986
3620.000000	0.978059
3619.000000	0.978191
3618.000000	0.978410
3617.000000	0.978690
3616.000000	0.978967
3615.000000	0.979192
3614.000000	0.979354
3613.000000	0.979475
3612.000000	0.979580
3611.000000	0.979677
3610.000000	0.979769
3609.000000	0.979864
3608.000000	0.979983
3607.000000	0.980139
3606.000000	0.980321
3605.000000	0.980500
3604.000000	0.980649
3603.000000	0.980759
3602.000000	0.980837
3601.000000	0.980905
3600.000000	0.980977
3599.000000	0.981057
3598.000000	0.981136
3597.000000	0.981198
3596.000000	0.981242
3595.000000	0.981283
3594.000000	0.981335
3593.000000	0.981395
3592.000000	0.981442
3591.000000	0.981456
3590.000000	0.981434
3589.000000	0.981403
3588.000000	0.981400
3587.000000	0.981450
3586.000000	0.981549
3585.000000	0.981667
3584.000000	0.981770
3583.000000	0.981840
3582.000000	0.981883
3581.000000	0.981914
3580.000000	0.981951
3579.000000	0.982000
3578.000000	0.982056
3577.000000	0.982104
3576.000000	0.982130
3575.000000	0.982134
3574.000000	0.982123
3573.000000	0.982109
3572.000000	0.982095
3571.000000	0.982069
3570.000000	0.982017
3569.000000	0.981936
3568.000000	0.981852
3567.000000	0.981803
3566.000000	0.981816
3565.000000	0.981885
3564.000000	0.981977
3563.000000	0.982061
3562.000000	0.982121
3561.000000	0.982156
3560.000000	0.982173
3559.000000	0.982182
3558.000000	0.982192
3557.000000	0.982207
3556.000000	0.982227
3555.000000	0.982247
3554.000000	0.982269
3553.000000	0.982294
3552.000000	0.982320
3551.000000	0.982338
3550.000000	0.982343
3549.000000	0.982337
3548.000000	0.982333
3547.000000	0.982341
3546.000000	0.982362
3545.000000	0.982389
3544.000000	0.982422
3543.000000	0.982467
3542.000000	0.982524
3541.000000	0.982576
3540.000000	0.982598
3539.000000	0.982582
3538.000000	0.982547
3537.000000	0.982525
3536.000000	0.982546
3535.000000	0.982616
3534.000000	0.982724
3533.000000	0.982836
3532.000000	0.982915
3531.000000	0.982940
3530.000000	0.982922
3529.000000	0.982889
3528.000000	0.982870
3527.000000	0.982875
3526.000000	0.982904
3525.000000	0.982951
3524.000000	0.983011
3523.000000	0.983084
3522.000000	0.983168
3521.000000	0.983258
3520.000000	0.983344
3519.000000	0.983415
3518.000000	0.983470
3517.000000	0.983524
3516.000000	0.983594
3515.000000	0.983679
3514.000000	0.983759
3513.000000	0.983805
3512.000000	0.983817
3511.000000	0.983823
3510.000000	0.983860
3509.000000	0.983942
3508.000000	0.984052
3507.000000	0.984155
3506.000000	0.984230
3505.000000	0.984279
3504.000000	0.984328
3503.000000	0.984406
3502.000000	0.984521
3501.000000	0.984658
3500.000000	0.984794
3499.000000	0.984911
3498.000000	0.985003
3497.000000	0.985072
3496.000000	0.985123
3495.000000	0.985167
3494.000000	0.985217
3493.000000	0.985285
3492.000000	0.985367
3491.000000	0.985458
3490.000000	0.985550
3489.000000	0.985640
3488.000000	0.985735
3487.000000	0.985843
3486.000000	0.985967
3485.000000	0.986096
3484.000000	0.986212
3483.000000	0.986302
3482.000000	0.986377
3481.000000	0.986457
3480.000000	0.986556
3479.000000	0.986671
3478.000000	0.986787
3477.000000	0.986902
3476.000000	0.987027
3475.000000	0.987168
3474.000000	0.987315
3473.000000	0.987440
3472.000000	0.987530
3471.000000	0.987599
3470.000000	0.987676
3469.000000	0.987783
3468.000000	0.987919
3467.000000	0.988076
3466.000000	0.988240
3465.000000	0.988399
3464.000000	0.988542
3463.000000	0.988665
3462.000000	0.988776
3461.000000	0.988890
3460.000000	0.989014
3459.000000	0.989144
3458.000000	0.989273
3457.000000	0.989395
3456.000000	0.989514
3455.000000	0.989640
3454.000000	0.989779
3453.000000	0.989928
3452.000000	0.990074
3451.000000	0.990203
3450.000000	0.990314
3449.000000	0.990423
3448.000000	0.990548
3447.000000	0.990690
3446.000000	0.990830
3445.000000	0.990948
3444.000000	0.991048
3443.000000	0.991155
3442.000000	0.991286
3441.000000	0.991429
3440.000000	0.991561
3439.000000	0.991676
3438.000000	0.991783
3437.000000	0.991891
3436.000000	0.991997
3435.000000	0.992099
3434.000000	0.992200
3433.000000	0.992303
3432.000000	0.992405
3431.000000	0.992505
3430.000000	0.992617
3429.000000	0.992751
3428.000000	0.992905
3427.000000	0.993057
3426.000000	0.993188
3425.000000	0.993295
3424.000000	0.993394
3423.000000	0.993502
3422.000000	0.993628
3421.000000	0.993766
3420.000000	0.993905
3419.000000	0.994032
3418.000000	0.994139
3417.000000	0.994223
3416.000000	0.994290
3415.000000	0.994351
3414.000000	0.994416
3413.000000	0.994493
3412.000000	0.994587
3411.000000	0.994703
3410.000000	0.994834
3409.000000	0.994960
3408.000000	0.995053
3407.000000	0.995107
3406.000000	0.995136
3405.000000	0.995168
3404.000000	0.995221
3403.000000	0.995300
3402.000000	0.995399
3401.000000	0.995506
3400.000000	0.995608
3399.000000	0.995697
3398.000000	0.995768
3397.000000	0.995824
3396.000000	0.995864
3395.000000	0.995892
3394.000000	0.995914
3393.000000	0.995939
3392.000000	0.995973
3391.000000	0.996016
3390.000000	0.996061
3389.000000	0.996102
3388.000000	0.996141
3387.000000	0.996188
3386.000000	0.996248
3385.000000	0.996310
3384.000000	0.996353
3383.000000	0.996371
3382.000000	0.996386
3381.000000	0.996432
3380.000000	0.996518
3379.000000	0.996620
3378.000000	0.996699
3377.000000	0.996735
3376.000000	0.996734
3375.000000	0.996718
3374.000000	0.996707
3373.000000	0.996713
3372.000000	0.996737
3371.000000	0.996778
3370.000000	0.996823
3369.000000	0.996860
3368.000000	0.996887
3367.000000	0.996913
3366.000000	0.996946
3365.000000	0.996979
3364.000000	0.997006
3363.000000	0.997027
3362.000000	0.997056
3361.000000	0.997100
3360.000000	0.997149
3359.000000	0.997181
3358.000000	0.997183
3357.000000	0.997165
3356.000000	0.997141
3355.000000	0.997125
3354.000000	0.997115
3353.000000	0.997112
3352.000000	0.997119
3351.000000	0.997145
3350.000000	0.997188
3349.000000	0.997234
3348.000000	0.997266
3347.000000	0.997279
3346.000000	0.997284
3345.000000	0.997293
3344.000000	0.997308
3343.000000	0.997322
3342.000000	0.997333
3341.000000	0.997345
3340.000000	0.997368
3339.000000	0.997409
3338.000000	0.997469
3337.000000	0.997537
3336.000000	0.997597
3335.000000	0.997640
3334.000000	0.997664
3333.000000	0.997676
3332.000000	0.997682
3331.000000	0.997683
3330.000000	0.997679
3329.000000	0.997670
3328.000000	0.997660
3327.000000	0.997655
3326.000000	0.997661
3325.000000	0.997682
3324.000000	0.997718
3323.000000	0.997765
3322.000000	0.997808
3321.000000	0.997832
3320.000000	0.997834
3319.000000	0.997836
3318.000000	0.997864
3317.000000	0.997923
3316.000000	0.997994
3315.000000	0.998049
3314.000000	0.998080
3313.000000	0.998095
3312.000000	0.998106
3311.000000	0.998122
3310.000000	0.998149
3309.000000	0.998188
3308.000000	0.998232
3307.000000	0.998272
3306.000000	0.998301
3305.000000	0.998327
3304.000000	0.998361
3303.000000	0.998416
3302.000000	0.998487
3301.000000	0.998555
3300.000000	0.998598
3299.000000	0.998613
3298.000000	0.998618
3297.000000	0.998637
3296.000000	0.998675
3295.000000	0.998721
3294.000000	0.998758
3293.000000	0.998780
3292.000000	0.998791
3291.000000	0.998808
3290.000000	0.998843
3289.000000	0.998895
3288.000000	0.998948
3287.000000	0.998985
3286.000000	0.999006
3285.000000	0.999023
3284.000000	0.999049
3283.000000	0.999084
3282.000000	0.999114
3281.000000	0.999129
3280.000000	0.999137
3279.000000	0.999153
3278.000000	0.999188
3277.000000	0.999235
3276.000000	0.999272
3275.000000	0.999287
3274.000000	0.999287
3273.000000	0.999288
3272.000000	0.999298
3271.000000	0.999316
3270.000000	0.999336
3269.000000	0.999362
3268.000000	0.999396
3267.000000	0.999434
3266.000000	0.999469
3265.000000	0.999500
3264.000000	0.999530
3263.000000	0.999567
3262.000000	0.999612
3261.000000	0.999661
3260.000000	0.999706
3259.000000	0.999740
3258.000000	0.999764
3257.000000	0.999785
3256.000000	0.999810
3255.000000	0.999841
3254.000000	0.999876
3253.000000	0.999908
3252.000000	0.999932
3251.000000	0.999946
3250.000000	0.999948
3249.000000	0.999946
3248.000000	0.999951
3247.000000	0.999969
3246.000000	0.999998
3245.000000	1.000033
3244.000000	1.000071
3243.000000	1.000107
3242.000000	1.000136
3241.000000	1.000149
3240.000000	1.000153
3239.000000	1.000168
3238.000000	1.000208
3237.000000	1.000259
3236.000000	1.000289
3235.000000	1.000283
3234.000000	1.000265
3233.000000	1.000269
3232.000000	1.000311
3231.000000	1.000379
3230.000000	1.000451
3229.000000	1.000509
3228.000000	1.000542
3227.000000	1.000546
3226.000000	1.000537
3225.000000	1.000536
3224.000000	1.000554
3223.000000	1.000585
3222.000000	1.000614
3221.000000	1.000634
3220.000000	1.000646
3219.000000	1.000653
3218.000000	1.000658
3217.000000	1.000668
3216.000000	1.000687
3215.000000	1.000709
3214.000000	1.000721
3213.000000	1.000718
3212.000000	1.000710
3211.000000	1.000714
3210.000000	1.000733
3209.000000	1.000757
3208.000000	1.000775
3207.000000	1.000784
3206.000000	1.000785
3205.000000	1.000775
3204.000000	1.000757
3203.000000	1.000738
3202.000000	1.000726
3201.000000	1.000722
3200.000000	1.000723
3199.000000	1.000729
3198.000000	1.000745
3197.000000	1.000772
3196.000000	1.000792
3195.000000	1.000785
3194.000000	1.000748
3193.000000	1.000707
3192.000000	1.000691
3191.000000	1.000710
3190.000000	1.000740
3189.000000	1.000752
3188.000000	1.000736
3187.000000	1.000713
3186.000000	1.000706
3185.000000	1.000721
3184.000000	1.000738
3183.000000	1.000740
3182.000000	1.000727
3181.000000	1.000712
3180.000000	1.000708
3179.000000	1.000716
3178.000000	1.000727
3177.000000	1.000734
3176.000000	1.000737
3175.000000	1.000743
3174.000000	1.000755
3173.000000	1.000769
3172.000000	1.000781
3171.000000	1.000788
3170.000000	1.000795
3169.000000	1.000802
3168.000000	1.000804
3167.000000	1.000801
3166.000000	1.000799
3165.000000	1.000804
3164.000000	1.000821
3163.000000	1.000842
3162.000000	1.000857
3161.000000	1.000854
3160.000000	1.000840
3159.000000	1.000833
3158.000000	1.000850
3157.000000	1.000881
3156.000000	1.000895
3155.000000	1.000866
3154.000000	1.000802
3153.000000	1.000740
3152.000000	1.000718
3151.000000	1.000749
3150.000000	1.000817
3149.000000	1.000883
3148.000000	1.000915
3147.000000	1.000907
3146.000000	1.000877
3145.000000	1.000850
3144.000000	1.000833
3143.000000	1.000821
3142.000000	1.000814
3141.000000	1.000811
3140.000000	1.000813
3139.000000	1.000814
3138.000000	1.000811
3137.000000	1.000807
3136.000000	1.000808
3135.000000	1.000815
3134.000000	1.000834
3133.000000	1.000871
3132.000000	1.000923
3131.000000	1.000974
3130.000000	1.001004
3129.000000	1.001003
3128.000000	1.000977
3127.000000	1.000947
3126.000000	1.000936
3125.000000	1.000948
3124.000000	1.000961
3123.000000	1.000944
3122.000000	1.000893
3121.000000	1.000834
3120.000000	1.000801
3119.000000	1.000804
3118.000000	1.000828
3117.000000	1.000847
3116.000000	1.000850
3115.000000	1.000844
3114.000000	1.000838
3113.000000	1.000841
3112.000000	1.000851
3111.000000	1.000859
3110.000000	1.000854
3109.000000	1.000830
3108.000000	1.000790
3107.000000	1.000745
3106.000000	1.000709
3105.000000	1.000695
3104.000000	1.000704
3103.000000	1.000722
3102.000000	1.000727
3101.000000	1.000706
3100.000000	1.000664
3099.000000	1.000616
3098.000000	1.000569
3097.000000	1.000522
3096.000000	1.000476
3095.000000	1.000434
3094.000000	1.000395
3093.000000	1.000345
3092.000000	1.000273
3091.000000	1.000191
3090.000000	1.000124
3089.000000	1.000088
3088.000000	1.000072
3087.000000	1.000052
3086.000000	1.000015
3085.000000	0.999965
3084.000000	0.999907
3083.000000	0.999848
3082.000000	0.999794
3081.000000	0.999745
3080.000000	0.999698
3079.000000	0.999643
3078.000000	0.999581
3077.000000	0.999523
3076.000000	0.999480
3075.000000	0.999451
3074.000000	0.999428
3073.000000	0.999393
3072.000000	0.999337
3071.000000	0.999261
3070.000000	0.999182
3069.000000	0.999118
3068.000000	0.999074
3067.000000	0.999040
3066.000000	0.999004
3065.000000	0.998968
3064.000000	0.998940
3063.000000	0.998914
3062.000000	0.998882
3061.000000	0.998839
3060.000000	0.998782
3059.000000	0.998713
3058.000000	0.998638
3057.000000	0.998571
3056.000000	0.998528
3055.000000	0.998508
3054.000000	0.998497
3053.000000	0.998473
3052.000000	0.998425
3051.000000	0.998356
3050.000000	0.998275
3049.000000	0.998199
3048.000000	0.998139
3047.000000	0.998096
3046.000000	0.998054
3045.000000	0.997996
3044.000000	0.997916
3043.000000	0.997826
3042.000000	0.997748
3041.000000	0.997694
3040.000000	0.997658
3039.000000	0.997619
3038.000000	0.997561
3037.000000	0.997487
3036.000000	0.997417
3035.000000	0.997358
3034.000000	0.997303
3033.000000	0.997244
3032.000000	0.997192
3031.000000	0.997166
3030.000000	0.997167
3029.000000	0.997175
3028.000000	0.997166
3027.000000	0.997131
3026.000000	0.997071
3025.000000	0.997000
3024.000000	0.996931
3023.000000	0.996871
3022.000000	0.996812
3021.000000	0.996742
3020.000000	0.996653
3019.000000	0.996561
3018.000000	0.996483
3017.000000	0.996424
3016.000000	0.996369
3015.000000	0.996301
3014.000000	0.996210
3013.000000	0.996109
3012.000000	0.996023
3011.000000	0.995968
3010.000000	0.995940
3009.000000	0.995917
3008.000000	0.995877
3007.000000	0.995817
3006.000000	0.995747
3005.000000	0.995679
3004.000000	0.995620
3003.000000	0.995571
3002.000000	0.995523
3001.000000	0.995461
3000.000000	0.995377
2999.000000	0.995272
2998.000000	0.995156
2997.000000	0.995033
2996.000000	0.994900
2995.000000	0.994759
2994.000000	0.994628
2993.000000	0.994528
2992.000000	0.994467
2991.000000	0.994436
2990.000000	0.994415
2989.000000	0.994386
2988.000000	0.994334
2987.000000	0.994258
2986.000000	0.994165
2985.000000	0.994068
2984.000000	0.993973
2983.000000	0.993884
2982.000000	0.993804
2981.000000	0.993733
2980.000000	0.993664
2979.000000	0.993588
2978.000000	0.993498
2977.000000	0.993396
2976.000000	0.993289
2975.000000	0.993182
2974.000000	0.993082
2973.000000	0.992994
2972.000000	0.992914
2971.000000	0.992828
2970.000000	0.992726
2969.000000	0.992601
2968.000000	0.992461
2967.000000	0.992322
2966.000000	0.992203
2965.000000	0.992110
2964.000000	0.992030
2963.000000	0.991933
2962.000000	0.991796
2961.000000	0.991624
2960.000000	0.991442
2959.000000	0.991271
2958.000000	0.991123
2957.000000	0.990996
2956.000000	0.990878
2955.000000	0.990752
2954.000000	0.990601
2953.000000	0.990424
2952.000000	0.990243
2951.000000	0.990085
2950.000000	0.989959
2949.000000	0.989854
2948.000000	0.989750
2947.000000	0.989645
2946.000000	0.989544
2945.000000	0.989447
2944.000000	0.989340
2943.000000	0.989212
2942.000000	0.989064
2941.000000	0.988905
2940.000000	0.988748
2939.000000	0.988597
2938.000000	0.988451
2937.000000	0.988303
2936.000000	0.988145
2935.000000	0.987975
2934.000000	0.987802
2933.000000	0.987638
2932.000000	0.987487
2931.000000	0.987335
2930.000000	0.987176
2929.000000	0.987008
2928.000000	0.986837
2927.000000	0.986656
2926.000000	0.986453
2925.000000	0.986232
2924.000000	0.986013
2923.000000	0.985817
2922.000000	0.985640
2921.000000	0.985461
2920.000000	0.985274
2919.000000	0.985092
2918.000000	0.984932
2917.000000	0.984786
2916.000000	0.984630
2915.000000	0.984455
2914.000000	0.984280
2913.000000	0.984134
2912.000000	0.984020
2911.000000	0.983911
2910.000000	0.983778
2909.000000	0.983613
2908.000000	0.983427
2907.000000	0.983232
2906.000000	0.983037
2905.000000	0.982856
2904.000000	0.982707
2903.000000	0.982587
2902.000000	0.982467
2901.000000	0.982313
2900.000000	0.982121
2899.000000	0.981915
2898.000000	0.981722
2897.000000	0.981556
2896.000000	0.981410
2895.000000	0.981269
2894.000000	0.981120
2893.000000	0.980957
2892.000000	0.980784
2891.000000	0.980613
2890.000000	0.980451
2889.000000	0.980296
2888.000000	0.980141
2887.000000	0.979984
2886.000000	0.979825
2885.000000	0.979667
2884.000000	0.979515
2883.000000	0.979376
2882.000000	0.979250
2881.000000	0.979124
2880.000000	0.978979
2879.000000	0.978804
2878.000000	0.978608
2877.000000	0.978412
2876.000000	0.978231
2875.000000	0.978068
2874.000000	0.977912
2873.000000	0.977756
2872.000000	0.977602
2871.000000	0.977459
2870.000000	0.977333
2869.000000	0.977219
2868.000000	0.977106
2867.000000	0.976982
2866.000000	0.976839
2865.000000	0.976675
2864.000000	0.976491
2863.000000	0.976292
2862.000000	0.976081
2861.000000	0.975867
2860.000000	0.975662
2859.000000	0.975478
2858.000000	0.975318
2857.000000	0.975173
2856.000000	0.975040
2855.000000	0.974921
2854.000000	0.974814
2853.000000	0.974702
2852.000000	0.974560
2851.000000	0.974386
2850.000000	0.974206
2849.000000	0.974052
2848.000000	0.973935
2847.000000	0.973842
2846.000000	0.973758
2845.000000	0.973671
2844.000000	0.973575
2843.000000	0.973464
2842.000000	0.973340
2841.000000	0.973220
2840.000000	0.973121
2839.000000	0.973039
2838.000000	0.972952
2837.000000	0.972838
2836.000000	0.972702
2835.000000	0.972563
2834.000000	0.972438
2833.000000	0.972331
2832.000000	0.972240
2831.000000	0.972160
2830.000000	0.972082
2829.000000	0.971997
2828.000000	0.971904
2827.000000	0.971812
2826.000000	0.971725
2825.000000	0.971636
2824.000000	0.971536
2823.000000	0.971426
2822.000000	0.971314
2821.000000	0.971205
2820.000000	0.971098
2819.000000	0.970992
2818.000000	0.970888
2817.000000	0.970785
2816.000000	0.970678
2815.000000	0.970572
2814.000000	0.970475
2813.000000	0.970389
2812.000000	0.970307
2811.000000	0.970224
2810.000000	0.970141
2809.000000	0.970067
2808.000000	0.970001
2807.000000	0.969938
2806.000000	0.969875
2805.000000	0.969806
2804.000000	0.969726
2803.000000	0.969633
2802.000000	0.969534
2801.000000	0.969437
2800.000000	0.969350
2799.000000	0.969277
2798.000000	0.969217
2797.000000	0.969164
2796.000000	0.969111
2795.000000	0.969051
2794.000000	0.968983
2793.000000	0.968908
2792.000000	0.968827
2791.000000	0.968747
2790.000000	0.968674
2789.000000	0.968608
2788.000000	0.968545
2787.000000	0.968483
2786.000000	0.968426
2785.000000	0.968383
2784.000000	0.968349
2783.000000	0.968314
2782.000000	0.968267
2781.000000	0.968206
2780.000000	0.968135
2779.000000	0.968062
2778.000000	0.967996
2777.000000	0.967939
2776.000000	0.967884
2775.000000	0.967828
2774.000000	0.967772
2773.000000	0.967724
2772.000000	0.967688
2771.000000	0.967658
2770.000000	0.967629
2769.000000	0.967598
2768.000000	0.967565
2767.000000	0.967533
2766.000000	0.967496
2765.000000	0.967446
2764.000000	0.967378
2763.000000	0.967299
2762.000000	0.967232
2761.000000	0.967192
2760.000000	0.967173
2759.000000	0.967154
2758.000000	0.967121
2757.000000	0.967070
2756.000000	0.967010
2755.000000	0.966953
2754.000000	0.966911
2753.000000	0.966890
2752.000000	0.966881
2751.000000	0.966874
2750.000000	0.966867
2749.000000	0.966860
2748.000000	0.966848
2747.000000	0.966827
2746.000000	0.966799
2745.000000	0.966774
2744.000000	0.966758
2743.000000	0.966739
2742.000000	0.966703
2741.000000	0.966654
2740.000000	0.966602
2739.000000	0.966558
2738.000000	0.966529
2737.000000	0.966517
2736.000000	0.966520
2735.000000	0.966531
2734.000000	0.966537
2733.000000	0.966533
2732.000000	0.966519
2731.000000	0.966499
2730.000000	0.966475
2729.000000	0.966448
2728.000000	0.966419
2727.000000	0.966393
2726.000000	0.966376
2725.000000	0.966373
2724.000000	0.966383
2723.000000	0.966394
2722.000000	0.966395
2721.000000	0.966383
2720.000000	0.966357
2719.000000	0.966322
2718.000000	0.966282
2717.000000	0.966255
2716.000000	0.966259
2715.000000	0.966293
2714.000000	0.966337
2713.000000	0.966371
2712.000000	0.966383
2711.000000	0.966376
2710.000000	0.966355
2709.000000	0.966328
2708.000000	0.966303
2707.000000	0.966285
2706.000000	0.966278
2705.000000	0.966284
2704.000000	0.966307
2703.000000	0.966343
2702.000000	0.966381
2701.000000	0.966406
2700.000000	0.966413
2699.000000	0.966408
2698.000000	0.966399
2697.000000	0.966394
2696.000000	0.966398
2695.000000	0.966417
2694.000000	0.966454
2693.000000	0.966503
2692.000000	0.966553
2691.000000	0.966592
2690.000000	0.966614
2689.000000	0.966623
2688.000000	0.966626
2687.000000	0.966632
2686.000000	0.966643
2685.000000	0.966659
2684.000000	0.966679
2683.000000	0.966703
2682.000000	0.966732
2681.000000	0.966764
2680.000000	0.966799
2679.000000	0.966837
2678.000000	0.966873
2677.000000	0.966904
2676.000000	0.966926
2675.000000	0.966944
2674.000000	0.966968
2673.000000	0.967006
2672.000000	0.967058
2671.000000	0.967110
2670.000000	0.967149
2669.000000	0.967174
2668.000000	0.967196
2667.000000	0.967222
2666.000000	0.967253
2665.000000	0.967289
2664.000000	0.967336
2663.000000	0.967392
2662.000000	0.967447
2661.000000	0.967493
2660.000000	0.967538
2659.000000	0.967592
2658.000000	0.967657
2657.000000	0.967720
2656.000000	0.967775
2655.000000	0.967830
2654.000000	0.967899
2653.000000	0.967982
2652.000000	0.968067
2651.000000	0.968138
2650.000000	0.968193
2649.000000	0.968246
2648.000000	0.968310
2647.000000	0.968390
2646.000000	0.968470
2645.000000	0.968533
2644.000000	0.968574
2643.000000	0.968608
2642.000000	0.968652
2641.000000	0.968710
2640.000000	0.968779
2639.000000	0.968852
2638.000000	0.968927
2637.000000	0.968998
2636.000000	0.969062
2635.000000	0.969120
2634.000000	0.969180
2633.000000	0.969247
2632.000000	0.969322
2631.000000	0.969398
2630.000000	0.969471
2629.000000	0.969545
2628.000000	0.969625
2627.000000	0.969717
2626.000000	0.969817
2625.000000	0.969916
2624.000000	0.970003
2623.000000	0.970076
2622.000000	0.970141
2621.000000	0.970207
2620.000000	0.970282
2619.000000	0.970363
2618.000000	0.970439
2617.000000	0.970499
2616.000000	0.970545
2615.000000	0.970600
2614.000000	0.970678
2613.000000	0.970779
2612.000000	0.970885
2611.000000	0.970984
2610.000000	0.971077
2609.000000	0.971168
2608.000000	0.971262
2607.000000	0.971357
2606.000000	0.971447
2605.000000	0.971523
2604.000000	0.971584
2603.000000	0.971641
2602.000000	0.971716
2601.000000	0.971820
2600.000000	0.971940
2599.000000	0.972047
2598.000000	0.972126
2597.000000	0.972184
2596.000000	0.972249
2595.000000	0.972338
2594.000000	0.972450
2593.000000	0.972563
2592.000000	0.972661
2591.000000	0.972746
2590.000000	0.972830
2589.000000	0.972921
2588.000000	0.973021
2587.000000	0.973125
2586.000000	0.973228
2585.000000	0.973327
2584.000000	0.973421
2583.000000	0.973513
2582.000000	0.973605
2581.000000	0.973701
2580.000000	0.973800
2579.000000	0.973907
2578.000000	0.974023
2577.000000	0.974144
2576.000000	0.974255
2575.000000	0.974345
2574.000000	0.974417
2573.000000	0.974487
2572.000000	0.974573
2571.000000	0.974681
2570.000000	0.974805
2569.000000	0.974929
2568.000000	0.975039
2567.000000	0.975138
2566.000000	0.975238
2565.000000	0.975348
2564.000000	0.975465
2563.000000	0.975583
2562.000000	0.975701
2561.000000	0.975823
2560.000000	0.975955
2559.000000	0.976093
2558.000000	0.976231
2557.000000	0.976362
2556.000000	0.976482
2555.000000	0.976587
2554.000000	0.976683
2553.000000	0.976784
2552.000000	0.976905
2551.000000	0.977046
2550.000000	0.977195
2549.000000	0.977341
2548.000000	0.977480
2547.000000	0.977611
2546.000000	0.977730
2545.000000	0.977843
2544.000000	0.977962
2543.000000	0.978104
2542.000000	0.978264
2541.000000	0.978420
2540.000000	0.978556
2539.000000	0.978675
2538.000000	0.978789
2537.000000	0.978904
2536.000000	0.979023
2535.000000	0.979150
2534.000000	0.979290
2533.000000	0.979436
2532.000000	0.979576
2531.000000	0.979714
2530.000000	0.979860
2529.000000	0.980017
2528.000000	0.980178
2527.000000	0.980333
2526.000000	0.980480
2525.000000	0.980622
2524.000000	0.980761
2523.000000	0.980898
2522.000000	0.981040
2521.000000	0.981187
2520.000000	0.981335
2519.000000	0.981477
2518.000000	0.981610
2517.000000	0.981735
2516.000000	0.981858
2515.000000	0.981990
2514.000000	0.982144
2513.000000	0.982317
2512.000000	0.982490
2511.000000	0.982639
2510.000000	0.982758
2509.000000	0.982859
2508.000000	0.982960
2507.000000	0.983067
2506.000000	0.983181
2505.000000	0.983300
2504.000000	0.983423
2503.000000	0.983548
2502.000000	0.983673
2501.000000	0.983795
2500.000000	0.983909
2499.000000	0.984015
2498.000000	0.984115
2497.000000	0.984216
2496.000000	0.984320
2495.000000	0.984428
2494.000000	0.984537
2493.000000	0.984645
2492.000000	0.984752
2491.000000	0.984858
2490.000000	0.984960
2489.000000	0.985049
2488.000000	0.985123
2487.000000	0.985190
2486.000000	0.985266
2485.000000	0.985358
2484.000000	0.985453
2483.000000	0.985533
2482.000000	0.985592
2481.000000	0.985638
2480.000000	0.985686
2479.000000	0.985740
2478.000000	0.985791
2477.000000	0.985834
2476.000000	0.985879
2475.000000	0.985943
2474.000000	0.986028
2473.000000	0.986110
2472.000000	0.986165
2471.000000	0.986195
2470.000000	0.986217
2469.000000	0.986243
2468.000000	0.986270
2467.000000	0.986296
2466.000000	0.986328
2465.000000	0.986374
2464.000000	0.986430
2463.000000	0.986478
2462.000000	0.986507
2461.000000	0.986512
2460.000000	0.986502
2459.000000	0.986497
2458.000000	0.986512
2457.000000	0.986549
2456.000000	0.986587
2455.000000	0.986603
2454.000000	0.986592
2453.000000	0.986568
2452.000000	0.986547
2451.000000	0.986534
2450.000000	0.986521
2449.000000	0.986502
2448.000000	0.986481
2447.000000	0.986467
2446.000000	0.986462
2445.000000	0.986451
2444.000000	0.986425
2443.000000	0.986390
2442.000000	0.986365
2441.000000	0.986357
2440.000000	0.986354
2439.000000	0.986349
2438.000000	0.986344
2437.000000	0.986336
2436.000000	0.986312
2435.000000	0.986263
2434.000000	0.986202
2433.000000	0.986148
2432.000000	0.986103
2431.000000	0.986052
2430.000000	0.985987
2429.000000	0.985916
2428.000000	0.985856
2427.000000	0.985816
2426.000000	0.985797
2425.000000	0.985787
2424.000000	0.985772
2423.000000	0.985740
2422.000000	0.985693
2421.000000	0.985643
2420.000000	0.985596
2419.000000	0.985549
2418.000000	0.985497
2417.000000	0.985443
2416.000000	0.985392
2415.000000	0.985337
2414.000000	0.985272
2413.000000	0.985191
2412.000000	0.985102
2411.000000	0.985022
2410.000000	0.984972
2409.000000	0.984956
2408.000000	0.984957
2407.000000	0.984951
2406.000000	0.984929
2405.000000	0.984904
2404.000000	0.984886
2403.000000	0.984871
2402.000000	0.984843
2401.000000	0.984794
2400.000000	0.984732
2399.000000	0.984669
2398.000000	0.984616
2397.000000	0.984586
2396.000000	0.984588
2395.000000	0.984615
2394.000000	0.984642
2393.000000	0.984641
2392.000000	0.984605
2391.000000	0.984558
2390.000000	0.984530
2389.000000	0.984534
2388.000000	0.984555
2387.000000	0.984568
2386.000000	0.984556
2385.000000	0.984520
2384.000000	0.984475
2383.000000	0.984431
2382.000000	0.984387
2381.000000	0.984332
2380.000000	0.984261
2379.000000	0.984177
2378.000000	0.984080
2377.000000	0.983956
2376.000000	0.983789
2375.000000	0.983582
2374.000000	0.983360
2373.000000	0.983145
2372.000000	0.982931
2371.000000	0.982703
2370.000000	0.982464
2369.000000	0.982236
2368.000000	0.982030
2367.000000	0.981843
2366.000000	0.981668
2365.000000	0.981511
2364.000000	0.981389
2363.000000	0.981314
2362.000000	0.981283
2361.000000	0.981293
2360.000000	0.981349
2359.000000	0.981465
2358.000000	0.981656
2357.000000	0.981919
2356.000000	0.982230
2355.000000	0.982563
2354.000000	0.982904
2353.000000	0.983263
2352.000000	0.983645
2351.000000	0.984031
2350.000000	0.984372
2349.000000	0.984627
2348.000000	0.984803
2347.000000	0.984962
2346.000000	0.985194
2345.000000	0.985563
2344.000000	0.986072
2343.000000	0.986654
2342.000000	0.987177
2341.000000	0.987477
2340.000000	0.987419
2339.000000	0.986979
2338.000000	0.986273
2337.000000	0.985500
2336.000000	0.984840
2335.000000	0.984379
2334.000000	0.984111
2333.000000	0.983984
2332.000000	0.983948
2331.000000	0.983977
2330.000000	0.984058
2329.000000	0.984175
2328.000000	0.984309
2327.000000	0.984440
2326.000000	0.984558
2325.000000	0.984658
2324.000000	0.984745
2323.000000	0.984834
2322.000000	0.984946
2321.000000	0.985091
2320.000000	0.985256
2319.000000	0.985421
2318.000000	0.985570
2317.000000	0.985699
2316.000000	0.985806
2315.000000	0.985890
2314.000000	0.985962
2313.000000	0.986039
2312.000000	0.986128
2311.000000	0.986230
2310.000000	0.986342
2309.000000	0.986457
2308.000000	0.986557
2307.000000	0.986625
2306.000000	0.986665
2305.000000	0.986705
2304.000000	0.986765
2303.000000	0.986840
2302.000000	0.986911
2301.000000	0.986968
2300.000000	0.987014
2299.000000	0.987052
2298.000000	0.987082
2297.000000	0.987109
2296.000000	0.987139
2295.000000	0.987172
2294.000000	0.987204
2293.000000	0.987234
2292.000000	0.987265
2291.000000	0.987303
2290.000000	0.987349
2289.000000	0.987401
2288.000000	0.987459
2287.000000	0.987520
2286.000000	0.987580
2285.000000	0.987632
2284.000000	0.987669
2283.000000	0.987697
2282.000000	0.987727
2281.000000	0.987767
2280.000000	0.987811
2279.000000	0.987851
2278.000000	0.987889
2277.000000	0.987935
2276.000000	0.987988
2275.000000	0.988039
2274.000000	0.988078
2273.000000	0.988105
2272.000000	0.988125
2271.000000	0.988139
2270.000000	0.988150
2269.000000	0.988169
2268.000000	0.988205
2267.000000	0.988254
2266.000000	0.988302
2265.000000	0.988340
2264.000000	0.988370
2263.000000	0.988395
2262.000000	0.988420
2261.000000	0.988454
2260.000000	0.988506
2259.000000	0.988570
2258.000000	0.988623
2257.000000	0.988647
2256.000000	0.988647
2255.000000	0.988645
2254.000000	0.988651
2253.000000	0.988660
2252.000000	0.988661
2251.000000	0.988661
2250.000000	0.988676
2249.000000	0.988711
2248.000000	0.988754
2247.000000	0.988794
2246.000000	0.988830
2245.000000	0.988868
2244.000000	0.988909
2243.000000	0.988947
2242.000000	0.988981
2241.000000	0.989006
2240.000000	0.989020
2239.000000	0.989023
2238.000000	0.989024
2237.000000	0.989032
2236.000000	0.989051
2235.000000	0.989073
2234.000000	0.989094
2233.000000	0.989112
2232.000000	0.989129
2231.000000	0.989143
2230.000000	0.989160
2229.000000	0.989184
2228.000000	0.989209
2227.000000	0.989221
2226.000000	0.989217
2225.000000	0.989211
2224.000000	0.989219
2223.000000	0.989241
2222.000000	0.989262
2221.000000	0.989274
2220.000000	0.989280
2219.000000	0.989287
2218.000000	0.989296
2217.000000	0.989303
2216.000000	0.989307
2215.000000	0.989312
2214.000000	0.989317
2213.000000	0.989325
2212.000000	0.989340
2211.000000	0.989362
2210.000000	0.989386
2209.000000	0.989401
2208.000000	0.989403
2207.000000	0.989396
2206.000000	0.989388
2205.000000	0.989381
2204.000000	0.989371
2203.000000	0.989354
2202.000000	0.989329
2201.000000	0.989304
2200.000000	0.989291
2199.000000	0.989292
2198.000000	0.989298
2197.000000	0.989297
2196.000000	0.989291
2195.000000	0.989297
2194.000000	0.989315
2193.000000	0.989324
2192.000000	0.989307
2191.000000	0.989277
2190.000000	0.989258
2189.000000	0.989258
2188.000000	0.989257
2187.000000	0.989231
2186.000000	0.989187
2185.000000	0.989148
2184.000000	0.989129
2183.000000	0.989123
2182.000000	0.989111
2181.000000	0.989087
2180.000000	0.989064
2179.000000	0.989059
2178.000000	0.989064
2177.000000	0.989056
2176.000000	0.989016
2175.000000	0.988958
2174.000000	0.988907
2173.000000	0.988873
2172.000000	0.988846
2171.000000	0.988815
2170.000000	0.988780
2169.000000	0.988746
2168.000000	0.988711
2167.000000	0.988675
2166.000000	0.988649
2165.000000	0.988644
2164.000000	0.988653
2163.000000	0.988656
2162.000000	0.988638
2161.000000	0.988601
2160.000000	0.988549
2159.000000	0.988485
2158.000000	0.988413
2157.000000	0.988337
2156.000000	0.988267
2155.000000	0.988208
2154.000000	0.988164
2153.000000	0.988135
2152.000000	0.988115
2151.000000	0.988095
2150.000000	0.988060
2149.000000	0.987999
2148.000000	0.987914
2147.000000	0.987823
2146.000000	0.987743
2145.000000	0.987681
2144.000000	0.987627
2143.000000	0.987571
2142.000000	0.987509
2141.000000	0.987446
2140.000000	0.987382
2139.000000	0.987321
2138.000000	0.987265
2137.000000	0.987212
2136.000000	0.987160
2135.000000	0.987107
2134.000000	0.987058
2133.000000	0.987010
2132.000000	0.986950
2131.000000	0.986874
2130.000000	0.986790
2129.000000	0.986707
2128.000000	0.986623
2127.000000	0.986539
2126.000000	0.986463
2125.000000	0.986401
2124.000000	0.986340
2123.000000	0.986259
2122.000000	0.986159
2121.000000	0.986062
2120.000000	0.985984
2119.000000	0.985916
2118.000000	0.985833
2117.000000	0.985729
2116.000000	0.985620
2115.000000	0.985522
2114.000000	0.985433
2113.000000	0.985336
2112.000000	0.985226
2111.000000	0.985115
2110.000000	0.985024
2109.000000	0.984956
2108.000000	0.984890
2107.000000	0.984793
2106.000000	0.984660
2105.000000	0.984513
2104.000000	0.984384
2103.000000	0.984282
2102.000000	0.984191
2101.000000	0.984093
2100.000000	0.983988
2099.000000	0.983890
2098.000000	0.983804
2097.000000	0.983722
2096.000000	0.983625
2095.000000	0.983505
2094.000000	0.983374
2093.000000	0.983244
2092.000000	0.983124
2091.000000	0.983015
2090.000000	0.982917
2089.000000	0.982827
2088.000000	0.982740
2087.000000	0.982644
2086.000000	0.982527
2085.000000	0.982383
2084.000000	0.982224
2083.000000	0.982073
2082.000000	0.981950
2081.000000	0.981847
2080.000000	0.981743
2079.000000	0.981623
2078.000000	0.981494
2077.000000	0.981360
2076.000000	0.981215
2075.000000	0.981053
2074.000000	0.980889
2073.000000	0.980744
2072.000000	0.980626
2071.000000	0.980524
2070.000000	0.980429
2069.000000	0.980337
2068.000000	0.980240
2067.000000	0.980128
2066.000000	0.979995
2065.000000	0.979856
2064.000000	0.979727
2063.000000	0.979614
2062.000000	0.979514
2061.000000	0.979417
2060.000000	0.979318
2059.000000	0.979211
2058.000000	0.979094
2057.000000	0.978965
2056.000000	0.978819
2055.000000	0.978656
2054.000000	0.978488
2053.000000	0.978337
2052.000000	0.978217
2051.000000	0.978122
2050.000000	0.978033
2049.000000	0.977930
2048.000000	0.977810
2047.000000	0.977674
2046.000000	0.977531
2045.000000	0.977390
2044.000000	0.977265
2043.000000	0.977161
2042.000000	0.977067
2041.000000	0.976967
2040.000000	0.976852
2039.000000	0.976728
2038.000000	0.976611
2037.000000	0.976511
2036.000000	0.976422
2035.000000	0.976329
2034.000000	0.976220
2033.000000	0.976092
2032.000000	0.975958
2031.000000	0.975839
2030.000000	0.975749
2029.000000	0.975676
2028.000000	0.975597
2027.000000	0.975498
2026.000000	0.975383
2025.000000	0.975261
2024.000000	0.975139
2023.000000	0.975021
2022.000000	0.974914
2021.000000	0.974825
2020.000000	0.974744
2019.000000	0.974652
2018.000000	0.974537
2017.000000	0.974409
2016.000000	0.974294
2015.000000	0.974215
2014.000000	0.974165
2013.000000	0.974118
2012.000000	0.974053
2011.000000	0.973979
2010.000000	0.973909
2009.000000	0.973838
2008.000000	0.973743
2007.000000	0.973626
2006.000000	0.973520
2005.000000	0.973450
2004.000000	0.973398
2003.000000	0.973326
2002.000000	0.973225
2001.000000	0.973115
2000.000000	0.973019
1999.000000	0.972936
1998.000000	0.972859
1997.000000	0.972783
1996.000000	0.972704
1995.000000	0.972621
1994.000000	0.972534
1993.000000	0.972449
1992.000000	0.972372
1991.000000	0.972298
1990.000000	0.972222
1989.000000	0.972144
1988.000000	0.972074
1987.000000	0.972026
1986.000000	0.972011
1985.000000	0.972019
1984.000000	0.972020
1983.000000	0.971980
1982.000000	0.971900
1981.000000	0.971806
1980.000000	0.971727
1979.000000	0.971666
1978.000000	0.971610
1977.000000	0.971549
1976.000000	0.971483
1975.000000	0.971424
1974.000000	0.971380
1973.000000	0.971355
1972.000000	0.971335
1971.000000	0.971304
1970.000000	0.971251
1969.000000	0.971187
1968.000000	0.971134
1967.000000	0.971103
1966.000000	0.971080
1965.000000	0.971036
1964.000000	0.970958
1963.000000	0.970873
1962.000000	0.970813
1961.000000	0.970781
1960.000000	0.970751
1959.000000	0.970715
1958.000000	0.970698
1957.000000	0.970721
1956.000000	0.970756
1955.000000	0.970751
1954.000000	0.970686
1953.000000	0.970599
1952.000000	0.970536
1951.000000	0.970513
1950.000000	0.970514
1949.000000	0.970521
1948.000000	0.970525
1947.000000	0.970526
1946.000000	0.970530
1945.000000	0.970539
1944.000000	0.970545
1943.000000	0.970533
1942.000000	0.970501
1941.000000	0.970461
1940.000000	0.970428
1939.000000	0.970405
1938.000000	0.970384
1937.000000	0.970361
1936.000000	0.970336
1935.000000	0.970318
1934.000000	0.970314
1933.000000	0.970324
1932.000000	0.970340
1931.000000	0.970353
1930.000000	0.970357
1929.000000	0.970347
1928.000000	0.970325
1927.000000	0.970299
1926.000000	0.970276
1925.000000	0.970254
1924.000000	0.970235
1923.000000	0.970225
1922.000000	0.970225
1921.000000	0.970219
1920.000000	0.970187
1919.000000	0.970141
1918.000000	0.970124
1917.000000	0.970165
1916.000000	0.970247
1915.000000	0.970326
1914.000000	0.970376
1913.000000	0.970394
1912.000000	0.970385
1911.000000	0.970356
1910.000000	0.970331
1909.000000	0.970337
1908.000000	0.970382
1907.000000	0.970445
1906.000000	0.970498
1905.000000	0.970520
1904.000000	0.970506
1903.000000	0.970472
1902.000000	0.970445
1901.000000	0.970446
1900.000000	0.970477
1899.000000	0.970527
1898.000000	0.970582
1897.000000	0.970626
1896.000000	0.970640
1895.000000	0.970629
1894.000000	0.970621
1893.000000	0.970636
1892.000000	0.970654
1891.000000	0.970651
1890.000000	0.970639
1889.000000	0.970654
1888.000000	0.970707
1887.000000	0.970775
1886.000000	0.970836
1885.000000	0.970881
1884.000000	0.970912
1883.000000	0.970930
1882.000000	0.970949
1881.000000	0.970981
1880.000000	0.971022
1879.000000	0.971052
1878.000000	0.971071
1877.000000	0.971101
1876.000000	0.971148
1875.000000	0.971194
1874.000000	0.971219
1873.000000	0.971216
1872.000000	0.971182
1871.000000	0.971120
1870.000000	0.971063
1869.000000	0.971059
1868.000000	0.971128
1867.000000	0.971243
1866.000000	0.971365
1865.000000	0.971476
1864.000000	0.971568
1863.000000	0.971628
1862.000000	0.971653
1861.000000	0.971666
1860.000000	0.971690
1859.000000	0.971731
1858.000000	0.971786
1857.000000	0.971855
1856.000000	0.971932
1855.000000	0.972000
1854.000000	0.972054
1853.000000	0.972109
1852.000000	0.972177
1851.000000	0.972243
1850.000000	0.972294
1849.000000	0.972338
1848.000000	0.972370
1847.000000	0.972353
1846.000000	0.972265
1845.000000	0.972169
1844.000000	0.972183
1843.000000	0.972361
1842.000000	0.972630
1841.000000	0.972858
1840.000000	0.972975
1839.000000	0.973014
1838.000000	0.973048
1837.000000	0.973113
1836.000000	0.973206
1835.000000	0.973307
1834.000000	0.973398
1833.000000	0.973453
1832.000000	0.973453
1831.000000	0.973417
1830.000000	0.973409
1829.000000	0.973475
1828.000000	0.973596
1827.000000	0.973719
1826.000000	0.973823
1825.000000	0.973940
1824.000000	0.974091
1823.000000	0.974257
1822.000000	0.974399
1821.000000	0.974507
1820.000000	0.974593
1819.000000	0.974665
1818.000000	0.974732
1817.000000	0.974813
1816.000000	0.974920
1815.000000	0.975041
1814.000000	0.975147
1813.000000	0.975220
1812.000000	0.975278
1811.000000	0.975353
1810.000000	0.975468
1809.000000	0.975618
1808.000000	0.975769
1807.000000	0.975891
1806.000000	0.975986
1805.000000	0.976071
1804.000000	0.976148
1803.000000	0.976203
1802.000000	0.976238
1801.000000	0.976285
1800.000000	0.976369
1799.000000	0.976486
1798.000000	0.976616
1797.000000	0.976738
1796.000000	0.976822
1795.000000	0.976835
1794.000000	0.976797
1793.000000	0.976789
1792.000000	0.976892
1791.000000	0.977110
1790.000000	0.977373
1789.000000	0.977615
1788.000000	0.977801
1787.000000	0.977929
1786.000000	0.978017
1785.000000	0.978102
1784.000000	0.978213
1783.000000	0.978346
1782.000000	0.978484
1781.000000	0.978625
1780.000000	0.978777
1779.000000	0.978936
1778.000000	0.979081
1777.000000	0.979198
1776.000000	0.979263
1775.000000	0.979251
1774.000000	0.979178
1773.000000	0.979139
1772.000000	0.979244
1771.000000	0.979494
1770.000000	0.979776
1769.000000	0.979993
1768.000000	0.980159
1767.000000	0.980351
1766.000000	0.980580
1765.000000	0.980786
1764.000000	0.980914
1763.000000	0.980985
1762.000000	0.981072
1761.000000	0.981224
1760.000000	0.981420
1759.000000	0.981601
1758.000000	0.981742
1757.000000	0.981877
1756.000000	0.982053
1755.000000	0.982246
1754.000000	0.982368
1753.000000	0.982363
1752.000000	0.982299
1751.000000	0.982304
1750.000000	0.982450
1749.000000	0.982695
1748.000000	0.982952
1747.000000	0.983167
1746.000000	0.983336
1745.000000	0.983475
1744.000000	0.983601
1743.000000	0.983715
1742.000000	0.983798
1741.000000	0.983844
1740.000000	0.983902
1739.000000	0.984035
1738.000000	0.984207
1737.000000	0.984261
1736.000000	0.984089
1735.000000	0.983811
1734.000000	0.983708
1733.000000	0.983940
1732.000000	0.984393
1731.000000	0.984829
1730.000000	0.985130
1729.000000	0.985335
1728.000000	0.985505
1727.000000	0.985646
1726.000000	0.985743
1725.000000	0.985810
1724.000000	0.985871
1723.000000	0.985936
1722.000000	0.985978
1721.000000	0.985928
1720.000000	0.985715
1719.000000	0.985369
1718.000000	0.985072
1717.000000	0.985037
1716.000000	0.985292
1715.000000	0.985674
1714.000000	0.986009
1713.000000	0.986249
1712.000000	0.986411
1711.000000	0.986501
1710.000000	0.986529
1709.000000	0.986531
1708.000000	0.986520
1707.000000	0.986475
1706.000000	0.986410
1705.000000	0.986391
1704.000000	0.986390
1703.000000	0.986246
1702.000000	0.985876
1701.000000	0.985472
1700.000000	0.985331
1699.000000	0.985485
1698.000000	0.985663
1697.000000	0.985672
1696.000000	0.985645
1695.000000	0.985840
1694.000000	0.986284
1693.000000	0.986742
1692.000000	0.986997
1691.000000	0.987049
1690.000000	0.987038
1689.000000	0.987039
1688.000000	0.986959
1687.000000	0.986661
1686.000000	0.986165
1685.000000	0.985732
1684.000000	0.985666
1683.000000	0.986016
1682.000000	0.986532
1681.000000	0.986929
1680.000000	0.987120
1679.000000	0.987169
1678.000000	0.987111
1677.000000	0.986943
1676.000000	0.986739
1675.000000	0.986654
1674.000000	0.986750
1673.000000	0.986907
1672.000000	0.986963
1671.000000	0.986892
1670.000000	0.986817
1669.000000	0.986858
1668.000000	0.987026
1667.000000	0.987230
1666.000000	0.987361
1665.000000	0.987363
1664.000000	0.987272
1663.000000	0.987195
1662.000000	0.987219
1661.000000	0.987334
1660.000000	0.987457
1659.000000	0.987528
1658.000000	0.987529
1657.000000	0.987397
1656.000000	0.987001
1655.000000	0.986308
1654.000000	0.985566
1653.000000	0.985221
1652.000000	0.985522
1651.000000	0.986249
1650.000000	0.986902
1649.000000	0.987142
1648.000000	0.987013
1647.000000	0.986809
1646.000000	0.986784
1645.000000	0.986986
1644.000000	0.987289
1643.000000	0.987541
1642.000000	0.987679
1641.000000	0.987736
1640.000000	0.987743
1639.000000	0.987651
1638.000000	0.987389
1637.000000	0.987010
1636.000000	0.986727
1635.000000	0.986738
1634.000000	0.987040
1633.000000	0.987438
1632.000000	0.987729
1631.000000	0.987839
1630.000000	0.987813
1629.000000	0.987740
1628.000000	0.987683
1627.000000	0.987654
1626.000000	0.987621
1625.000000	0.987553
1624.000000	0.987472
1623.000000	0.987443
1622.000000	0.987497
1621.000000	0.987573
1620.000000	0.987541
1619.000000	0.987325
1618.000000	0.987007
1617.000000	0.986805
1616.000000	0.986897
1615.000000	0.987247
1614.000000	0.987634
1613.000000	0.987864
1612.000000	0.987917
1611.000000	0.987898
1610.000000	0.987885
1609.000000	0.987872
1608.000000	0.987834
1607.000000	0.987786
1606.000000	0.987765
1605.000000	0.987786
1604.000000	0.987842
1603.000000	0.987908
1602.000000	0.987955
1601.000000	0.987965
1600.000000	0.987952
1599.000000	0.987947
1598.000000	0.987955
1597.000000	0.987956
1596.000000	0.987939
1595.000000	0.987919
1594.000000	0.987914
1593.000000	0.987924
1592.000000	0.987937
1591.000000	0.987949
1590.000000	0.987966
1589.000000	0.987989
1588.000000	0.988014
1587.000000	0.988032
1586.000000	0.988031
1585.000000	0.988005
1584.000000	0.987970
1583.000000	0.987951
1582.000000	0.987964
1581.000000	0.987987
1580.000000	0.987945
1579.000000	0.987752
1578.000000	0.987401
1577.000000	0.987044
1576.000000	0.986919
1575.000000	0.987129
1574.000000	0.987513
1573.000000	0.987788
1572.000000	0.987808
1571.000000	0.987666
1570.000000	0.987557
1569.000000	0.987583
1568.000000	0.987708
1567.000000	0.987832
1566.000000	0.987894
1565.000000	0.987897
1564.000000	0.987861
1563.000000	0.987731
1562.000000	0.987378
1561.000000	0.986763
1560.000000	0.986104
1559.000000	0.985781
1558.000000	0.985974
1557.000000	0.986478
1556.000000	0.986936
1555.000000	0.987189
1554.000000	0.987328
1553.000000	0.987470
1552.000000	0.987611
1551.000000	0.987707
1550.000000	0.987764
1549.000000	0.987811
1548.000000	0.987824
1547.000000	0.987757
1546.000000	0.987614
1545.000000	0.987439
1544.000000	0.987238
1543.000000	0.986962
1542.000000	0.986586
1541.000000	0.986199
1540.000000	0.986002
1539.000000	0.986166
1538.000000	0.986659
1537.000000	0.987216
1536.000000	0.987549
1535.000000	0.987585
1534.000000	0.987496
1533.000000	0.987489
1532.000000	0.987607
1531.000000	0.987750
1530.000000	0.987820
1529.000000	0.987791
1528.000000	0.987689
1527.000000	0.987563
1526.000000	0.987468
1525.000000	0.987401
1524.000000	0.987280
1523.000000	0.987043
1522.000000	0.986778
1521.000000	0.986671
1520.000000	0.986795
1519.000000	0.987030
1518.000000	0.987212
1517.000000	0.987312
1516.000000	0.987400
1515.000000	0.987506
1514.000000	0.987581
1513.000000	0.987600
1512.000000	0.987595
1511.000000	0.987566
1510.000000	0.987421
1509.000000	0.987069
1508.000000	0.986588
1507.000000	0.986241
1506.000000	0.986282
1505.000000	0.986728
1504.000000	0.987336
1503.000000	0.987819
1502.000000	0.988053
1501.000000	0.988102
1500.000000	0.988062
