PE IR       SUBTECH     SPECTRUM    ASCII       PEDS        4.00        
   -1
TE108B1_021.ASC
20/02/21
15:31:38.00
20/02/21
15:31:38.00
Administrator
Sample 021 By Administrator Date Friday, February 21 2020
1500.000000
#HDR
-1
-1
#GR
cm-1
A
1.0
0.0
4000.000000
-1.000000
2501
8
1.001942
0.932938
#DATA
4000.000000	0.945087
3999.000000	0.945047
3998.000000	0.945016
3997.000000	0.945002
3996.000000	0.945005
3995.000000	0.945016
3994.000000	0.945023
3993.000000	0.945016
3992.000000	0.944999
3991.000000	0.944982
3990.000000	0.944974
3989.000000	0.944971
3988.000000	0.944967
3987.000000	0.944951
3986.000000	0.944920
3985.000000	0.944878
3984.000000	0.944833
3983.000000	0.944800
3982.000000	0.944782
3981.000000	0.944774
3980.000000	0.944759
3979.000000	0.944723
3978.000000	0.944663
3977.000000	0.944594
3976.000000	0.944534
3975.000000	0.944491
3974.000000	0.944460
3973.000000	0.944427
3972.000000	0.944391
3971.000000	0.944356
3970.000000	0.944326
3969.000000	0.944293
3968.000000	0.944244
3967.000000	0.944171
3966.000000	0.944083
3965.000000	0.943993
3964.000000	0.943917
3963.000000	0.943860
3962.000000	0.943819
3961.000000	0.943780
3960.000000	0.943729
3959.000000	0.943660
3958.000000	0.943580
3957.000000	0.943502
3956.000000	0.943439
3955.000000	0.943392
3954.000000	0.943344
3953.000000	0.943277
3952.000000	0.943181
3951.000000	0.943066
3950.000000	0.942947
3949.000000	0.942836
3948.000000	0.942738
3947.000000	0.942651
3946.000000	0.942571
3945.000000	0.942490
3944.000000	0.942406
3943.000000	0.942324
3942.000000	0.942251
3941.000000	0.942184
3940.000000	0.942114
3939.000000	0.942030
3938.000000	0.941929
3937.000000	0.941821
3936.000000	0.941719
3935.000000	0.941633
3934.000000	0.941560
3933.000000	0.941486
3932.000000	0.941397
3931.000000	0.941293
3930.000000	0.941188
3929.000000	0.941090
3928.000000	0.940997
3927.000000	0.940892
3926.000000	0.940765
3925.000000	0.940622
3924.000000	0.940485
3923.000000	0.940370
3922.000000	0.940275
3921.000000	0.940175
3920.000000	0.940049
3919.000000	0.939891
3918.000000	0.939721
3917.000000	0.939576
3916.000000	0.939488
3915.000000	0.939461
3914.000000	0.939461
3913.000000	0.939442
3912.000000	0.939370
3911.000000	0.939252
3910.000000	0.939112
3909.000000	0.938973
3908.000000	0.938831
3907.000000	0.938667
3906.000000	0.938467
3905.000000	0.938240
3904.000000	0.938017
3903.000000	0.937831
3902.000000	0.937701
3901.000000	0.937634
3900.000000	0.937627
3899.000000	0.937669
3898.000000	0.937737
3897.000000	0.937794
3896.000000	0.937802
3895.000000	0.937736
3894.000000	0.937598
3893.000000	0.937413
3892.000000	0.937229
3891.000000	0.937091
3890.000000	0.937011
3889.000000	0.936954
3888.000000	0.936860
3887.000000	0.936703
3886.000000	0.936521
3885.000000	0.936388
3884.000000	0.936338
3883.000000	0.936337
3882.000000	0.936316
3881.000000	0.936252
3880.000000	0.936184
3879.000000	0.936160
3878.000000	0.936177
3877.000000	0.936179
3876.000000	0.936121
3875.000000	0.936003
3874.000000	0.935855
3873.000000	0.935687
3872.000000	0.935492
3871.000000	0.935291
3870.000000	0.935142
3869.000000	0.935097
3868.000000	0.935141
3867.000000	0.935195
3866.000000	0.935185
3865.000000	0.935109
3864.000000	0.935029
3863.000000	0.934998
3862.000000	0.935016
3861.000000	0.935044
3860.000000	0.935047
3859.000000	0.935003
3858.000000	0.934873
3857.000000	0.934595
3856.000000	0.934141
3855.000000	0.933590
3854.000000	0.933128
3853.000000	0.932946
3852.000000	0.933110
3851.000000	0.933516
3850.000000	0.933965
3849.000000	0.934292
3848.000000	0.934434
3847.000000	0.934420
3846.000000	0.934312
3845.000000	0.934168
3844.000000	0.934031
3843.000000	0.933929
3842.000000	0.933855
3841.000000	0.933758
3840.000000	0.933588
3839.000000	0.933360
3838.000000	0.933161
3837.000000	0.933089
3836.000000	0.933173
3835.000000	0.933347
3834.000000	0.933512
3833.000000	0.933609
3832.000000	0.933647
3831.000000	0.933665
3830.000000	0.933681
3829.000000	0.933685
3828.000000	0.933667
3827.000000	0.933641
3826.000000	0.933623
3825.000000	0.933600
3824.000000	0.933525
3823.000000	0.933374
3822.000000	0.933193
3821.000000	0.933074
3820.000000	0.933065
3819.000000	0.933114
3818.000000	0.933115
3817.000000	0.933031
3816.000000	0.932938
3815.000000	0.932956
3814.000000	0.933127
3813.000000	0.933371
3812.000000	0.933570
3811.000000	0.933649
3810.000000	0.933604
3809.000000	0.933473
3808.000000	0.933321
3807.000000	0.933228
3806.000000	0.933238
3805.000000	0.933311
3804.000000	0.933337
3803.000000	0.933242
3802.000000	0.933081
3801.000000	0.932998
3800.000000	0.933091
3799.000000	0.933318
3798.000000	0.933549
3797.000000	0.933693
3796.000000	0.933762
3795.000000	0.933821
3794.000000	0.933908
3793.000000	0.934006
3792.000000	0.934081
3791.000000	0.934125
3790.000000	0.934155
3789.000000	0.934186
3788.000000	0.934216
3787.000000	0.934244
3786.000000	0.934272
3785.000000	0.934312
3784.000000	0.934365
3783.000000	0.934418
3782.000000	0.934447
3781.000000	0.934441
3780.000000	0.934422
3779.000000	0.934428
3778.000000	0.934482
3777.000000	0.934569
3776.000000	0.934654
3775.000000	0.934712
3774.000000	0.934738
3773.000000	0.934736
3772.000000	0.934707
3771.000000	0.934667
3770.000000	0.934651
3769.000000	0.934691
3768.000000	0.934780
3767.000000	0.934881
3766.000000	0.934961
3765.000000	0.935026
3764.000000	0.935098
3763.000000	0.935181
3762.000000	0.935251
3761.000000	0.935282
3760.000000	0.935280
3759.000000	0.935281
3758.000000	0.935319
3757.000000	0.935392
3756.000000	0.935444
3755.000000	0.935401
3754.000000	0.935225
3753.000000	0.934945
3752.000000	0.934660
3751.000000	0.934495
3750.000000	0.934533
3749.000000	0.934757
3748.000000	0.935028
3747.000000	0.935168
3746.000000	0.935096
3745.000000	0.934922
3744.000000	0.934879
3743.000000	0.935122
3742.000000	0.935588
3741.000000	0.936057
3740.000000	0.936331
3739.000000	0.936367
3738.000000	0.936253
3737.000000	0.936116
3736.000000	0.936039
3735.000000	0.936047
3734.000000	0.936138
3733.000000	0.936296
3732.000000	0.936514
3731.000000	0.936774
3730.000000	0.937039
3729.000000	0.937257
3728.000000	0.937396
3727.000000	0.937474
3726.000000	0.937544
3725.000000	0.937649
3724.000000	0.937790
3723.000000	0.937952
3722.000000	0.938123
3721.000000	0.938307
3720.000000	0.938502
3719.000000	0.938700
3718.000000	0.938893
3717.000000	0.939073
3716.000000	0.939223
3715.000000	0.939318
3714.000000	0.939349
3713.000000	0.939355
3712.000000	0.939412
3711.000000	0.939586
3710.000000	0.939891
3709.000000	0.940281
3708.000000	0.940686
3707.000000	0.941066
3706.000000	0.941409
3705.000000	0.941716
3704.000000	0.941991
3703.000000	0.942249
3702.000000	0.942528
3701.000000	0.942865
3700.000000	0.943266
3699.000000	0.943698
3698.000000	0.944121
3697.000000	0.944520
3696.000000	0.944903
3695.000000	0.945277
3694.000000	0.945630
3693.000000	0.945939
3692.000000	0.946180
3691.000000	0.946352
3690.000000	0.946501
3689.000000	0.946724
3688.000000	0.947121
3687.000000	0.947723
3686.000000	0.948462
3685.000000	0.949215
3684.000000	0.949894
3683.000000	0.950487
3682.000000	0.951027
3681.000000	0.951549
3680.000000	0.952044
3679.000000	0.952472
3678.000000	0.952806
3677.000000	0.953091
3676.000000	0.953450
3675.000000	0.954002
3674.000000	0.954741
3673.000000	0.955519
3672.000000	0.956183
3671.000000	0.956718
3670.000000	0.957255
3669.000000	0.957934
3668.000000	0.958760
3667.000000	0.959624
3666.000000	0.960413
3665.000000	0.961096
3664.000000	0.961712
3663.000000	0.962310
3662.000000	0.962910
3661.000000	0.963505
3660.000000	0.964072
3659.000000	0.964589
3658.000000	0.965055
3657.000000	0.965509
3656.000000	0.966014
3655.000000	0.966600
3654.000000	0.967222
3653.000000	0.967774
3652.000000	0.968179
3651.000000	0.968460
3650.000000	0.968733
3649.000000	0.969130
3648.000000	0.969697
3647.000000	0.970381
3646.000000	0.971073
3645.000000	0.971686
3644.000000	0.972195
3643.000000	0.972631
3642.000000	0.973042
3641.000000	0.973459
3640.000000	0.973886
3639.000000	0.974311
3638.000000	0.974716
3637.000000	0.975086
3636.000000	0.975415
3635.000000	0.975709
3634.000000	0.975978
3633.000000	0.976208
3632.000000	0.976362
3631.000000	0.976426
3630.000000	0.976459
3629.000000	0.976579
3628.000000	0.976881
3627.000000	0.977349
3626.000000	0.977877
3625.000000	0.978338
3624.000000	0.978666
3623.000000	0.978859
3622.000000	0.978955
3621.000000	0.979011
3620.000000	0.979087
3619.000000	0.979231
3618.000000	0.979447
3617.000000	0.979695
3616.000000	0.979922
3615.000000	0.980100
3614.000000	0.980237
3613.000000	0.980349
3612.000000	0.980446
3611.000000	0.980528
3610.000000	0.980613
3609.000000	0.980738
3608.000000	0.980927
3607.000000	0.981168
3606.000000	0.981410
3605.000000	0.981603
3604.000000	0.981724
3603.000000	0.981789
3602.000000	0.981829
3601.000000	0.981869
3600.000000	0.981919
3599.000000	0.981975
3598.000000	0.982028
3597.000000	0.982075
3596.000000	0.982116
3595.000000	0.982164
3594.000000	0.982234
3593.000000	0.982332
3592.000000	0.982433
3591.000000	0.982492
3590.000000	0.982479
3589.000000	0.982414
3588.000000	0.982364
3587.000000	0.982386
3586.000000	0.982484
3585.000000	0.982610
3584.000000	0.982711
3583.000000	0.982771
3582.000000	0.982805
3581.000000	0.982833
3580.000000	0.982867
3579.000000	0.982912
3578.000000	0.982968
3577.000000	0.983026
3576.000000	0.983069
3575.000000	0.983083
3574.000000	0.983066
3573.000000	0.983034
3572.000000	0.983001
3571.000000	0.982963
3570.000000	0.982903
3569.000000	0.982820
3568.000000	0.982748
3567.000000	0.982730
3566.000000	0.982784
3565.000000	0.982888
3564.000000	0.982993
3563.000000	0.983063
3562.000000	0.983091
3561.000000	0.983094
3560.000000	0.983101
3559.000000	0.983131
3558.000000	0.983184
3557.000000	0.983245
3556.000000	0.983293
3555.000000	0.983311
3554.000000	0.983297
3553.000000	0.983269
3552.000000	0.983256
3551.000000	0.983279
3550.000000	0.983330
3549.000000	0.983372
3548.000000	0.983371
3547.000000	0.983327
3546.000000	0.983271
3545.000000	0.983242
3544.000000	0.983257
3543.000000	0.983307
3542.000000	0.983366
3541.000000	0.983413
3540.000000	0.983444
3539.000000	0.983469
3538.000000	0.983501
3537.000000	0.983545
3536.000000	0.983596
3535.000000	0.983652
3534.000000	0.983712
3533.000000	0.983773
3532.000000	0.983821
3531.000000	0.983838
3530.000000	0.983812
3529.000000	0.983760
3528.000000	0.983714
3527.000000	0.983714
3526.000000	0.983771
3525.000000	0.983868
3524.000000	0.983975
3523.000000	0.984070
3522.000000	0.984148
3521.000000	0.984214
3520.000000	0.984271
3519.000000	0.984324
3518.000000	0.984381
3517.000000	0.984443
3516.000000	0.984514
3515.000000	0.984590
3514.000000	0.984669
3513.000000	0.984742
3512.000000	0.984806
3511.000000	0.984862
3510.000000	0.984916
3509.000000	0.984966
3508.000000	0.985005
3507.000000	0.985033
3506.000000	0.985066
3505.000000	0.985122
3504.000000	0.985209
3503.000000	0.985318
3502.000000	0.985435
3501.000000	0.985551
3500.000000	0.985659
3499.000000	0.985755
3498.000000	0.985839
3497.000000	0.985917
3496.000000	0.985997
3495.000000	0.986087
3494.000000	0.986180
3493.000000	0.986263
3492.000000	0.986329
3491.000000	0.986390
3490.000000	0.986467
3489.000000	0.986569
3488.000000	0.986685
3487.000000	0.986796
3486.000000	0.986886
3485.000000	0.986955
3484.000000	0.987013
3483.000000	0.987078
3482.000000	0.987165
3481.000000	0.987279
3480.000000	0.987410
3479.000000	0.987548
3478.000000	0.987680
3477.000000	0.987802
3476.000000	0.987912
3475.000000	0.988011
3474.000000	0.988108
3473.000000	0.988210
3472.000000	0.988321
3471.000000	0.988434
3470.000000	0.988547
3469.000000	0.988667
3468.000000	0.988804
3467.000000	0.988956
3466.000000	0.989109
3465.000000	0.989246
3464.000000	0.989367
3463.000000	0.989480
3462.000000	0.989597
3461.000000	0.989722
3460.000000	0.989854
3459.000000	0.989996
3458.000000	0.990144
3457.000000	0.990290
3456.000000	0.990417
3455.000000	0.990518
3454.000000	0.990604
3453.000000	0.990698
3452.000000	0.990815
3451.000000	0.990950
3450.000000	0.991081
3449.000000	0.991201
3448.000000	0.991328
3447.000000	0.991483
3446.000000	0.991665
3445.000000	0.991844
3444.000000	0.991989
3443.000000	0.992100
3442.000000	0.992201
3441.000000	0.992312
3440.000000	0.992435
3439.000000	0.992561
3438.000000	0.992682
3437.000000	0.992795
3436.000000	0.992899
3435.000000	0.992995
3434.000000	0.993085
3433.000000	0.993176
3432.000000	0.993278
3431.000000	0.993397
3430.000000	0.993532
3429.000000	0.993672
3428.000000	0.993809
3427.000000	0.993943
3426.000000	0.994077
3425.000000	0.994208
3424.000000	0.994330
3423.000000	0.994438
3422.000000	0.994541
3421.000000	0.994654
3420.000000	0.994787
3419.000000	0.994935
3418.000000	0.995077
3417.000000	0.995197
3416.000000	0.995291
3415.000000	0.995374
3414.000000	0.995457
3413.000000	0.995545
3412.000000	0.995635
3411.000000	0.995725
3410.000000	0.995810
3409.000000	0.995881
3408.000000	0.995929
3407.000000	0.995963
3406.000000	0.996007
3405.000000	0.996082
3404.000000	0.996187
3403.000000	0.996301
3402.000000	0.996401
3401.000000	0.996479
3400.000000	0.996546
3399.000000	0.996612
3398.000000	0.996678
3397.000000	0.996733
3396.000000	0.996767
3395.000000	0.996783
3394.000000	0.996798
3393.000000	0.996829
3392.000000	0.996879
3391.000000	0.996933
3390.000000	0.996976
3389.000000	0.997011
3388.000000	0.997056
3387.000000	0.997125
3386.000000	0.997208
3385.000000	0.997281
3384.000000	0.997334
3383.000000	0.997376
3382.000000	0.997420
3381.000000	0.997463
3380.000000	0.997490
3379.000000	0.997498
3378.000000	0.997499
3377.000000	0.997508
3376.000000	0.997536
3375.000000	0.997584
3374.000000	0.997643
3373.000000	0.997694
3372.000000	0.997721
3371.000000	0.997724
3370.000000	0.997721
3369.000000	0.997732
3368.000000	0.997756
3367.000000	0.997784
3366.000000	0.997810
3365.000000	0.997839
3364.000000	0.997880
3363.000000	0.997931
3362.000000	0.997979
3361.000000	0.998011
3360.000000	0.998030
3359.000000	0.998048
3358.000000	0.998076
3357.000000	0.998108
3356.000000	0.998128
3355.000000	0.998128
3354.000000	0.998113
3353.000000	0.998098
3352.000000	0.998099
3351.000000	0.998125
3350.000000	0.998176
3349.000000	0.998235
3348.000000	0.998281
3347.000000	0.998308
3346.000000	0.998325
3345.000000	0.998346
3344.000000	0.998370
3343.000000	0.998386
3342.000000	0.998387
3341.000000	0.998378
3340.000000	0.998373
3339.000000	0.998380
3338.000000	0.998401
3337.000000	0.998433
3336.000000	0.998473
3335.000000	0.998512
3334.000000	0.998540
3333.000000	0.998552
3332.000000	0.998551
3331.000000	0.998552
3330.000000	0.998562
3329.000000	0.998579
3328.000000	0.998596
3327.000000	0.998611
3326.000000	0.998625
3325.000000	0.998640
3324.000000	0.998663
3323.000000	0.998704
3322.000000	0.998771
3321.000000	0.998848
3320.000000	0.998908
3319.000000	0.998933
3318.000000	0.998931
3317.000000	0.998926
3316.000000	0.998937
3315.000000	0.998964
3314.000000	0.998996
3313.000000	0.999026
3312.000000	0.999060
3311.000000	0.999101
3310.000000	0.999148
3309.000000	0.999187
3308.000000	0.999209
3307.000000	0.999218
3306.000000	0.999232
3305.000000	0.999265
3304.000000	0.999320
3303.000000	0.999386
3302.000000	0.999456
3301.000000	0.999520
3300.000000	0.999566
3299.000000	0.999590
3298.000000	0.999601
3297.000000	0.999616
3296.000000	0.999647
3295.000000	0.999687
3294.000000	0.999717
3293.000000	0.999725
3292.000000	0.999718
3291.000000	0.999712
3290.000000	0.999712
3289.000000	0.999719
3288.000000	0.999740
3287.000000	0.999792
3286.000000	0.999876
3285.000000	0.999967
3284.000000	1.000028
3283.000000	1.000042
3282.000000	1.000025
3281.000000	1.000003
3280.000000	0.999997
3279.000000	1.000016
3278.000000	1.000059
3277.000000	1.000115
3276.000000	1.000170
3275.000000	1.000217
3274.000000	1.000256
3273.000000	1.000289
3272.000000	1.000310
3271.000000	1.000322
3270.000000	1.000333
3269.000000	1.000354
3268.000000	1.000387
3267.000000	1.000427
3266.000000	1.000468
3265.000000	1.000507
3264.000000	1.000545
3263.000000	1.000585
3262.000000	1.000626
3261.000000	1.000660
3260.000000	1.000677
3259.000000	1.000681
3258.000000	1.000681
3257.000000	1.000688
3256.000000	1.000709
3255.000000	1.000744
3254.000000	1.000793
3253.000000	1.000841
3252.000000	1.000872
3251.000000	1.000879
3250.000000	1.000875
3249.000000	1.000873
3248.000000	1.000882
3247.000000	1.000907
3246.000000	1.000951
3245.000000	1.001012
3244.000000	1.001077
3243.000000	1.001128
3242.000000	1.001155
3241.000000	1.001163
3240.000000	1.001165
3239.000000	1.001170
3238.000000	1.001181
3237.000000	1.001197
3236.000000	1.001218
3235.000000	1.001245
3234.000000	1.001278
3233.000000	1.001308
3232.000000	1.001327
3231.000000	1.001338
3230.000000	1.001352
3229.000000	1.001374
3228.000000	1.001400
3227.000000	1.001424
3226.000000	1.001448
3225.000000	1.001477
3224.000000	1.001509
3223.000000	1.001539
3222.000000	1.001566
3221.000000	1.001592
3220.000000	1.001621
3219.000000	1.001648
3218.000000	1.001666
3217.000000	1.001668
3216.000000	1.001658
3215.000000	1.001651
3214.000000	1.001665
3213.000000	1.001702
3212.000000	1.001741
3211.000000	1.001765
3210.000000	1.001768
3209.000000	1.001755
3208.000000	1.001727
3207.000000	1.001692
3206.000000	1.001667
3205.000000	1.001667
3204.000000	1.001692
3203.000000	1.001724
3202.000000	1.001740
3201.000000	1.001737
3200.000000	1.001722
3199.000000	1.001707
3198.000000	1.001700
3197.000000	1.001703
3196.000000	1.001710
3195.000000	1.001718
3194.000000	1.001723
3193.000000	1.001724
3192.000000	1.001718
3191.000000	1.001710
3190.000000	1.001705
3189.000000	1.001710
3188.000000	1.001722
3187.000000	1.001736
3186.000000	1.001747
3185.000000	1.001751
3184.000000	1.001747
3183.000000	1.001736
3182.000000	1.001725
3181.000000	1.001718
3180.000000	1.001718
3179.000000	1.001726
3178.000000	1.001738
3177.000000	1.001745
3176.000000	1.001739
3175.000000	1.001727
3174.000000	1.001721
3173.000000	1.001723
3172.000000	1.001724
3171.000000	1.001714
3170.000000	1.001700
3169.000000	1.001693
3168.000000	1.001696
3167.000000	1.001703
3166.000000	1.001714
3165.000000	1.001732
3164.000000	1.001759
3163.000000	1.001785
3162.000000	1.001799
3161.000000	1.001801
3160.000000	1.001800
3159.000000	1.001809
3158.000000	1.001828
3157.000000	1.001844
3156.000000	1.001840
3155.000000	1.001818
3154.000000	1.001794
3153.000000	1.001784
3152.000000	1.001786
3151.000000	1.001788
3150.000000	1.001779
3149.000000	1.001763
3148.000000	1.001753
3147.000000	1.001758
3146.000000	1.001781
3145.000000	1.001812
3144.000000	1.001841
3143.000000	1.001858
3142.000000	1.001863
3141.000000	1.001861
3140.000000	1.001860
3139.000000	1.001860
3138.000000	1.001854
3137.000000	1.001833
3136.000000	1.001799
3135.000000	1.001770
3134.000000	1.001765
3133.000000	1.001782
3132.000000	1.001801
3131.000000	1.001811
3130.000000	1.001814
3129.000000	1.001817
3128.000000	1.001824
3127.000000	1.001835
3126.000000	1.001857
3125.000000	1.001892
3124.000000	1.001926
3123.000000	1.001942
3122.000000	1.001937
3121.000000	1.001925
3120.000000	1.001917
3119.000000	1.001905
3118.000000	1.001883
3117.000000	1.001855
3116.000000	1.001833
3115.000000	1.001825
3114.000000	1.001827
3113.000000	1.001831
3112.000000	1.001830
3111.000000	1.001823
3110.000000	1.001804
3109.000000	1.001776
3108.000000	1.001747
3107.000000	1.001728
3106.000000	1.001717
3105.000000	1.001699
3104.000000	1.001656
3103.000000	1.001585
3102.000000	1.001507
3101.000000	1.001447
3100.000000	1.001421
3099.000000	1.001420
3098.000000	1.001422
3097.000000	1.001407
3096.000000	1.001369
3095.000000	1.001317
3094.000000	1.001266
3093.000000	1.001224
3092.000000	1.001191
3091.000000	1.001163
3090.000000	1.001135
3089.000000	1.001109
3088.000000	1.001082
3087.000000	1.001055
3086.000000	1.001021
3085.000000	1.000976
3084.000000	1.000919
3083.000000	1.000855
3082.000000	1.000786
3081.000000	1.000711
3080.000000	1.000630
3079.000000	1.000551
3078.000000	1.000490
3077.000000	1.000455
3076.000000	1.000435
3075.000000	1.000416
3074.000000	1.000387
3073.000000	1.000348
3072.000000	1.000306
3071.000000	1.000262
3070.000000	1.000214
3069.000000	1.000152
3068.000000	1.000078
3067.000000	1.000008
3066.000000	0.999958
3065.000000	0.999921
3064.000000	0.999877
3063.000000	0.999820
3062.000000	0.999759
3061.000000	0.999710
3060.000000	0.999672
3059.000000	0.999636
3058.000000	0.999594
3057.000000	0.999540
3056.000000	0.999469
3055.000000	0.999388
3054.000000	0.999317
3053.000000	0.999266
3052.000000	0.999232
3051.000000	0.999204
3050.000000	0.999173
3049.000000	0.999135
3048.000000	0.999084
3047.000000	0.999017
3046.000000	0.998944
3045.000000	0.998875
3044.000000	0.998810
3043.000000	0.998747
3042.000000	0.998689
3041.000000	0.998642
3040.000000	0.998601
3039.000000	0.998558
3038.000000	0.998506
3037.000000	0.998449
3036.000000	0.998390
3035.000000	0.998335
3034.000000	0.998294
3033.000000	0.998274
3032.000000	0.998263
3031.000000	0.998240
3030.000000	0.998190
3029.000000	0.998125
3028.000000	0.998064
3027.000000	0.998016
3026.000000	0.997977
3025.000000	0.997939
3024.000000	0.997893
3023.000000	0.997833
3022.000000	0.997756
3021.000000	0.997674
3020.000000	0.997601
3019.000000	0.997539
3018.000000	0.997476
3017.000000	0.997397
3016.000000	0.997301
3015.000000	0.997206
3014.000000	0.997128
3013.000000	0.997068
3012.000000	0.997016
3011.000000	0.996966
3010.000000	0.996919
3009.000000	0.996872
3008.000000	0.996817
3007.000000	0.996751
3006.000000	0.996683
3005.000000	0.996625
3004.000000	0.996573
3003.000000	0.996507
3002.000000	0.996413
3001.000000	0.996294
3000.000000	0.996172
2999.000000	0.996067
2998.000000	0.995985
2997.000000	0.995914
2996.000000	0.995839
2995.000000	0.995753
2994.000000	0.995666
2993.000000	0.995586
2992.000000	0.995508
2991.000000	0.995419
2990.000000	0.995313
2989.000000	0.995205
2988.000000	0.995113
2987.000000	0.995040
2986.000000	0.994975
2985.000000	0.994906
2984.000000	0.994831
2983.000000	0.994754
2982.000000	0.994677
2981.000000	0.994595
2980.000000	0.994500
2979.000000	0.994395
2978.000000	0.994294
2977.000000	0.994210
2976.000000	0.994143
2975.000000	0.994080
2974.000000	0.994004
2973.000000	0.993907
2972.000000	0.993795
2971.000000	0.993680
2970.000000	0.993567
2969.000000	0.993453
2968.000000	0.993331
2967.000000	0.993192
2966.000000	0.993038
2965.000000	0.992878
2964.000000	0.992728
2963.000000	0.992597
2962.000000	0.992480
2961.000000	0.992361
2960.000000	0.992234
2959.000000	0.992104
2958.000000	0.991977
2957.000000	0.991850
2956.000000	0.991719
2955.000000	0.991580
2954.000000	0.991432
2953.000000	0.991273
2952.000000	0.991108
2951.000000	0.990953
2950.000000	0.990818
2949.000000	0.990693
2948.000000	0.990556
2947.000000	0.990402
2946.000000	0.990254
2945.000000	0.990134
2944.000000	0.990035
2943.000000	0.989930
2942.000000	0.989801
2941.000000	0.989650
2940.000000	0.989491
2939.000000	0.989334
2938.000000	0.989182
2937.000000	0.989032
2936.000000	0.988880
2935.000000	0.988729
2934.000000	0.988591
2933.000000	0.988472
2932.000000	0.988360
2931.000000	0.988228
2930.000000	0.988058
2929.000000	0.987855
2928.000000	0.987644
2927.000000	0.987447
2926.000000	0.987266
2925.000000	0.987090
2924.000000	0.986907
2923.000000	0.986714
2922.000000	0.986516
2921.000000	0.986320
2920.000000	0.986134
2919.000000	0.985959
2918.000000	0.985794
2917.000000	0.985629
2916.000000	0.985455
2915.000000	0.985269
2914.000000	0.985082
2913.000000	0.984911
2912.000000	0.984767
2911.000000	0.984649
2910.000000	0.984544
2909.000000	0.984427
2908.000000	0.984281
2907.000000	0.984107
2906.000000	0.983915
2905.000000	0.983715
2904.000000	0.983508
2903.000000	0.983298
2902.000000	0.983101
2901.000000	0.982931
2900.000000	0.982785
2899.000000	0.982649
2898.000000	0.982509
2897.000000	0.982357
2896.000000	0.982189
2895.000000	0.982008
2894.000000	0.981823
2893.000000	0.981648
2892.000000	0.981491
2891.000000	0.981352
2890.000000	0.981220
2889.000000	0.981084
2888.000000	0.980935
2887.000000	0.980772
2886.000000	0.980606
2885.000000	0.980445
2884.000000	0.980292
2883.000000	0.980138
2882.000000	0.979977
2881.000000	0.979810
2880.000000	0.979639
2879.000000	0.979470
2878.000000	0.979309
2877.000000	0.979165
2876.000000	0.979032
2875.000000	0.978900
2874.000000	0.978758
2873.000000	0.978604
2872.000000	0.978441
2871.000000	0.978278
2870.000000	0.978123
2869.000000	0.977982
2868.000000	0.977854
2867.000000	0.977725
2866.000000	0.977579
2865.000000	0.977407
2864.000000	0.977212
2863.000000	0.977006
2862.000000	0.976805
2861.000000	0.976621
2860.000000	0.976458
2859.000000	0.976312
2858.000000	0.976174
2857.000000	0.976029
2856.000000	0.975875
2855.000000	0.975719
2854.000000	0.975571
2853.000000	0.975437
2852.000000	0.975307
2851.000000	0.975177
2850.000000	0.975047
2849.000000	0.974924
2848.000000	0.974810
2847.000000	0.974707
2846.000000	0.974612
2845.000000	0.974522
2844.000000	0.974432
2843.000000	0.974337
2842.000000	0.974234
2841.000000	0.974126
2840.000000	0.974014
2839.000000	0.973905
2838.000000	0.973803
2837.000000	0.973706
2836.000000	0.973610
2835.000000	0.973513
2834.000000	0.973414
2833.000000	0.973311
2832.000000	0.973197
2831.000000	0.973073
2830.000000	0.972951
2829.000000	0.972847
2828.000000	0.972759
2827.000000	0.972671
2826.000000	0.972569
2825.000000	0.972456
2824.000000	0.972341
2823.000000	0.972234
2822.000000	0.972135
2821.000000	0.972043
2820.000000	0.971957
2819.000000	0.971879
2818.000000	0.971807
2817.000000	0.971737
2816.000000	0.971659
2815.000000	0.971569
2814.000000	0.971468
2813.000000	0.971365
2812.000000	0.971261
2811.000000	0.971155
2810.000000	0.971049
2809.000000	0.970949
2808.000000	0.970865
2807.000000	0.970798
2806.000000	0.970737
2805.000000	0.970670
2804.000000	0.970591
2803.000000	0.970514
2802.000000	0.970448
2801.000000	0.970393
2800.000000	0.970333
2799.000000	0.970257
2798.000000	0.970175
2797.000000	0.970100
2796.000000	0.970031
2795.000000	0.969957
2794.000000	0.969875
2793.000000	0.969796
2792.000000	0.969734
2791.000000	0.969689
2790.000000	0.969653
2789.000000	0.969613
2788.000000	0.969560
2787.000000	0.969492
2786.000000	0.969414
2785.000000	0.969337
2784.000000	0.969267
2783.000000	0.969204
2782.000000	0.969147
2781.000000	0.969097
2780.000000	0.969057
2779.000000	0.969025
2778.000000	0.968984
2777.000000	0.968919
2776.000000	0.968826
2775.000000	0.968726
2774.000000	0.968646
2773.000000	0.968600
2772.000000	0.968583
2771.000000	0.968577
2770.000000	0.968569
2769.000000	0.968545
2768.000000	0.968498
2767.000000	0.968430
2766.000000	0.968356
2765.000000	0.968289
2764.000000	0.968232
2763.000000	0.968185
2762.000000	0.968154
2761.000000	0.968138
2760.000000	0.968120
2759.000000	0.968080
2758.000000	0.968014
2757.000000	0.967943
2756.000000	0.967887
2755.000000	0.967849
2754.000000	0.967820
2753.000000	0.967798
2752.000000	0.967786
2751.000000	0.967785
2750.000000	0.967784
2749.000000	0.967766
2748.000000	0.967727
2747.000000	0.967683
2746.000000	0.967658
2745.000000	0.967657
2744.000000	0.967667
2743.000000	0.967666
2742.000000	0.967643
2741.000000	0.967603
2740.000000	0.967558
2739.000000	0.967518
2738.000000	0.967488
2737.000000	0.967468
2736.000000	0.967453
2735.000000	0.967439
2734.000000	0.967424
2733.000000	0.967407
2732.000000	0.967389
2731.000000	0.967379
2730.000000	0.967380
2729.000000	0.967388
2728.000000	0.967388
2727.000000	0.967370
2726.000000	0.967342
2725.000000	0.967311
2724.000000	0.967283
2723.000000	0.967256
2722.000000	0.967233
2721.000000	0.967220
2720.000000	0.967214
2719.000000	0.967211
2718.000000	0.967206
2717.000000	0.967202
2716.000000	0.967204
2715.000000	0.967215
2714.000000	0.967238
2713.000000	0.967274
2712.000000	0.967308
2711.000000	0.967323
2710.000000	0.967312
2709.000000	0.967288
2708.000000	0.967271
2707.000000	0.967271
2706.000000	0.967286
2705.000000	0.967306
2704.000000	0.967321
2703.000000	0.967323
2702.000000	0.967309
2701.000000	0.967290
2700.000000	0.967284
2699.000000	0.967306
2698.000000	0.967347
2697.000000	0.967384
2696.000000	0.967401
2695.000000	0.967404
2694.000000	0.967412
2693.000000	0.967435
2692.000000	0.967462
2691.000000	0.967481
2690.000000	0.967486
2689.000000	0.967486
2688.000000	0.967497
2687.000000	0.967532
2686.000000	0.967587
2685.000000	0.967643
2684.000000	0.967676
2683.000000	0.967680
2682.000000	0.967669
2681.000000	0.967665
2680.000000	0.967678
2679.000000	0.967705
2678.000000	0.967744
2677.000000	0.967792
2676.000000	0.967844
2675.000000	0.967893
2674.000000	0.967934
2673.000000	0.967969
2672.000000	0.968006
2671.000000	0.968052
2670.000000	0.968105
2669.000000	0.968159
2668.000000	0.968205
2667.000000	0.968238
2666.000000	0.968258
2665.000000	0.968270
2664.000000	0.968282
2663.000000	0.968310
2662.000000	0.968362
2661.000000	0.968436
2660.000000	0.968515
2659.000000	0.968585
2658.000000	0.968645
2657.000000	0.968701
2656.000000	0.968758
2655.000000	0.968818
2654.000000	0.968881
2653.000000	0.968950
2652.000000	0.969021
2651.000000	0.969089
2650.000000	0.969152
2649.000000	0.969212
2648.000000	0.969266
2647.000000	0.969314
2646.000000	0.969362
2645.000000	0.969417
2644.000000	0.969484
2643.000000	0.969559
2642.000000	0.969636
2641.000000	0.969713
2640.000000	0.969788
2639.000000	0.969862
2638.000000	0.969931
2637.000000	0.969995
2636.000000	0.970054
2635.000000	0.970114
2634.000000	0.970182
2633.000000	0.970259
2632.000000	0.970332
2631.000000	0.970389
2630.000000	0.970427
2629.000000	0.970463
2628.000000	0.970514
2627.000000	0.970590
2626.000000	0.970682
2625.000000	0.970775
2624.000000	0.970858
2623.000000	0.970928
2622.000000	0.970990
2621.000000	0.971054
2620.000000	0.971128
2619.000000	0.971213
2618.000000	0.971308
2617.000000	0.971412
2616.000000	0.971519
2615.000000	0.971622
2614.000000	0.971716
2613.000000	0.971801
2612.000000	0.971881
2611.000000	0.971964
2610.000000	0.972050
2609.000000	0.972137
2608.000000	0.972220
2607.000000	0.972296
2606.000000	0.972363
2605.000000	0.972423
2604.000000	0.972482
2603.000000	0.972551
2602.000000	0.972637
2601.000000	0.972745
2600.000000	0.972869
2599.000000	0.972997
2598.000000	0.973118
2597.000000	0.973221
2596.000000	0.973307
2595.000000	0.973381
2594.000000	0.973449
2593.000000	0.973516
2592.000000	0.973587
2591.000000	0.973671
2590.000000	0.973768
2589.000000	0.973872
2588.000000	0.973973
2587.000000	0.974069
2586.000000	0.974164
2585.000000	0.974255
2584.000000	0.974346
2583.000000	0.974444
2582.000000	0.974558
2581.000000	0.974683
2580.000000	0.974799
2579.000000	0.974893
2578.000000	0.974973
2577.000000	0.975058
2576.000000	0.975154
2575.000000	0.975256
2574.000000	0.975356
2573.000000	0.975450
2572.000000	0.975546
2571.000000	0.975655
2570.000000	0.975782
2569.000000	0.975913
2568.000000	0.976033
2567.000000	0.976134
2566.000000	0.976231
2565.000000	0.976339
2564.000000	0.976461
2563.000000	0.976590
2562.000000	0.976717
2561.000000	0.976843
2560.000000	0.976968
2559.000000	0.977095
2558.000000	0.977227
2557.000000	0.977358
2556.000000	0.977483
2555.000000	0.977598
2554.000000	0.977708
2553.000000	0.977820
2552.000000	0.977938
2551.000000	0.978062
2550.000000	0.978195
2549.000000	0.978337
2548.000000	0.978488
2547.000000	0.978643
2546.000000	0.978796
2545.000000	0.978939
2544.000000	0.979065
2543.000000	0.979177
2542.000000	0.979288
2541.000000	0.979410
2540.000000	0.979545
2539.000000	0.979684
2538.000000	0.979823
2537.000000	0.979955
2536.000000	0.980078
2535.000000	0.980198
2534.000000	0.980328
2533.000000	0.980474
2532.000000	0.980630
2531.000000	0.980782
2530.000000	0.980926
2529.000000	0.981070
2528.000000	0.981220
2527.000000	0.981379
2526.000000	0.981545
2525.000000	0.981712
2524.000000	0.981870
2523.000000	0.982014
2522.000000	0.982145
2521.000000	0.982273
2520.000000	0.982401
2519.000000	0.982526
2518.000000	0.982650
2517.000000	0.982777
2516.000000	0.982907
2515.000000	0.983039
2514.000000	0.983177
2513.000000	0.983326
2512.000000	0.983480
2511.000000	0.983625
2510.000000	0.983752
2509.000000	0.983870
2508.000000	0.983990
2507.000000	0.984112
2506.000000	0.984235
2505.000000	0.984361
2504.000000	0.984497
2503.000000	0.984644
2502.000000	0.984793
2501.000000	0.984927
2500.000000	0.985038
2499.000000	0.985129
2498.000000	0.985216
2497.000000	0.985316
2496.000000	0.985436
2495.000000	0.985565
2494.000000	0.985685
2493.000000	0.985783
2492.000000	0.985857
2491.000000	0.985919
2490.000000	0.985983
2489.000000	0.986059
2488.000000	0.986144
2487.000000	0.986232
2486.000000	0.986321
2485.000000	0.986411
2484.000000	0.986499
2483.000000	0.986582
2482.000000	0.986653
2481.000000	0.986713
2480.000000	0.986763
2479.000000	0.986806
2478.000000	0.986847
2477.000000	0.986890
2476.000000	0.986938
2475.000000	0.986991
2474.000000	0.987044
2473.000000	0.987094
2472.000000	0.987141
2471.000000	0.987185
2470.000000	0.987225
2469.000000	0.987259
2468.000000	0.987288
2467.000000	0.987313
2466.000000	0.987340
2465.000000	0.987371
2464.000000	0.987405
2463.000000	0.987443
2462.000000	0.987479
2461.000000	0.987507
2460.000000	0.987528
2459.000000	0.987552
2458.000000	0.987581
2457.000000	0.987608
2456.000000	0.987620
2455.000000	0.987614
2454.000000	0.987598
2453.000000	0.987583
2452.000000	0.987572
2451.000000	0.987562
2450.000000	0.987545
2449.000000	0.987520
2448.000000	0.987491
2447.000000	0.987464
2446.000000	0.987441
2445.000000	0.987423
2444.000000	0.987411
2443.000000	0.987407
2442.000000	0.987412
2441.000000	0.987412
2440.000000	0.987398
2439.000000	0.987371
2438.000000	0.987339
2437.000000	0.987302
2436.000000	0.987259
2435.000000	0.987215
2434.000000	0.987181
2433.000000	0.987153
2432.000000	0.987121
2431.000000	0.987079
2430.000000	0.987030
2429.000000	0.986983
2428.000000	0.986942
2427.000000	0.986909
2426.000000	0.986883
2425.000000	0.986852
2424.000000	0.986804
2423.000000	0.986738
2422.000000	0.986666
2421.000000	0.986596
2420.000000	0.986532
2419.000000	0.986480
2418.000000	0.986447
2417.000000	0.986424
2416.000000	0.986394
2415.000000	0.986345
2414.000000	0.986288
2413.000000	0.986242
2412.000000	0.986210
2411.000000	0.986183
2410.000000	0.986144
2409.000000	0.986093
2408.000000	0.986041
2407.000000	0.986001
2406.000000	0.985976
2405.000000	0.985952
2404.000000	0.985913
2403.000000	0.985863
2402.000000	0.985819
2401.000000	0.985791
2400.000000	0.985774
2399.000000	0.985760
2398.000000	0.985747
2397.000000	0.985728
2396.000000	0.985700
2395.000000	0.985664
2394.000000	0.985630
2393.000000	0.985605
2392.000000	0.985588
2391.000000	0.985578
2390.000000	0.985575
2389.000000	0.985572
2388.000000	0.985558
2387.000000	0.985532
2386.000000	0.985504
2385.000000	0.985486
2384.000000	0.985474
2383.000000	0.985451
2382.000000	0.985402
2381.000000	0.985321
2380.000000	0.985216
2379.000000	0.985103
2378.000000	0.984993
2377.000000	0.984878
2376.000000	0.984739
2375.000000	0.984574
2374.000000	0.984394
2373.000000	0.984202
2372.000000	0.983986
2371.000000	0.983738
2370.000000	0.983478
2369.000000	0.983232
2368.000000	0.983015
2367.000000	0.982825
2366.000000	0.982662
2365.000000	0.982524
2364.000000	0.982411
2363.000000	0.982334
2362.000000	0.982314
2361.000000	0.982356
2360.000000	0.982448
2359.000000	0.982572
2358.000000	0.982734
2357.000000	0.982948
2356.000000	0.983213
2355.000000	0.983517
2354.000000	0.983853
2353.000000	0.984223
2352.000000	0.984621
2351.000000	0.985014
2350.000000	0.985357
2349.000000	0.985614
2348.000000	0.985795
2347.000000	0.985969
2346.000000	0.986236
2345.000000	0.986659
2344.000000	0.987221
2343.000000	0.987830
2342.000000	0.988351
2341.000000	0.988630
2340.000000	0.988548
2339.000000	0.988091
2338.000000	0.987383
2337.000000	0.986621
2336.000000	0.985969
2335.000000	0.985503
2334.000000	0.985225
2333.000000	0.985095
2332.000000	0.985053
2331.000000	0.985049
2330.000000	0.985072
2329.000000	0.985139
2328.000000	0.985256
2327.000000	0.985401
2326.000000	0.985546
2325.000000	0.985679
2324.000000	0.985799
2323.000000	0.985913
2322.000000	0.986037
2321.000000	0.986180
2320.000000	0.986337
2319.000000	0.986487
2318.000000	0.986613
2317.000000	0.986718
2316.000000	0.986815
2315.000000	0.986917
2314.000000	0.987026
2313.000000	0.987134
2312.000000	0.987230
2311.000000	0.987311
2310.000000	0.987385
2309.000000	0.987462
2308.000000	0.987533
2307.000000	0.987591
2306.000000	0.987643
2305.000000	0.987704
2304.000000	0.987780
2303.000000	0.987855
2302.000000	0.987922
2301.000000	0.987986
2300.000000	0.988057
2299.000000	0.988133
2298.000000	0.988208
2297.000000	0.988274
2296.000000	0.988320
2295.000000	0.988343
2294.000000	0.988358
2293.000000	0.988388
2292.000000	0.988437
2291.000000	0.988486
2290.000000	0.988516
2289.000000	0.988531
2288.000000	0.988550
2287.000000	0.988586
2286.000000	0.988637
2285.000000	0.988693
2284.000000	0.988739
2283.000000	0.988765
2282.000000	0.988783
2281.000000	0.988820
2280.000000	0.988893
2279.000000	0.988990
2278.000000	0.989081
2277.000000	0.989149
2276.000000	0.989190
2275.000000	0.989207
2274.000000	0.989201
2273.000000	0.989186
2272.000000	0.989183
2271.000000	0.989206
2270.000000	0.989251
2269.000000	0.989298
2268.000000	0.989328
2267.000000	0.989342
2266.000000	0.989356
2265.000000	0.989386
2264.000000	0.989432
2263.000000	0.989480
2262.000000	0.989517
2261.000000	0.989538
2260.000000	0.989551
2259.000000	0.989568
2258.000000	0.989601
2257.000000	0.989647
2256.000000	0.989693
2255.000000	0.989731
2254.000000	0.989766
2253.000000	0.989811
2252.000000	0.989866
2251.000000	0.989913
2250.000000	0.989941
2249.000000	0.989955
2248.000000	0.989969
2247.000000	0.989988
2246.000000	0.990011
2245.000000	0.990031
2244.000000	0.990040
2243.000000	0.990034
2242.000000	0.990025
2241.000000	0.990034
2240.000000	0.990073
2239.000000	0.990125
2238.000000	0.990165
2237.000000	0.990181
2236.000000	0.990183
2235.000000	0.990183
2234.000000	0.990188
2233.000000	0.990195
2232.000000	0.990206
2231.000000	0.990223
2230.000000	0.990253
2229.000000	0.990291
2228.000000	0.990331
2227.000000	0.990358
2226.000000	0.990367
2225.000000	0.990360
2224.000000	0.990351
2223.000000	0.990354
2222.000000	0.990377
2221.000000	0.990415
2220.000000	0.990452
2219.000000	0.990474
2218.000000	0.990479
2217.000000	0.990473
2216.000000	0.990464
2215.000000	0.990463
2214.000000	0.990479
2213.000000	0.990516
2212.000000	0.990562
2211.000000	0.990597
2210.000000	0.990609
2209.000000	0.990603
2208.000000	0.990599
2207.000000	0.990605
2206.000000	0.990609
2205.000000	0.990597
2204.000000	0.990567
2203.000000	0.990535
2202.000000	0.990522
2201.000000	0.990523
2200.000000	0.990517
2199.000000	0.990490
2198.000000	0.990453
2197.000000	0.990427
2196.000000	0.990421
2195.000000	0.990429
2194.000000	0.990436
2193.000000	0.990438
2192.000000	0.990437
2191.000000	0.990437
2190.000000	0.990436
2189.000000	0.990428
2188.000000	0.990406
2187.000000	0.990370
2186.000000	0.990330
2185.000000	0.990293
2184.000000	0.990262
2183.000000	0.990239
2182.000000	0.990228
2181.000000	0.990228
2180.000000	0.990229
2179.000000	0.990215
2178.000000	0.990188
2177.000000	0.990157
2176.000000	0.990126
2175.000000	0.990089
2174.000000	0.990048
2173.000000	0.990013
2172.000000	0.989996
2171.000000	0.989990
2170.000000	0.989980
2169.000000	0.989950
2168.000000	0.989900
2167.000000	0.989843
2166.000000	0.989798
2165.000000	0.989776
2164.000000	0.989773
2163.000000	0.989773
2162.000000	0.989758
2161.000000	0.989723
2160.000000	0.989673
2159.000000	0.989619
2158.000000	0.989566
2157.000000	0.989512
2156.000000	0.989456
2155.000000	0.989402
2154.000000	0.989360
2153.000000	0.989332
2152.000000	0.989304
2151.000000	0.989260
2150.000000	0.989195
2149.000000	0.989121
2148.000000	0.989057
2147.000000	0.989015
2146.000000	0.988989
2145.000000	0.988958
2144.000000	0.988908
2143.000000	0.988840
2142.000000	0.988764
2141.000000	0.988688
2140.000000	0.988607
2139.000000	0.988524
2138.000000	0.988450
2137.000000	0.988391
2136.000000	0.988336
2135.000000	0.988271
2134.000000	0.988193
2133.000000	0.988120
2132.000000	0.988063
2131.000000	0.988016
2130.000000	0.987961
2129.000000	0.987887
2128.000000	0.987804
2127.000000	0.987725
2126.000000	0.987653
2125.000000	0.987575
2124.000000	0.987479
2123.000000	0.987376
2122.000000	0.987288
2121.000000	0.987224
2120.000000	0.987170
2119.000000	0.987105
2118.000000	0.987024
2117.000000	0.986928
2116.000000	0.986819
2115.000000	0.986705
2114.000000	0.986598
2113.000000	0.986506
2112.000000	0.986420
2111.000000	0.986329
2110.000000	0.986232
2109.000000	0.986136
2108.000000	0.986036
2107.000000	0.985923
2106.000000	0.985800
2105.000000	0.985679
2104.000000	0.985570
2103.000000	0.985471
2102.000000	0.985374
2101.000000	0.985275
2100.000000	0.985172
2099.000000	0.985067
2098.000000	0.984966
2097.000000	0.984876
2096.000000	0.984789
2095.000000	0.984688
2094.000000	0.984567
2093.000000	0.984429
2092.000000	0.984287
2091.000000	0.984152
2090.000000	0.984033
2089.000000	0.983930
2088.000000	0.983834
2087.000000	0.983732
2086.000000	0.983621
2085.000000	0.983504
2084.000000	0.983380
2083.000000	0.983248
2082.000000	0.983117
2081.000000	0.983002
2080.000000	0.982902
2079.000000	0.982799
2078.000000	0.982672
2077.000000	0.982519
2076.000000	0.982361
2075.000000	0.982221
2074.000000	0.982114
2073.000000	0.982032
2072.000000	0.981956
2071.000000	0.981865
2070.000000	0.981751
2069.000000	0.981623
2068.000000	0.981492
2067.000000	0.981362
2066.000000	0.981231
2065.000000	0.981099
2064.000000	0.980970
2063.000000	0.980845
2062.000000	0.980721
2061.000000	0.980591
2060.000000	0.980453
2059.000000	0.980316
2058.000000	0.980185
2057.000000	0.980061
2056.000000	0.979940
2055.000000	0.979825
2054.000000	0.979717
2053.000000	0.979612
2052.000000	0.979498
2051.000000	0.979373
2050.000000	0.979238
2049.000000	0.979095
2048.000000	0.978946
2047.000000	0.978805
2046.000000	0.978684
2045.000000	0.978583
2044.000000	0.978487
2043.000000	0.978382
2042.000000	0.978271
2041.000000	0.978160
2040.000000	0.978046
2039.000000	0.977926
2038.000000	0.977799
2037.000000	0.977674
2036.000000	0.977557
2035.000000	0.977457
2034.000000	0.977375
2033.000000	0.977296
2032.000000	0.977199
2031.000000	0.977072
2030.000000	0.976927
2029.000000	0.976784
2028.000000	0.976654
2027.000000	0.976543
2026.000000	0.976460
2025.000000	0.976400
2024.000000	0.976341
2023.000000	0.976259
2022.000000	0.976155
2021.000000	0.976043
2020.000000	0.975935
2019.000000	0.975832
2018.000000	0.975730
2017.000000	0.975625
2016.000000	0.975516
2015.000000	0.975404
2014.000000	0.975293
2013.000000	0.975186
2012.000000	0.975085
2011.000000	0.974992
2010.000000	0.974911
2009.000000	0.974837
2008.000000	0.974760
2007.000000	0.974678
2006.000000	0.974605
2005.000000	0.974550
2004.000000	0.974499
2003.000000	0.974434
2002.000000	0.974352
2001.000000	0.974266
2000.000000	0.974188
1999.000000	0.974118
1998.000000	0.974053
1997.000000	0.973991
1996.000000	0.973924
1995.000000	0.973837
1994.000000	0.973727
1993.000000	0.973608
1992.000000	0.973508
1991.000000	0.973445
1990.000000	0.973419
1989.000000	0.973405
1988.000000	0.973375
1987.000000	0.973316
1986.000000	0.973244
1985.000000	0.973177
1984.000000	0.973118
1983.000000	0.973060
1982.000000	0.972996
1981.000000	0.972929
1980.000000	0.972861
1979.000000	0.972795
1978.000000	0.972738
1977.000000	0.972692
1976.000000	0.972652
1975.000000	0.972613
1974.000000	0.972574
1973.000000	0.972536
1972.000000	0.972496
1971.000000	0.972445
1970.000000	0.972383
1969.000000	0.972317
1968.000000	0.972259
1967.000000	0.972219
1966.000000	0.972193
1965.000000	0.972168
1964.000000	0.972131
1963.000000	0.972088
1962.000000	0.972052
1961.000000	0.972028
1960.000000	0.972003
1959.000000	0.971965
1958.000000	0.971919
1957.000000	0.971871
1956.000000	0.971819
1955.000000	0.971766
1954.000000	0.971725
1953.000000	0.971704
1952.000000	0.971695
1951.000000	0.971684
1950.000000	0.971668
1949.000000	0.971655
1948.000000	0.971645
1947.000000	0.971631
1946.000000	0.971605
1945.000000	0.971569
1944.000000	0.971526
1943.000000	0.971491
1942.000000	0.971483
1941.000000	0.971502
1940.000000	0.971525
1939.000000	0.971528
1938.000000	0.971513
1937.000000	0.971491
1936.000000	0.971470
1935.000000	0.971453
1934.000000	0.971456
1933.000000	0.971487
1932.000000	0.971527
1931.000000	0.971547
1930.000000	0.971533
1929.000000	0.971495
1928.000000	0.971455
1927.000000	0.971424
1926.000000	0.971411
1925.000000	0.971405
1924.000000	0.971394
1923.000000	0.971377
1922.000000	0.971368
1921.000000	0.971374
1920.000000	0.971378
1919.000000	0.971368
1918.000000	0.971362
1917.000000	0.971391
1916.000000	0.971452
1915.000000	0.971509
1914.000000	0.971537
1913.000000	0.971539
1912.000000	0.971533
1911.000000	0.971528
1910.000000	0.971535
1909.000000	0.971557
1908.000000	0.971586
1907.000000	0.971609
1906.000000	0.971626
1905.000000	0.971642
1904.000000	0.971659
1903.000000	0.971674
1902.000000	0.971696
1901.000000	0.971736
1900.000000	0.971784
1899.000000	0.971820
1898.000000	0.971830
1897.000000	0.971823
1896.000000	0.971812
1895.000000	0.971812
1894.000000	0.971830
1893.000000	0.971861
1892.000000	0.971881
1891.000000	0.971877
1890.000000	0.971866
1889.000000	0.971877
1888.000000	0.971917
1887.000000	0.971968
1886.000000	0.972012
1885.000000	0.972048
1884.000000	0.972077
1883.000000	0.972095
1882.000000	0.972112
1881.000000	0.972138
1880.000000	0.972172
1879.000000	0.972209
1878.000000	0.972248
1877.000000	0.972296
1876.000000	0.972342
1875.000000	0.972374
1874.000000	0.972392
1873.000000	0.972405
1872.000000	0.972402
1871.000000	0.972366
1870.000000	0.972318
1869.000000	0.972309
1868.000000	0.972365
1867.000000	0.972470
1866.000000	0.972587
1865.000000	0.972695
1864.000000	0.972780
1863.000000	0.972836
1862.000000	0.972872
1861.000000	0.972912
1860.000000	0.972960
1859.000000	0.973004
1858.000000	0.973038
1857.000000	0.973071
1856.000000	0.973114
1855.000000	0.973161
1854.000000	0.973215
1853.000000	0.973287
1852.000000	0.973370
1851.000000	0.973436
1850.000000	0.973474
1849.000000	0.973503
1848.000000	0.973528
1847.000000	0.973520
1846.000000	0.973457
1845.000000	0.973385
1844.000000	0.973393
1843.000000	0.973528
1842.000000	0.973740
1841.000000	0.973937
1840.000000	0.974061
1839.000000	0.974126
1838.000000	0.974181
1837.000000	0.974258
1836.000000	0.974351
1835.000000	0.974442
1834.000000	0.974519
1833.000000	0.974572
1832.000000	0.974589
1831.000000	0.974586
1830.000000	0.974612
1829.000000	0.974702
1828.000000	0.974833
1827.000000	0.974950
1826.000000	0.975038
1825.000000	0.975131
1824.000000	0.975257
1823.000000	0.975405
1822.000000	0.975545
1821.000000	0.975664
1820.000000	0.975766
1819.000000	0.975853
1818.000000	0.975934
1817.000000	0.976026
1816.000000	0.976137
1815.000000	0.976248
1814.000000	0.976343
1813.000000	0.976418
1812.000000	0.976485
1811.000000	0.976553
1810.000000	0.976637
1809.000000	0.976746
1808.000000	0.976869
1807.000000	0.976986
1806.000000	0.977089
1805.000000	0.977187
1804.000000	0.977272
1803.000000	0.977329
1802.000000	0.977367
1801.000000	0.977430
1800.000000	0.977548
1799.000000	0.977703
1798.000000	0.977859
1797.000000	0.977991
1796.000000	0.978071
1795.000000	0.978074
1794.000000	0.978020
1793.000000	0.977995
1792.000000	0.978090
1791.000000	0.978318
1790.000000	0.978605
1789.000000	0.978861
1788.000000	0.979037
1787.000000	0.979140
1786.000000	0.979216
1785.000000	0.979313
1784.000000	0.979445
1783.000000	0.979583
1782.000000	0.979701
1781.000000	0.979812
1780.000000	0.979949
1779.000000	0.980119
1778.000000	0.980301
1777.000000	0.980455
1776.000000	0.980533
1775.000000	0.980498
1774.000000	0.980383
1773.000000	0.980316
1772.000000	0.980424
1771.000000	0.980702
1770.000000	0.981021
1769.000000	0.981271
1768.000000	0.981464
1767.000000	0.981667
1766.000000	0.981896
1765.000000	0.982090
1764.000000	0.982194
1763.000000	0.982239
1762.000000	0.982312
1761.000000	0.982472
1760.000000	0.982688
1759.000000	0.982879
1758.000000	0.983005
1757.000000	0.983115
1756.000000	0.983272
1755.000000	0.983459
1754.000000	0.983583
1753.000000	0.983585
1752.000000	0.983524
1751.000000	0.983528
1750.000000	0.983670
1749.000000	0.983922
1748.000000	0.984206
1747.000000	0.984465
1746.000000	0.984681
1745.000000	0.984851
1744.000000	0.984978
1743.000000	0.985065
1742.000000	0.985110
1741.000000	0.985134
1740.000000	0.985196
1739.000000	0.985347
1738.000000	0.985533
1737.000000	0.985594
1736.000000	0.985424
1735.000000	0.985143
1734.000000	0.985033
1733.000000	0.985258
1732.000000	0.985703
1731.000000	0.986128
1730.000000	0.986410
1729.000000	0.986594
1728.000000	0.986755
1727.000000	0.986904
1726.000000	0.987022
1725.000000	0.987106
1724.000000	0.987169
1723.000000	0.987220
1722.000000	0.987246
1721.000000	0.987198
1720.000000	0.987005
1719.000000	0.986677
1718.000000	0.986379
1717.000000	0.986324
1716.000000	0.986561
1715.000000	0.986945
1714.000000	0.987303
1713.000000	0.987566
1712.000000	0.987736
1711.000000	0.987813
1710.000000	0.987815
1709.000000	0.987790
1708.000000	0.987758
1707.000000	0.987698
1706.000000	0.987628
1705.000000	0.987612
1704.000000	0.987623
1703.000000	0.987498
1702.000000	0.987156
1701.000000	0.986786
1700.000000	0.986674
1699.000000	0.986838
1698.000000	0.987011
1697.000000	0.987008
1696.000000	0.986974
1695.000000	0.987165
1694.000000	0.987608
1693.000000	0.988066
1692.000000	0.988319
1691.000000	0.988360
1690.000000	0.988325
1689.000000	0.988291
1688.000000	0.988182
1687.000000	0.987870
1686.000000	0.987379
1685.000000	0.986971
1684.000000	0.986940
1683.000000	0.987324
1682.000000	0.987861
1681.000000	0.988267
1680.000000	0.988458
1679.000000	0.988497
1678.000000	0.988427
1677.000000	0.988255
1676.000000	0.988067
1675.000000	0.988013
1674.000000	0.988129
1673.000000	0.988275
1672.000000	0.988287
1671.000000	0.988169
1670.000000	0.988073
1669.000000	0.988128
1668.000000	0.988325
1667.000000	0.988554
1666.000000	0.988698
1665.000000	0.988705
1664.000000	0.988610
1663.000000	0.988518
1662.000000	0.988523
1661.000000	0.988625
1660.000000	0.988743
1659.000000	0.988815
1658.000000	0.988822
1657.000000	0.988704
1656.000000	0.988325
1655.000000	0.987642
1654.000000	0.986904
1653.000000	0.986569
1652.000000	0.986885
1651.000000	0.987617
1650.000000	0.988259
1649.000000	0.988491
1648.000000	0.988377
1647.000000	0.988202
1646.000000	0.988193
1645.000000	0.988384
1644.000000	0.988666
1643.000000	0.988901
1642.000000	0.989024
1641.000000	0.989058
1640.000000	0.989042
1639.000000	0.988939
1638.000000	0.988682
1637.000000	0.988317
1636.000000	0.988046
1635.000000	0.988061
1634.000000	0.988350
1633.000000	0.988720
1632.000000	0.988983
1631.000000	0.989084
1630.000000	0.989077
1629.000000	0.989036
1628.000000	0.989004
1627.000000	0.988984
1626.000000	0.988945
1625.000000	0.988862
1624.000000	0.988765
1623.000000	0.988725
1622.000000	0.988775
1621.000000	0.988851
1620.000000	0.988823
1619.000000	0.988616
1618.000000	0.988311
1617.000000	0.988120
1616.000000	0.988214
1615.000000	0.988559
1614.000000	0.988945
1613.000000	0.989184
1612.000000	0.989247
1611.000000	0.989227
1610.000000	0.989201
1609.000000	0.989182
1608.000000	0.989169
1607.000000	0.989172
1606.000000	0.989192
1605.000000	0.989205
1604.000000	0.989199
1603.000000	0.989193
1602.000000	0.989203
1601.000000	0.989224
1600.000000	0.989245
1599.000000	0.989260
1598.000000	0.989270
1597.000000	0.989271
1596.000000	0.989268
1595.000000	0.989272
1594.000000	0.989282
1593.000000	0.989288
1592.000000	0.989279
1591.000000	0.989268
1590.000000	0.989269
1589.000000	0.989287
1588.000000	0.989313
1587.000000	0.989337
1586.000000	0.989353
1585.000000	0.989362
1584.000000	0.989371
1583.000000	0.989389
1582.000000	0.989410
1581.000000	0.989412
1580.000000	0.989339
1579.000000	0.989121
1578.000000	0.988750
1577.000000	0.988365
1576.000000	0.988200
1575.000000	0.988379
1574.000000	0.988762
1573.000000	0.989063
1572.000000	0.989111
1571.000000	0.988976
1570.000000	0.988848
1569.000000	0.988844
1568.000000	0.988942
1567.000000	0.989058
1566.000000	0.989140
1565.000000	0.989184
1564.000000	0.989182
1563.000000	0.989057
1562.000000	0.988686
1561.000000	0.988056
1560.000000	0.987405
1559.000000	0.987109
1558.000000	0.987328
1557.000000	0.987846
1556.000000	0.988311
1555.000000	0.988573
1554.000000	0.988727
1553.000000	0.988882
1552.000000	0.989021
1551.000000	0.989086
1550.000000	0.989095
1549.000000	0.989101
1548.000000	0.989100
1547.000000	0.989047
1546.000000	0.988919
1545.000000	0.988734
1544.000000	0.988497
1543.000000	0.988186
1542.000000	0.987807
1541.000000	0.987457
1540.000000	0.987319
1539.000000	0.987536
1538.000000	0.988051
1537.000000	0.988600
1536.000000	0.988907
1535.000000	0.988919
1534.000000	0.988820
1533.000000	0.988812
1532.000000	0.988926
1531.000000	0.989060
1530.000000	0.989121
1529.000000	0.989083
1528.000000	0.988965
1527.000000	0.988824
1526.000000	0.988729
1525.000000	0.988686
1524.000000	0.988596
1523.000000	0.988387
1522.000000	0.988150
1521.000000	0.988074
1520.000000	0.988224
1519.000000	0.988464
1518.000000	0.988629
1517.000000	0.988704
1516.000000	0.988774
1515.000000	0.988877
1514.000000	0.988967
1513.000000	0.989003
1512.000000	0.988994
1511.000000	0.988935
1510.000000	0.988757
1509.000000	0.988399
1508.000000	0.987937
1507.000000	0.987601
1506.000000	0.987626
1505.000000	0.988039
1504.000000	0.988624
1503.000000	0.989102
1502.000000	0.989342
1501.000000	0.989392
1500.000000	0.989344
