PE IR       SUBTECH     SPECTRUM    ASCII       PEDS        4.00        
   -1
TE108B1_030.ASC
20/02/21
16:05:51.00
20/02/21
16:05:51.00
Administrator
Sample 030 By Administrator Date Friday, February 21 2020
1500.000000
#HDR
-1
-1
#GR
cm-1
A
1.0
0.0
4000.000000
-1.000000
2501
8
0.919399
0.885666
#DATA
4000.000000	0.894539
3999.000000	0.894535
3998.000000	0.894502
3997.000000	0.894450
3996.000000	0.894397
3995.000000	0.894358
3994.000000	0.894341
3993.000000	0.894343
3992.000000	0.894351
3991.000000	0.894352
3990.000000	0.894338
3989.000000	0.894315
3988.000000	0.894293
3987.000000	0.894279
3986.000000	0.894269
3985.000000	0.894252
3984.000000	0.894225
3983.000000	0.894194
3982.000000	0.894172
3981.000000	0.894162
3980.000000	0.894151
3979.000000	0.894127
3978.000000	0.894086
3977.000000	0.894045
3976.000000	0.894023
3975.000000	0.894025
3974.000000	0.894035
3973.000000	0.894032
3972.000000	0.894006
3971.000000	0.893971
3970.000000	0.893951
3969.000000	0.893958
3968.000000	0.893981
3967.000000	0.893994
3966.000000	0.893974
3965.000000	0.893919
3964.000000	0.893846
3963.000000	0.893783
3962.000000	0.893742
3961.000000	0.893718
3960.000000	0.893691
3959.000000	0.893648
3958.000000	0.893590
3957.000000	0.893531
3956.000000	0.893486
3955.000000	0.893459
3954.000000	0.893437
3953.000000	0.893407
3952.000000	0.893366
3951.000000	0.893320
3950.000000	0.893284
3949.000000	0.893259
3948.000000	0.893237
3947.000000	0.893209
3946.000000	0.893166
3945.000000	0.893112
3944.000000	0.893056
3943.000000	0.893011
3942.000000	0.892987
3941.000000	0.892981
3940.000000	0.892981
3939.000000	0.892976
3938.000000	0.892961
3937.000000	0.892940
3936.000000	0.892915
3935.000000	0.892878
3934.000000	0.892821
3933.000000	0.892747
3932.000000	0.892674
3931.000000	0.892631
3930.000000	0.892627
3929.000000	0.892648
3928.000000	0.892662
3927.000000	0.892643
3926.000000	0.892591
3925.000000	0.892524
3924.000000	0.892465
3923.000000	0.892420
3922.000000	0.892374
3921.000000	0.892312
3920.000000	0.892228
3919.000000	0.892137
3918.000000	0.892059
3917.000000	0.892009
3916.000000	0.891991
3915.000000	0.891994
3914.000000	0.891999
3913.000000	0.891988
3912.000000	0.891952
3911.000000	0.891899
3910.000000	0.891844
3909.000000	0.891795
3908.000000	0.891746
3907.000000	0.891682
3906.000000	0.891589
3905.000000	0.891472
3904.000000	0.891352
3903.000000	0.891257
3902.000000	0.891196
3901.000000	0.891164
3900.000000	0.891151
3899.000000	0.891158
3898.000000	0.891188
3897.000000	0.891234
3896.000000	0.891276
3895.000000	0.891289
3894.000000	0.891256
3893.000000	0.891184
3892.000000	0.891105
3891.000000	0.891060
3890.000000	0.891066
3889.000000	0.891093
3888.000000	0.891083
3887.000000	0.891003
3886.000000	0.890878
3885.000000	0.890773
3884.000000	0.890737
3883.000000	0.890753
3882.000000	0.890757
3881.000000	0.890702
3880.000000	0.890605
3879.000000	0.890527
3878.000000	0.890514
3877.000000	0.890551
3876.000000	0.890592
3875.000000	0.890595
3874.000000	0.890552
3873.000000	0.890461
3872.000000	0.890327
3871.000000	0.890170
3870.000000	0.890040
3869.000000	0.889985
3868.000000	0.890009
3867.000000	0.890049
3866.000000	0.890032
3865.000000	0.889933
3864.000000	0.889804
3863.000000	0.889724
3862.000000	0.889729
3861.000000	0.889799
3860.000000	0.889879
3859.000000	0.889928
3858.000000	0.889909
3857.000000	0.889782
3856.000000	0.889518
3855.000000	0.889140
3854.000000	0.888760
3853.000000	0.888525
3852.000000	0.888530
3851.000000	0.888749
3850.000000	0.889057
3849.000000	0.889320
3848.000000	0.889462
3847.000000	0.889490
3846.000000	0.889446
3845.000000	0.889373
3844.000000	0.889301
3843.000000	0.889246
3842.000000	0.889202
3841.000000	0.889136
3840.000000	0.889007
3839.000000	0.888814
3838.000000	0.888616
3837.000000	0.888493
3836.000000	0.888487
3835.000000	0.888566
3834.000000	0.888662
3833.000000	0.888723
3832.000000	0.888745
3831.000000	0.888754
3830.000000	0.888767
3829.000000	0.888776
3828.000000	0.888763
3827.000000	0.888731
3826.000000	0.888694
3825.000000	0.888651
3824.000000	0.888573
3823.000000	0.888435
3822.000000	0.888256
3821.000000	0.888107
3820.000000	0.888048
3819.000000	0.888059
3818.000000	0.888057
3817.000000	0.887975
3816.000000	0.887846
3815.000000	0.887775
3814.000000	0.887833
3813.000000	0.887990
3812.000000	0.888147
3811.000000	0.888224
3810.000000	0.888201
3809.000000	0.888098
3808.000000	0.887951
3807.000000	0.887810
3806.000000	0.887732
3805.000000	0.887728
3804.000000	0.887736
3803.000000	0.887669
3802.000000	0.887511
3801.000000	0.887351
3800.000000	0.887300
3799.000000	0.887387
3798.000000	0.887534
3797.000000	0.887644
3796.000000	0.887676
3795.000000	0.887660
3794.000000	0.887639
3793.000000	0.887627
3792.000000	0.887610
3791.000000	0.887576
3790.000000	0.887532
3789.000000	0.887495
3788.000000	0.887474
3787.000000	0.887468
3786.000000	0.887463
3785.000000	0.887448
3784.000000	0.887417
3783.000000	0.887373
3782.000000	0.887322
3781.000000	0.887265
3780.000000	0.887212
3779.000000	0.887181
3778.000000	0.887184
3777.000000	0.887214
3776.000000	0.887241
3775.000000	0.887237
3774.000000	0.887198
3773.000000	0.887133
3772.000000	0.887054
3771.000000	0.886972
3770.000000	0.886904
3769.000000	0.886868
3768.000000	0.886869
3767.000000	0.886888
3766.000000	0.886904
3765.000000	0.886910
3764.000000	0.886909
3763.000000	0.886897
3762.000000	0.886856
3761.000000	0.886783
3760.000000	0.886698
3759.000000	0.886637
3758.000000	0.886624
3757.000000	0.886650
3756.000000	0.886672
3755.000000	0.886635
3754.000000	0.886507
3753.000000	0.886295
3752.000000	0.886056
3751.000000	0.885867
3750.000000	0.885797
3749.000000	0.885860
3748.000000	0.885993
3747.000000	0.886074
3746.000000	0.886011
3745.000000	0.885826
3744.000000	0.885666
3743.000000	0.885684
3742.000000	0.885904
3741.000000	0.886200
3740.000000	0.886407
3739.000000	0.886444
3738.000000	0.886349
3737.000000	0.886219
3736.000000	0.886132
3735.000000	0.886116
3734.000000	0.886152
3733.000000	0.886197
3732.000000	0.886233
3731.000000	0.886272
3730.000000	0.886340
3729.000000	0.886430
3728.000000	0.886504
3727.000000	0.886525
3726.000000	0.886503
3725.000000	0.886478
3724.000000	0.886484
3723.000000	0.886521
3722.000000	0.886569
3721.000000	0.886611
3720.000000	0.886643
3719.000000	0.886666
3718.000000	0.886689
3717.000000	0.886720
3716.000000	0.886755
3715.000000	0.886767
3714.000000	0.886724
3713.000000	0.886623
3712.000000	0.886511
3711.000000	0.886458
3710.000000	0.886508
3709.000000	0.886650
3708.000000	0.886831
3707.000000	0.886996
3706.000000	0.887117
3705.000000	0.887192
3704.000000	0.887234
3703.000000	0.887260
3702.000000	0.887286
3701.000000	0.887333
3700.000000	0.887412
3699.000000	0.887518
3698.000000	0.887630
3697.000000	0.887728
3696.000000	0.887801
3695.000000	0.887851
3694.000000	0.887874
3693.000000	0.887863
3692.000000	0.887814
3691.000000	0.887731
3690.000000	0.887639
3689.000000	0.887583
3688.000000	0.887619
3687.000000	0.887775
3686.000000	0.888023
3685.000000	0.888288
3684.000000	0.888499
3683.000000	0.888631
3682.000000	0.888710
3681.000000	0.888773
3680.000000	0.888838
3679.000000	0.888883
3678.000000	0.888872
3677.000000	0.888788
3676.000000	0.888682
3675.000000	0.888651
3674.000000	0.888765
3673.000000	0.888987
3672.000000	0.889207
3671.000000	0.889338
3670.000000	0.889405
3669.000000	0.889500
3668.000000	0.889689
3667.000000	0.889950
3666.000000	0.890219
3665.000000	0.890449
3664.000000	0.890631
3663.000000	0.890781
3662.000000	0.890918
3661.000000	0.891058
3660.000000	0.891204
3659.000000	0.891337
3658.000000	0.891434
3657.000000	0.891495
3656.000000	0.891561
3655.000000	0.891680
3654.000000	0.891860
3653.000000	0.892048
3652.000000	0.892174
3651.000000	0.892209
3650.000000	0.892205
3649.000000	0.892251
3648.000000	0.892412
3647.000000	0.892692
3646.000000	0.893038
3645.000000	0.893382
3644.000000	0.893670
3643.000000	0.893887
3642.000000	0.894050
3641.000000	0.894192
3640.000000	0.894342
3639.000000	0.894505
3638.000000	0.894677
3637.000000	0.894847
3636.000000	0.895013
3635.000000	0.895182
3634.000000	0.895364
3633.000000	0.895545
3632.000000	0.895688
3631.000000	0.895748
3630.000000	0.895736
3629.000000	0.895732
3628.000000	0.895839
3627.000000	0.896098
3626.000000	0.896453
3625.000000	0.896806
3624.000000	0.897083
3623.000000	0.897263
3622.000000	0.897368
3621.000000	0.897428
3620.000000	0.897481
3619.000000	0.897571
3618.000000	0.897725
3617.000000	0.897933
3616.000000	0.898150
3615.000000	0.898335
3614.000000	0.898479
3613.000000	0.898606
3612.000000	0.898740
3611.000000	0.898883
3610.000000	0.899023
3609.000000	0.899159
3608.000000	0.899313
3607.000000	0.899504
3606.000000	0.899724
3605.000000	0.899934
3604.000000	0.900101
3603.000000	0.900224
3602.000000	0.900329
3601.000000	0.900443
3600.000000	0.900569
3599.000000	0.900697
3598.000000	0.900819
3597.000000	0.900941
3596.000000	0.901065
3595.000000	0.901186
3594.000000	0.901293
3593.000000	0.901384
3592.000000	0.901464
3591.000000	0.901533
3590.000000	0.901583
3589.000000	0.901609
3588.000000	0.901623
3587.000000	0.901656
3586.000000	0.901730
3585.000000	0.901845
3584.000000	0.901978
3583.000000	0.902107
3582.000000	0.902222
3581.000000	0.902317
3580.000000	0.902389
3579.000000	0.902436
3578.000000	0.902469
3577.000000	0.902503
3576.000000	0.902551
3575.000000	0.902610
3574.000000	0.902668
3573.000000	0.902719
3572.000000	0.902770
3571.000000	0.902822
3570.000000	0.902866
3569.000000	0.902884
3568.000000	0.902869
3567.000000	0.902842
3566.000000	0.902836
3565.000000	0.902871
3564.000000	0.902945
3563.000000	0.903033
3562.000000	0.903114
3561.000000	0.903175
3560.000000	0.903216
3559.000000	0.903241
3558.000000	0.903254
3557.000000	0.903261
3556.000000	0.903269
3555.000000	0.903284
3554.000000	0.903303
3553.000000	0.903318
3552.000000	0.903328
3551.000000	0.903342
3550.000000	0.903371
3549.000000	0.903409
3548.000000	0.903443
3547.000000	0.903466
3546.000000	0.903484
3545.000000	0.903509
3544.000000	0.903543
3543.000000	0.903583
3542.000000	0.903623
3541.000000	0.903655
3540.000000	0.903671
3539.000000	0.903669
3538.000000	0.903655
3537.000000	0.903643
3536.000000	0.903647
3535.000000	0.903678
3534.000000	0.903735
3533.000000	0.903806
3532.000000	0.903871
3531.000000	0.903914
3530.000000	0.903939
3529.000000	0.903966
3528.000000	0.904010
3527.000000	0.904064
3526.000000	0.904107
3525.000000	0.904120
3524.000000	0.904113
3523.000000	0.904107
3522.000000	0.904128
3521.000000	0.904185
3520.000000	0.904271
3519.000000	0.904365
3518.000000	0.904455
3517.000000	0.904536
3516.000000	0.904616
3515.000000	0.904698
3514.000000	0.904779
3513.000000	0.904852
3512.000000	0.904915
3511.000000	0.904975
3510.000000	0.905033
3509.000000	0.905092
3508.000000	0.905154
3507.000000	0.905224
3506.000000	0.905300
3505.000000	0.905370
3504.000000	0.905428
3503.000000	0.905483
3502.000000	0.905553
3501.000000	0.905643
3500.000000	0.905747
3499.000000	0.905851
3498.000000	0.905947
3497.000000	0.906036
3496.000000	0.906125
3495.000000	0.906219
3494.000000	0.906322
3493.000000	0.906431
3492.000000	0.906540
3491.000000	0.906642
3490.000000	0.906734
3489.000000	0.906819
3488.000000	0.906899
3487.000000	0.906983
3486.000000	0.907079
3485.000000	0.907188
3484.000000	0.907300
3483.000000	0.907404
3482.000000	0.907493
3481.000000	0.907576
3480.000000	0.907667
3479.000000	0.907774
3478.000000	0.907895
3477.000000	0.908018
3476.000000	0.908136
3475.000000	0.908247
3474.000000	0.908356
3473.000000	0.908461
3472.000000	0.908561
3471.000000	0.908659
3470.000000	0.908758
3469.000000	0.908862
3468.000000	0.908972
3467.000000	0.909093
3466.000000	0.909230
3465.000000	0.909383
3464.000000	0.909536
3463.000000	0.909666
3462.000000	0.909770
3461.000000	0.909863
3460.000000	0.909964
3459.000000	0.910077
3458.000000	0.910192
3457.000000	0.910298
3456.000000	0.910396
3455.000000	0.910490
3454.000000	0.910581
3453.000000	0.910678
3452.000000	0.910793
3451.000000	0.910936
3450.000000	0.911097
3449.000000	0.911252
3448.000000	0.911379
3447.000000	0.911480
3446.000000	0.911568
3445.000000	0.911659
3444.000000	0.911758
3443.000000	0.911859
3442.000000	0.911958
3441.000000	0.912051
3440.000000	0.912141
3439.000000	0.912232
3438.000000	0.912328
3437.000000	0.912429
3436.000000	0.912533
3435.000000	0.912634
3434.000000	0.912732
3433.000000	0.912833
3432.000000	0.912943
3431.000000	0.913058
3430.000000	0.913165
3429.000000	0.913253
3428.000000	0.913325
3427.000000	0.913397
3426.000000	0.913484
3425.000000	0.913588
3424.000000	0.913700
3423.000000	0.913809
3422.000000	0.913909
3421.000000	0.913998
3420.000000	0.914080
3419.000000	0.914162
3418.000000	0.914256
3417.000000	0.914361
3416.000000	0.914465
3415.000000	0.914552
3414.000000	0.914621
3413.000000	0.914683
3412.000000	0.914754
3411.000000	0.914839
3410.000000	0.914930
3409.000000	0.915014
3408.000000	0.915082
3407.000000	0.915138
3406.000000	0.915195
3405.000000	0.915256
3404.000000	0.915311
3403.000000	0.915345
3402.000000	0.915358
3401.000000	0.915364
3400.000000	0.915381
3399.000000	0.915417
3398.000000	0.915468
3397.000000	0.915530
3396.000000	0.915599
3395.000000	0.915668
3394.000000	0.915724
3393.000000	0.915758
3392.000000	0.915767
3391.000000	0.915767
3390.000000	0.915779
3389.000000	0.915817
3388.000000	0.915881
3387.000000	0.915957
3386.000000	0.916026
3385.000000	0.916075
3384.000000	0.916102
3383.000000	0.916113
3382.000000	0.916116
3381.000000	0.916124
3380.000000	0.916153
3379.000000	0.916201
3378.000000	0.916254
3377.000000	0.916289
3376.000000	0.916300
3375.000000	0.916303
3374.000000	0.916318
3373.000000	0.916351
3372.000000	0.916387
3371.000000	0.916408
3370.000000	0.916403
3369.000000	0.916381
3368.000000	0.916366
3367.000000	0.916376
3366.000000	0.916411
3365.000000	0.916452
3364.000000	0.916477
3363.000000	0.916488
3362.000000	0.916502
3361.000000	0.916531
3360.000000	0.916571
3359.000000	0.916602
3358.000000	0.916611
3357.000000	0.916599
3356.000000	0.916579
3355.000000	0.916574
3354.000000	0.916598
3353.000000	0.916649
3352.000000	0.916706
3351.000000	0.916746
3350.000000	0.916758
3349.000000	0.916747
3348.000000	0.916728
3347.000000	0.916717
3346.000000	0.916722
3345.000000	0.916735
3344.000000	0.916744
3343.000000	0.916743
3342.000000	0.916744
3341.000000	0.916758
3340.000000	0.916784
3339.000000	0.916806
3338.000000	0.916814
3337.000000	0.916811
3336.000000	0.916806
3335.000000	0.916804
3334.000000	0.916804
3333.000000	0.916815
3332.000000	0.916841
3331.000000	0.916876
3330.000000	0.916904
3329.000000	0.916916
3328.000000	0.916915
3327.000000	0.916910
3326.000000	0.916906
3325.000000	0.916906
3324.000000	0.916920
3323.000000	0.916951
3322.000000	0.916990
3321.000000	0.917023
3320.000000	0.917043
3319.000000	0.917060
3318.000000	0.917089
3317.000000	0.917136
3316.000000	0.917192
3315.000000	0.917241
3314.000000	0.917271
3313.000000	0.917283
3312.000000	0.917289
3311.000000	0.917297
3310.000000	0.917309
3309.000000	0.917315
3308.000000	0.917311
3307.000000	0.917304
3306.000000	0.917309
3305.000000	0.917332
3304.000000	0.917366
3303.000000	0.917399
3302.000000	0.917425
3301.000000	0.917449
3300.000000	0.917475
3299.000000	0.917504
3298.000000	0.917532
3297.000000	0.917551
3296.000000	0.917560
3295.000000	0.917565
3294.000000	0.917570
3293.000000	0.917584
3292.000000	0.917609
3291.000000	0.917644
3290.000000	0.917679
3289.000000	0.917702
3288.000000	0.917703
3287.000000	0.917688
3286.000000	0.917673
3285.000000	0.917673
3284.000000	0.917695
3283.000000	0.917731
3282.000000	0.917771
3281.000000	0.917808
3280.000000	0.917837
3279.000000	0.917862
3278.000000	0.917884
3277.000000	0.917902
3276.000000	0.917914
3275.000000	0.917917
3274.000000	0.917918
3273.000000	0.917930
3272.000000	0.917960
3271.000000	0.918000
3270.000000	0.918031
3269.000000	0.918049
3268.000000	0.918066
3267.000000	0.918093
3266.000000	0.918132
3265.000000	0.918173
3264.000000	0.918209
3263.000000	0.918235
3262.000000	0.918249
3261.000000	0.918250
3260.000000	0.918246
3259.000000	0.918243
3258.000000	0.918245
3257.000000	0.918258
3256.000000	0.918290
3255.000000	0.918344
3254.000000	0.918412
3253.000000	0.918473
3252.000000	0.918515
3251.000000	0.918538
3250.000000	0.918550
3249.000000	0.918557
3248.000000	0.918565
3247.000000	0.918576
3246.000000	0.918595
3245.000000	0.918625
3244.000000	0.918661
3243.000000	0.918692
3242.000000	0.918703
3241.000000	0.918689
3240.000000	0.918660
3239.000000	0.918642
3238.000000	0.918648
3237.000000	0.918674
3236.000000	0.918703
3235.000000	0.918729
3234.000000	0.918749
3233.000000	0.918766
3232.000000	0.918785
3231.000000	0.918813
3230.000000	0.918850
3229.000000	0.918886
3228.000000	0.918911
3227.000000	0.918924
3226.000000	0.918930
3225.000000	0.918933
3224.000000	0.918930
3223.000000	0.918923
3222.000000	0.918921
3221.000000	0.918924
3220.000000	0.918927
3219.000000	0.918928
3218.000000	0.918929
3217.000000	0.918935
3216.000000	0.918942
3215.000000	0.918950
3214.000000	0.918958
3213.000000	0.918965
3212.000000	0.918966
3211.000000	0.918959
3210.000000	0.918952
3209.000000	0.918954
3208.000000	0.918968
3207.000000	0.918987
3206.000000	0.919006
3205.000000	0.919028
3204.000000	0.919055
3203.000000	0.919081
3202.000000	0.919096
3201.000000	0.919099
3200.000000	0.919098
3199.000000	0.919101
3198.000000	0.919110
3197.000000	0.919116
3196.000000	0.919112
3195.000000	0.919097
3194.000000	0.919079
3193.000000	0.919067
3192.000000	0.919068
3191.000000	0.919083
3190.000000	0.919104
3189.000000	0.919125
3188.000000	0.919140
3187.000000	0.919146
3186.000000	0.919146
3185.000000	0.919142
3184.000000	0.919139
3183.000000	0.919134
3182.000000	0.919124
3181.000000	0.919103
3180.000000	0.919076
3179.000000	0.919060
3178.000000	0.919064
3177.000000	0.919086
3176.000000	0.919112
3175.000000	0.919135
3174.000000	0.919157
3173.000000	0.919182
3172.000000	0.919204
3171.000000	0.919213
3170.000000	0.919206
3169.000000	0.919184
3168.000000	0.919148
3167.000000	0.919108
3166.000000	0.919076
3165.000000	0.919065
3164.000000	0.919076
3163.000000	0.919101
3162.000000	0.919132
3161.000000	0.919164
3160.000000	0.919193
3159.000000	0.919216
3158.000000	0.919236
3157.000000	0.919252
3156.000000	0.919260
3155.000000	0.919253
3154.000000	0.919237
3153.000000	0.919228
3152.000000	0.919238
3151.000000	0.919262
3150.000000	0.919284
3149.000000	0.919291
3148.000000	0.919284
3147.000000	0.919269
3146.000000	0.919257
3145.000000	0.919254
3144.000000	0.919262
3143.000000	0.919274
3142.000000	0.919285
3141.000000	0.919290
3140.000000	0.919294
3139.000000	0.919300
3138.000000	0.919313
3137.000000	0.919333
3136.000000	0.919349
3135.000000	0.919349
3134.000000	0.919328
3133.000000	0.919302
3132.000000	0.919292
3131.000000	0.919302
3130.000000	0.919320
3129.000000	0.919330
3128.000000	0.919330
3127.000000	0.919328
3126.000000	0.919332
3125.000000	0.919344
3124.000000	0.919362
3123.000000	0.919380
3122.000000	0.919393
3121.000000	0.919399
3120.000000	0.919399
3119.000000	0.919390
3118.000000	0.919368
3117.000000	0.919340
3116.000000	0.919321
3115.000000	0.919326
3114.000000	0.919350
3113.000000	0.919373
3112.000000	0.919375
3111.000000	0.919353
3110.000000	0.919317
3109.000000	0.919282
3108.000000	0.919261
3107.000000	0.919262
3106.000000	0.919279
3105.000000	0.919294
3104.000000	0.919287
3103.000000	0.919257
3102.000000	0.919217
3101.000000	0.919183
3100.000000	0.919164
3099.000000	0.919156
3098.000000	0.919151
3097.000000	0.919139
3096.000000	0.919117
3095.000000	0.919091
3094.000000	0.919069
3093.000000	0.919053
3092.000000	0.919037
3091.000000	0.919015
3090.000000	0.918988
3089.000000	0.918959
3088.000000	0.918931
3087.000000	0.918898
3086.000000	0.918854
3085.000000	0.918805
3084.000000	0.918761
3083.000000	0.918732
3082.000000	0.918715
3081.000000	0.918700
3080.000000	0.918675
3079.000000	0.918643
3078.000000	0.918616
3077.000000	0.918603
3076.000000	0.918604
3075.000000	0.918605
3074.000000	0.918591
3073.000000	0.918555
3072.000000	0.918510
3071.000000	0.918469
3070.000000	0.918436
3069.000000	0.918404
3068.000000	0.918369
3067.000000	0.918337
3066.000000	0.918315
3065.000000	0.918296
3064.000000	0.918269
3063.000000	0.918232
3062.000000	0.918198
3061.000000	0.918177
3060.000000	0.918170
3059.000000	0.918159
3058.000000	0.918131
3057.000000	0.918084
3056.000000	0.918026
3055.000000	0.917973
3054.000000	0.917937
3053.000000	0.917918
3052.000000	0.917902
3051.000000	0.917875
3050.000000	0.917828
3049.000000	0.917768
3048.000000	0.917710
3047.000000	0.917669
3046.000000	0.917648
3045.000000	0.917645
3044.000000	0.917650
3043.000000	0.917655
3042.000000	0.917645
3041.000000	0.917612
3040.000000	0.917565
3039.000000	0.917527
3038.000000	0.917511
3037.000000	0.917505
3036.000000	0.917483
3035.000000	0.917442
3034.000000	0.917396
3033.000000	0.917365
3032.000000	0.917351
3031.000000	0.917338
3030.000000	0.917314
3029.000000	0.917276
3028.000000	0.917233
3027.000000	0.917198
3026.000000	0.917183
3025.000000	0.917189
3024.000000	0.917201
3023.000000	0.917205
3022.000000	0.917187
3021.000000	0.917146
3020.000000	0.917087
3019.000000	0.917026
3018.000000	0.916978
3017.000000	0.916947
3016.000000	0.916921
3015.000000	0.916889
3014.000000	0.916853
3013.000000	0.916824
3012.000000	0.916807
3011.000000	0.916791
3010.000000	0.916766
3009.000000	0.916734
3008.000000	0.916705
3007.000000	0.916685
3006.000000	0.916676
3005.000000	0.916669
3004.000000	0.916653
3003.000000	0.916612
3002.000000	0.916548
3001.000000	0.916483
3000.000000	0.916442
2999.000000	0.916433
2998.000000	0.916440
2997.000000	0.916436
2996.000000	0.916411
2995.000000	0.916364
2994.000000	0.916304
2993.000000	0.916243
2992.000000	0.916196
2991.000000	0.916172
2990.000000	0.916168
2989.000000	0.916171
2988.000000	0.916167
2987.000000	0.916148
2986.000000	0.916116
2985.000000	0.916078
2984.000000	0.916046
2983.000000	0.916029
2982.000000	0.916028
2981.000000	0.916032
2980.000000	0.916035
2979.000000	0.916032
2978.000000	0.916021
2977.000000	0.916004
2976.000000	0.915986
2975.000000	0.915974
2974.000000	0.915965
2973.000000	0.915959
2972.000000	0.915955
2971.000000	0.915954
2970.000000	0.915948
2969.000000	0.915927
2968.000000	0.915889
2967.000000	0.915845
2966.000000	0.915807
2965.000000	0.915778
2964.000000	0.915747
2963.000000	0.915710
2962.000000	0.915671
2961.000000	0.915631
2960.000000	0.915587
2959.000000	0.915537
2958.000000	0.915479
2957.000000	0.915415
2956.000000	0.915343
2955.000000	0.915263
2954.000000	0.915182
2953.000000	0.915114
2952.000000	0.915065
2951.000000	0.915037
2950.000000	0.915023
2949.000000	0.915014
2948.000000	0.914998
2947.000000	0.914970
2946.000000	0.914938
2945.000000	0.914911
2944.000000	0.914890
2943.000000	0.914868
2942.000000	0.914845
2941.000000	0.914827
2940.000000	0.914814
2939.000000	0.914793
2938.000000	0.914760
2937.000000	0.914728
2936.000000	0.914713
2935.000000	0.914712
2934.000000	0.914700
2933.000000	0.914664
2932.000000	0.914610
2931.000000	0.914555
2930.000000	0.914502
2929.000000	0.914451
2928.000000	0.914403
2927.000000	0.914363
2926.000000	0.914324
2925.000000	0.914276
2924.000000	0.914215
2923.000000	0.914147
2922.000000	0.914079
2921.000000	0.914015
2920.000000	0.913950
2919.000000	0.913882
2918.000000	0.913807
2917.000000	0.913724
2916.000000	0.913647
2915.000000	0.913592
2914.000000	0.913566
2913.000000	0.913559
2912.000000	0.913554
2911.000000	0.913537
2910.000000	0.913501
2909.000000	0.913448
2908.000000	0.913392
2907.000000	0.913346
2906.000000	0.913314
2905.000000	0.913283
2904.000000	0.913246
2903.000000	0.913213
2902.000000	0.913191
2901.000000	0.913170
2900.000000	0.913129
2899.000000	0.913064
2898.000000	0.912990
2897.000000	0.912922
2896.000000	0.912864
2895.000000	0.912812
2894.000000	0.912770
2893.000000	0.912739
2892.000000	0.912712
2891.000000	0.912681
2890.000000	0.912644
2889.000000	0.912603
2888.000000	0.912557
2887.000000	0.912505
2886.000000	0.912447
2885.000000	0.912386
2884.000000	0.912327
2883.000000	0.912277
2882.000000	0.912244
2881.000000	0.912230
2880.000000	0.912224
2879.000000	0.912207
2878.000000	0.912171
2877.000000	0.912119
2876.000000	0.912055
2875.000000	0.911984
2874.000000	0.911912
2873.000000	0.911857
2872.000000	0.911830
2871.000000	0.911822
2870.000000	0.911811
2869.000000	0.911779
2868.000000	0.911730
2867.000000	0.911670
2866.000000	0.911601
2865.000000	0.911522
2864.000000	0.911431
2863.000000	0.911335
2862.000000	0.911238
2861.000000	0.911146
2860.000000	0.911068
2859.000000	0.911008
2858.000000	0.910956
2857.000000	0.910894
2856.000000	0.910821
2855.000000	0.910746
2854.000000	0.910682
2853.000000	0.910627
2852.000000	0.910574
2851.000000	0.910524
2850.000000	0.910484
2849.000000	0.910452
2848.000000	0.910425
2847.000000	0.910404
2846.000000	0.910388
2845.000000	0.910369
2844.000000	0.910340
2843.000000	0.910304
2842.000000	0.910275
2841.000000	0.910249
2840.000000	0.910213
2839.000000	0.910163
2838.000000	0.910117
2837.000000	0.910092
2836.000000	0.910080
2835.000000	0.910061
2834.000000	0.910026
2833.000000	0.909983
2832.000000	0.909942
2831.000000	0.909906
2830.000000	0.909876
2829.000000	0.909846
2828.000000	0.909810
2827.000000	0.909766
2826.000000	0.909723
2825.000000	0.909691
2824.000000	0.909670
2823.000000	0.909649
2822.000000	0.909620
2821.000000	0.909585
2820.000000	0.909548
2819.000000	0.909507
2818.000000	0.909461
2817.000000	0.909419
2816.000000	0.909385
2815.000000	0.909353
2814.000000	0.909310
2813.000000	0.909258
2812.000000	0.909204
2811.000000	0.909158
2810.000000	0.909122
2809.000000	0.909096
2808.000000	0.909077
2807.000000	0.909056
2806.000000	0.909026
2805.000000	0.908986
2804.000000	0.908950
2803.000000	0.908930
2802.000000	0.908921
2801.000000	0.908905
2800.000000	0.908869
2799.000000	0.908817
2798.000000	0.908763
2797.000000	0.908719
2796.000000	0.908688
2795.000000	0.908668
2794.000000	0.908656
2793.000000	0.908644
2792.000000	0.908623
2791.000000	0.908595
2790.000000	0.908567
2789.000000	0.908547
2788.000000	0.908533
2787.000000	0.908517
2786.000000	0.908496
2785.000000	0.908470
2784.000000	0.908443
2783.000000	0.908419
2782.000000	0.908404
2781.000000	0.908399
2780.000000	0.908398
2779.000000	0.908388
2778.000000	0.908361
2777.000000	0.908318
2776.000000	0.908269
2775.000000	0.908225
2774.000000	0.908195
2773.000000	0.908180
2772.000000	0.908171
2771.000000	0.908157
2770.000000	0.908136
2769.000000	0.908120
2768.000000	0.908116
2767.000000	0.908120
2766.000000	0.908116
2765.000000	0.908088
2764.000000	0.908035
2763.000000	0.907972
2762.000000	0.907925
2761.000000	0.907907
2760.000000	0.907912
2759.000000	0.907916
2758.000000	0.907907
2757.000000	0.907890
2756.000000	0.907879
2755.000000	0.907876
2754.000000	0.907878
2753.000000	0.907878
2752.000000	0.907873
2751.000000	0.907856
2750.000000	0.907830
2749.000000	0.907805
2748.000000	0.907792
2747.000000	0.907789
2746.000000	0.907785
2745.000000	0.907776
2744.000000	0.907769
2743.000000	0.907772
2742.000000	0.907782
2741.000000	0.907794
2740.000000	0.907803
2739.000000	0.907801
2738.000000	0.907784
2737.000000	0.907753
2736.000000	0.907720
2735.000000	0.907700
2734.000000	0.907693
2733.000000	0.907694
2732.000000	0.907700
2731.000000	0.907709
2730.000000	0.907717
2729.000000	0.907719
2728.000000	0.907716
2727.000000	0.907710
2726.000000	0.907703
2725.000000	0.907691
2724.000000	0.907674
2723.000000	0.907656
2722.000000	0.907645
2721.000000	0.907642
2720.000000	0.907645
2719.000000	0.907650
2718.000000	0.907652
2717.000000	0.907650
2716.000000	0.907644
2715.000000	0.907639
2714.000000	0.907635
2713.000000	0.907631
2712.000000	0.907623
2711.000000	0.907617
2710.000000	0.907622
2709.000000	0.907640
2708.000000	0.907661
2707.000000	0.907674
2706.000000	0.907681
2705.000000	0.907686
2704.000000	0.907689
2703.000000	0.907689
2702.000000	0.907685
2701.000000	0.907682
2700.000000	0.907683
2699.000000	0.907687
2698.000000	0.907696
2697.000000	0.907712
2696.000000	0.907726
2695.000000	0.907724
2694.000000	0.907701
2693.000000	0.907670
2692.000000	0.907653
2691.000000	0.907658
2690.000000	0.907683
2689.000000	0.907714
2688.000000	0.907736
2687.000000	0.907740
2686.000000	0.907734
2685.000000	0.907735
2684.000000	0.907759
2683.000000	0.907797
2682.000000	0.907829
2681.000000	0.907843
2680.000000	0.907845
2679.000000	0.907845
2678.000000	0.907844
2677.000000	0.907850
2676.000000	0.907870
2675.000000	0.907903
2674.000000	0.907928
2673.000000	0.907931
2672.000000	0.907922
2671.000000	0.907927
2670.000000	0.907951
2669.000000	0.907979
2668.000000	0.907998
2667.000000	0.908009
2666.000000	0.908016
2665.000000	0.908023
2664.000000	0.908036
2663.000000	0.908060
2662.000000	0.908089
2661.000000	0.908103
2660.000000	0.908096
2659.000000	0.908086
2658.000000	0.908100
2657.000000	0.908140
2656.000000	0.908190
2655.000000	0.908234
2654.000000	0.908268
2653.000000	0.908288
2652.000000	0.908291
2651.000000	0.908288
2650.000000	0.908296
2649.000000	0.908324
2648.000000	0.908357
2647.000000	0.908384
2646.000000	0.908406
2645.000000	0.908431
2644.000000	0.908455
2643.000000	0.908474
2642.000000	0.908493
2641.000000	0.908518
2640.000000	0.908543
2639.000000	0.908556
2638.000000	0.908561
2637.000000	0.908568
2636.000000	0.908580
2635.000000	0.908591
2634.000000	0.908603
2633.000000	0.908623
2632.000000	0.908654
2631.000000	0.908684
2630.000000	0.908707
2629.000000	0.908736
2628.000000	0.908779
2627.000000	0.908832
2626.000000	0.908878
2625.000000	0.908910
2624.000000	0.908933
2623.000000	0.908950
2622.000000	0.908961
2621.000000	0.908971
2620.000000	0.908986
2619.000000	0.909004
2618.000000	0.909015
2617.000000	0.909016
2616.000000	0.909021
2615.000000	0.909041
2614.000000	0.909070
2613.000000	0.909099
2612.000000	0.909129
2611.000000	0.909163
2610.000000	0.909195
2609.000000	0.909216
2608.000000	0.909223
2607.000000	0.909226
2606.000000	0.909233
2605.000000	0.909248
2604.000000	0.909276
2603.000000	0.909318
2602.000000	0.909362
2601.000000	0.909387
2600.000000	0.909385
2599.000000	0.909374
2598.000000	0.909376
2597.000000	0.909396
2596.000000	0.909426
2595.000000	0.909461
2594.000000	0.909494
2593.000000	0.909519
2592.000000	0.909534
2591.000000	0.909545
2590.000000	0.909562
2589.000000	0.909583
2588.000000	0.909597
2587.000000	0.909605
2586.000000	0.909619
2585.000000	0.909645
2584.000000	0.909677
2583.000000	0.909706
2582.000000	0.909731
2581.000000	0.909754
2580.000000	0.909774
2579.000000	0.909791
2578.000000	0.909809
2577.000000	0.909830
2576.000000	0.909844
2575.000000	0.909841
2574.000000	0.909834
2573.000000	0.909841
2572.000000	0.909864
2571.000000	0.909887
2570.000000	0.909901
2569.000000	0.909911
2568.000000	0.909922
2567.000000	0.909928
2566.000000	0.909927
2565.000000	0.909932
2564.000000	0.909959
2563.000000	0.910007
2562.000000	0.910059
2561.000000	0.910095
2560.000000	0.910114
2559.000000	0.910122
2558.000000	0.910130
2557.000000	0.910148
2556.000000	0.910174
2555.000000	0.910198
2554.000000	0.910209
2553.000000	0.910211
2552.000000	0.910221
2551.000000	0.910247
2550.000000	0.910277
2549.000000	0.910295
2548.000000	0.910302
2547.000000	0.910313
2546.000000	0.910337
2545.000000	0.910374
2544.000000	0.910414
2543.000000	0.910447
2542.000000	0.910465
2541.000000	0.910467
2540.000000	0.910469
2539.000000	0.910483
2538.000000	0.910509
2537.000000	0.910536
2536.000000	0.910553
2535.000000	0.910560
2534.000000	0.910558
2533.000000	0.910548
2532.000000	0.910537
2531.000000	0.910540
2530.000000	0.910564
2529.000000	0.910594
2528.000000	0.910617
2527.000000	0.910634
2526.000000	0.910658
2525.000000	0.910692
2524.000000	0.910728
2523.000000	0.910760
2522.000000	0.910783
2521.000000	0.910797
2520.000000	0.910802
2519.000000	0.910804
2518.000000	0.910813
2517.000000	0.910830
2516.000000	0.910848
2515.000000	0.910865
2514.000000	0.910890
2513.000000	0.910922
2512.000000	0.910950
2511.000000	0.910962
2510.000000	0.910968
2509.000000	0.910980
2508.000000	0.910998
2507.000000	0.911013
2506.000000	0.911024
2505.000000	0.911039
2504.000000	0.911062
2503.000000	0.911093
2502.000000	0.911133
2501.000000	0.911182
2500.000000	0.911230
2499.000000	0.911266
2498.000000	0.911288
2497.000000	0.911307
2496.000000	0.911334
2495.000000	0.911365
2494.000000	0.911393
2493.000000	0.911422
2492.000000	0.911454
2491.000000	0.911484
2490.000000	0.911503
2489.000000	0.911519
2488.000000	0.911550
2487.000000	0.911599
2486.000000	0.911643
2485.000000	0.911663
2484.000000	0.911668
2483.000000	0.911678
2482.000000	0.911706
2481.000000	0.911748
2480.000000	0.911797
2479.000000	0.911851
2478.000000	0.911903
2477.000000	0.911947
2476.000000	0.911983
2475.000000	0.912021
2474.000000	0.912063
2473.000000	0.912098
2472.000000	0.912119
2471.000000	0.912133
2470.000000	0.912153
2469.000000	0.912180
2468.000000	0.912209
2467.000000	0.912243
2466.000000	0.912284
2465.000000	0.912331
2464.000000	0.912376
2463.000000	0.912421
2462.000000	0.912468
2461.000000	0.912510
2460.000000	0.912540
2459.000000	0.912565
2458.000000	0.912596
2457.000000	0.912630
2456.000000	0.912655
2455.000000	0.912668
2454.000000	0.912685
2453.000000	0.912716
2452.000000	0.912751
2451.000000	0.912777
2450.000000	0.912804
2449.000000	0.912840
2448.000000	0.912880
2447.000000	0.912905
2446.000000	0.912911
2445.000000	0.912915
2444.000000	0.912928
2443.000000	0.912949
2442.000000	0.912971
2441.000000	0.912989
2440.000000	0.912995
2439.000000	0.912983
2438.000000	0.912962
2437.000000	0.912950
2436.000000	0.912957
2435.000000	0.912974
2434.000000	0.912993
2433.000000	0.913017
2432.000000	0.913047
2431.000000	0.913065
2430.000000	0.913051
2429.000000	0.913012
2428.000000	0.912973
2427.000000	0.912944
2426.000000	0.912916
2425.000000	0.912889
2424.000000	0.912877
2423.000000	0.912883
2422.000000	0.912888
2421.000000	0.912864
2420.000000	0.912813
2419.000000	0.912762
2418.000000	0.912728
2417.000000	0.912709
2416.000000	0.912695
2415.000000	0.912681
2414.000000	0.912665
2413.000000	0.912646
2412.000000	0.912622
2411.000000	0.912598
2410.000000	0.912571
2409.000000	0.912539
2408.000000	0.912507
2407.000000	0.912486
2406.000000	0.912478
2405.000000	0.912474
2404.000000	0.912466
2403.000000	0.912457
2402.000000	0.912449
2401.000000	0.912436
2400.000000	0.912407
2399.000000	0.912370
2398.000000	0.912343
2397.000000	0.912334
2396.000000	0.912331
2395.000000	0.912317
2394.000000	0.912293
2393.000000	0.912267
2392.000000	0.912247
2391.000000	0.912236
2390.000000	0.912230
2389.000000	0.912221
2388.000000	0.912208
2387.000000	0.912191
2386.000000	0.912176
2385.000000	0.912161
2384.000000	0.912140
2383.000000	0.912103
2382.000000	0.912052
2381.000000	0.911994
2380.000000	0.911936
2379.000000	0.911882
2378.000000	0.911829
2377.000000	0.911769
2376.000000	0.911687
2375.000000	0.911575
2374.000000	0.911443
2373.000000	0.911308
2372.000000	0.911182
2371.000000	0.911065
2370.000000	0.910952
2369.000000	0.910842
2368.000000	0.910731
2367.000000	0.910619
2366.000000	0.910515
2365.000000	0.910438
2364.000000	0.910399
2363.000000	0.910397
2362.000000	0.910416
2361.000000	0.910443
2360.000000	0.910477
2359.000000	0.910523
2358.000000	0.910583
2357.000000	0.910661
2356.000000	0.910768
2355.000000	0.910913
2354.000000	0.911090
2353.000000	0.911282
2352.000000	0.911473
2351.000000	0.911651
2350.000000	0.911809
2349.000000	0.911936
2348.000000	0.912039
2347.000000	0.912148
2346.000000	0.912302
2345.000000	0.912525
2344.000000	0.912813
2343.000000	0.913134
2342.000000	0.913426
2341.000000	0.913596
2340.000000	0.913569
2339.000000	0.913334
2338.000000	0.912961
2337.000000	0.912556
2336.000000	0.912198
2335.000000	0.911919
2334.000000	0.911723
2333.000000	0.911599
2332.000000	0.911540
2331.000000	0.911534
2330.000000	0.911563
2329.000000	0.911599
2328.000000	0.911621
2327.000000	0.911627
2326.000000	0.911642
2325.000000	0.911687
2324.000000	0.911765
2323.000000	0.911857
2322.000000	0.911943
2321.000000	0.912012
2320.000000	0.912067
2319.000000	0.912119
2318.000000	0.912174
2317.000000	0.912229
2316.000000	0.912281
2315.000000	0.912331
2314.000000	0.912389
2313.000000	0.912455
2312.000000	0.912514
2311.000000	0.912551
2310.000000	0.912572
2309.000000	0.912590
2308.000000	0.912609
2307.000000	0.912623
2306.000000	0.912637
2305.000000	0.912659
2304.000000	0.912685
2303.000000	0.912705
2302.000000	0.912716
2301.000000	0.912730
2300.000000	0.912752
2299.000000	0.912782
2298.000000	0.912814
2297.000000	0.912846
2296.000000	0.912872
2295.000000	0.912885
2294.000000	0.912890
2293.000000	0.912904
2292.000000	0.912935
2291.000000	0.912965
2290.000000	0.912978
2289.000000	0.912978
2288.000000	0.912987
2287.000000	0.913013
2286.000000	0.913042
2285.000000	0.913062
2284.000000	0.913073
2283.000000	0.913082
2282.000000	0.913096
2281.000000	0.913119
2280.000000	0.913149
2279.000000	0.913178
2278.000000	0.913196
2277.000000	0.913199
2276.000000	0.913196
2275.000000	0.913196
2274.000000	0.913204
2273.000000	0.913217
2272.000000	0.913230
2271.000000	0.913241
2270.000000	0.913244
2269.000000	0.913238
2268.000000	0.913225
2267.000000	0.913218
2266.000000	0.913230
2265.000000	0.913255
2264.000000	0.913274
2263.000000	0.913276
2262.000000	0.913269
2261.000000	0.913272
2260.000000	0.913291
2259.000000	0.913312
2258.000000	0.913322
2257.000000	0.913321
2256.000000	0.913320
2255.000000	0.913326
2254.000000	0.913335
2253.000000	0.913340
2252.000000	0.913339
2251.000000	0.913334
2250.000000	0.913327
2249.000000	0.913316
2248.000000	0.913306
2247.000000	0.913304
2246.000000	0.913320
2245.000000	0.913353
2244.000000	0.913387
2243.000000	0.913404
2242.000000	0.913396
2241.000000	0.913371
2240.000000	0.913340
2239.000000	0.913314
2238.000000	0.913301
2237.000000	0.913303
2236.000000	0.913315
2235.000000	0.913326
2234.000000	0.913330
2233.000000	0.913325
2232.000000	0.913319
2231.000000	0.913319
2230.000000	0.913338
2229.000000	0.913374
2228.000000	0.913405
2227.000000	0.913407
2226.000000	0.913377
2225.000000	0.913341
2224.000000	0.913328
2223.000000	0.913344
2222.000000	0.913366
2221.000000	0.913375
2220.000000	0.913363
2219.000000	0.913335
2218.000000	0.913302
2217.000000	0.913278
2216.000000	0.913274
2215.000000	0.913289
2214.000000	0.913309
2213.000000	0.913312
2212.000000	0.913294
2211.000000	0.913269
2210.000000	0.913254
2209.000000	0.913255
2208.000000	0.913262
2207.000000	0.913258
2206.000000	0.913236
2205.000000	0.913205
2204.000000	0.913179
2203.000000	0.913166
2202.000000	0.913157
2201.000000	0.913141
2200.000000	0.913118
2199.000000	0.913101
2198.000000	0.913094
2197.000000	0.913088
2196.000000	0.913073
2195.000000	0.913052
2194.000000	0.913032
2193.000000	0.913013
2192.000000	0.912993
2191.000000	0.912971
2190.000000	0.912950
2189.000000	0.912930
2188.000000	0.912914
2187.000000	0.912905
2186.000000	0.912901
2185.000000	0.912889
2184.000000	0.912852
2183.000000	0.912798
2182.000000	0.912755
2181.000000	0.912741
2180.000000	0.912746
2179.000000	0.912750
2178.000000	0.912744
2177.000000	0.912732
2176.000000	0.912718
2175.000000	0.912698
2174.000000	0.912675
2173.000000	0.912654
2172.000000	0.912631
2171.000000	0.912597
2170.000000	0.912555
2169.000000	0.912521
2168.000000	0.912499
2167.000000	0.912479
2166.000000	0.912452
2165.000000	0.912421
2164.000000	0.912393
2163.000000	0.912365
2162.000000	0.912336
2161.000000	0.912315
2160.000000	0.912305
2159.000000	0.912296
2158.000000	0.912267
2157.000000	0.912215
2156.000000	0.912157
2155.000000	0.912110
2154.000000	0.912079
2153.000000	0.912060
2152.000000	0.912050
2151.000000	0.912042
2150.000000	0.912021
2149.000000	0.911975
2148.000000	0.911914
2147.000000	0.911860
2146.000000	0.911828
2145.000000	0.911810
2144.000000	0.911789
2143.000000	0.911758
2142.000000	0.911726
2141.000000	0.911702
2140.000000	0.911690
2139.000000	0.911685
2138.000000	0.911674
2137.000000	0.911644
2136.000000	0.911585
2135.000000	0.911514
2134.000000	0.911455
2133.000000	0.911423
2132.000000	0.911411
2131.000000	0.911402
2130.000000	0.911383
2129.000000	0.911350
2128.000000	0.911304
2127.000000	0.911253
2126.000000	0.911210
2125.000000	0.911177
2124.000000	0.911137
2123.000000	0.911081
2122.000000	0.911021
2121.000000	0.910983
2120.000000	0.910975
2119.000000	0.910979
2118.000000	0.910972
2117.000000	0.910942
2116.000000	0.910891
2115.000000	0.910826
2114.000000	0.910765
2113.000000	0.910721
2112.000000	0.910692
2111.000000	0.910659
2110.000000	0.910617
2109.000000	0.910573
2108.000000	0.910539
2107.000000	0.910510
2106.000000	0.910478
2105.000000	0.910440
2104.000000	0.910405
2103.000000	0.910374
2102.000000	0.910341
2101.000000	0.910300
2100.000000	0.910245
2099.000000	0.910179
2098.000000	0.910114
2097.000000	0.910068
2096.000000	0.910047
2095.000000	0.910041
2094.000000	0.910031
2093.000000	0.910002
2092.000000	0.909950
2091.000000	0.909889
2090.000000	0.909838
2089.000000	0.909804
2088.000000	0.909781
2087.000000	0.909754
2086.000000	0.909719
2085.000000	0.909684
2084.000000	0.909657
2083.000000	0.909632
2082.000000	0.909599
2081.000000	0.909557
2080.000000	0.909509
2079.000000	0.909461
2078.000000	0.909417
2077.000000	0.909383
2076.000000	0.909360
2075.000000	0.909338
2074.000000	0.909306
2073.000000	0.909258
2072.000000	0.909202
2071.000000	0.909149
2070.000000	0.909106
2069.000000	0.909071
2068.000000	0.909036
2067.000000	0.908990
2066.000000	0.908931
2065.000000	0.908868
2064.000000	0.908816
2063.000000	0.908782
2062.000000	0.908761
2061.000000	0.908739
2060.000000	0.908700
2059.000000	0.908647
2058.000000	0.908591
2057.000000	0.908549
2056.000000	0.908521
2055.000000	0.908495
2054.000000	0.908464
2053.000000	0.908430
2052.000000	0.908398
2051.000000	0.908370
2050.000000	0.908343
2049.000000	0.908319
2048.000000	0.908296
2047.000000	0.908270
2046.000000	0.908235
2045.000000	0.908186
2044.000000	0.908122
2043.000000	0.908052
2042.000000	0.907985
2041.000000	0.907928
2040.000000	0.907877
2039.000000	0.907831
2038.000000	0.907795
2037.000000	0.907776
2036.000000	0.907767
2035.000000	0.907757
2034.000000	0.907742
2033.000000	0.907728
2032.000000	0.907709
2031.000000	0.907672
2030.000000	0.907616
2029.000000	0.907563
2028.000000	0.907533
2027.000000	0.907523
2026.000000	0.907510
2025.000000	0.907480
2024.000000	0.907436
2023.000000	0.907385
2022.000000	0.907335
2021.000000	0.907292
2020.000000	0.907256
2019.000000	0.907220
2018.000000	0.907177
2017.000000	0.907137
2016.000000	0.907114
2015.000000	0.907103
2014.000000	0.907087
2013.000000	0.907055
2012.000000	0.907014
2011.000000	0.906974
2010.000000	0.906935
2009.000000	0.906894
2008.000000	0.906856
2007.000000	0.906829
2006.000000	0.906816
2005.000000	0.906803
2004.000000	0.906778
2003.000000	0.906740
2002.000000	0.906699
2001.000000	0.906672
2000.000000	0.906667
1999.000000	0.906673
1998.000000	0.906663
1997.000000	0.906621
1996.000000	0.906550
1995.000000	0.906478
1994.000000	0.906429
1993.000000	0.906404
1992.000000	0.906386
1991.000000	0.906359
1990.000000	0.906325
1989.000000	0.906295
1988.000000	0.906278
1987.000000	0.906272
1986.000000	0.906275
1985.000000	0.906283
1984.000000	0.906283
1983.000000	0.906266
1982.000000	0.906232
1981.000000	0.906201
1980.000000	0.906185
1979.000000	0.906179
1978.000000	0.906165
1977.000000	0.906136
1976.000000	0.906098
1975.000000	0.906062
1974.000000	0.906036
1973.000000	0.906023
1972.000000	0.906023
1971.000000	0.906027
1970.000000	0.906024
1969.000000	0.906013
1968.000000	0.905999
1967.000000	0.905986
1966.000000	0.905971
1965.000000	0.905953
1964.000000	0.905936
1963.000000	0.905924
1962.000000	0.905916
1961.000000	0.905905
1960.000000	0.905882
1959.000000	0.905844
1958.000000	0.905805
1957.000000	0.905782
1956.000000	0.905781
1955.000000	0.905788
1954.000000	0.905784
1953.000000	0.905767
1952.000000	0.905756
1951.000000	0.905766
1950.000000	0.905791
1949.000000	0.905806
1948.000000	0.905794
1947.000000	0.905761
1946.000000	0.905725
1945.000000	0.905697
1944.000000	0.905682
1943.000000	0.905677
1942.000000	0.905683
1941.000000	0.905694
1940.000000	0.905703
1939.000000	0.905709
1938.000000	0.905714
1937.000000	0.905717
1936.000000	0.905712
1935.000000	0.905690
1934.000000	0.905657
1933.000000	0.905623
1932.000000	0.905601
1931.000000	0.905595
1930.000000	0.905604
1929.000000	0.905624
1928.000000	0.905642
1927.000000	0.905652
1926.000000	0.905651
1925.000000	0.905642
1924.000000	0.905633
1923.000000	0.905630
1922.000000	0.905633
1921.000000	0.905625
1920.000000	0.905589
1919.000000	0.905534
1918.000000	0.905498
1917.000000	0.905512
1916.000000	0.905567
1915.000000	0.905624
1914.000000	0.905656
1913.000000	0.905664
1912.000000	0.905660
1911.000000	0.905654
1910.000000	0.905655
1909.000000	0.905669
1908.000000	0.905692
1907.000000	0.905715
1906.000000	0.905726
1905.000000	0.905729
1904.000000	0.905729
1903.000000	0.905730
1902.000000	0.905736
1901.000000	0.905748
1900.000000	0.905759
1899.000000	0.905760
1898.000000	0.905751
1897.000000	0.905747
1896.000000	0.905760
1895.000000	0.905785
1894.000000	0.905812
1893.000000	0.905830
1892.000000	0.905829
1891.000000	0.905803
1890.000000	0.905765
1889.000000	0.905740
1888.000000	0.905745
1887.000000	0.905767
1886.000000	0.905785
1885.000000	0.905789
1884.000000	0.905783
1883.000000	0.905776
1882.000000	0.905777
1881.000000	0.905792
1880.000000	0.905819
1879.000000	0.905842
1878.000000	0.905848
1877.000000	0.905843
1876.000000	0.905840
1875.000000	0.905848
1874.000000	0.905862
1873.000000	0.905871
1872.000000	0.905862
1871.000000	0.905826
1870.000000	0.905777
1869.000000	0.905747
1868.000000	0.905763
1867.000000	0.905818
1866.000000	0.905880
1865.000000	0.905918
1864.000000	0.905929
1863.000000	0.905927
1862.000000	0.905932
1861.000000	0.905952
1860.000000	0.905977
1859.000000	0.905990
1858.000000	0.905986
1857.000000	0.905979
1856.000000	0.905984
1855.000000	0.906006
1854.000000	0.906034
1853.000000	0.906056
1852.000000	0.906057
1851.000000	0.906035
1850.000000	0.906004
1849.000000	0.905986
1848.000000	0.905986
1847.000000	0.905976
1846.000000	0.905926
1845.000000	0.905850
1844.000000	0.905808
1843.000000	0.905844
1842.000000	0.905942
1841.000000	0.906039
1840.000000	0.906091
1839.000000	0.906102
1838.000000	0.906106
1837.000000	0.906124
1836.000000	0.906151
1835.000000	0.906174
1834.000000	0.906186
1833.000000	0.906182
1832.000000	0.906152
1831.000000	0.906102
1830.000000	0.906066
1829.000000	0.906075
1828.000000	0.906124
1827.000000	0.906175
1826.000000	0.906202
1825.000000	0.906219
1824.000000	0.906253
1823.000000	0.906307
1822.000000	0.906366
1821.000000	0.906412
1820.000000	0.906439
1819.000000	0.906452
1818.000000	0.906469
1817.000000	0.906500
1816.000000	0.906542
1815.000000	0.906569
1814.000000	0.906572
1813.000000	0.906562
1812.000000	0.906557
1811.000000	0.906559
1810.000000	0.906568
1809.000000	0.906590
1808.000000	0.906626
1807.000000	0.906665
1806.000000	0.906697
1805.000000	0.906723
1804.000000	0.906736
1803.000000	0.906721
1802.000000	0.906678
1801.000000	0.906639
1800.000000	0.906641
1799.000000	0.906681
1798.000000	0.906732
1797.000000	0.906777
1796.000000	0.906799
1795.000000	0.906768
1794.000000	0.906671
1793.000000	0.906558
1792.000000	0.906516
1791.000000	0.906583
1790.000000	0.906709
1789.000000	0.906812
1788.000000	0.906851
1787.000000	0.906840
1786.000000	0.906813
1785.000000	0.906805
1784.000000	0.906831
1783.000000	0.906883
1782.000000	0.906936
1781.000000	0.906975
1780.000000	0.907010
1779.000000	0.907053
1778.000000	0.907103
1777.000000	0.907141
1776.000000	0.907147
1775.000000	0.907097
1774.000000	0.906995
1773.000000	0.906889
1772.000000	0.906855
1771.000000	0.906927
1770.000000	0.907058
1769.000000	0.907170
1768.000000	0.907238
1767.000000	0.907295
1766.000000	0.907369
1765.000000	0.907437
1764.000000	0.907459
1763.000000	0.907437
1762.000000	0.907425
1761.000000	0.907468
1760.000000	0.907547
1759.000000	0.907603
1758.000000	0.907606
1757.000000	0.907592
1756.000000	0.907621
1755.000000	0.907691
1754.000000	0.907739
1753.000000	0.907713
1752.000000	0.907636
1751.000000	0.907585
1750.000000	0.907613
1749.000000	0.907709
1748.000000	0.907820
1747.000000	0.907901
1746.000000	0.907947
1745.000000	0.907977
1744.000000	0.908004
1743.000000	0.908022
1742.000000	0.908018
1741.000000	0.908002
1740.000000	0.908013
1739.000000	0.908078
1738.000000	0.908157
1737.000000	0.908152
1736.000000	0.908003
1735.000000	0.907778
1734.000000	0.907638
1733.000000	0.907698
1732.000000	0.907925
1731.000000	0.908183
1730.000000	0.908378
1729.000000	0.908510
1728.000000	0.908621
1727.000000	0.908715
1726.000000	0.908766
1725.000000	0.908763
1724.000000	0.908735
1723.000000	0.908726
1722.000000	0.908741
1721.000000	0.908727
1720.000000	0.908618
1719.000000	0.908409
1718.000000	0.908197
1717.000000	0.908116
1716.000000	0.908214
1715.000000	0.908421
1714.000000	0.908638
1713.000000	0.908813
1712.000000	0.908937
1711.000000	0.909011
1710.000000	0.909038
1709.000000	0.909037
1708.000000	0.909015
1707.000000	0.908969
1706.000000	0.908915
1705.000000	0.908894
1704.000000	0.908891
1703.000000	0.908812
1702.000000	0.908601
1701.000000	0.908359
1700.000000	0.908263
1699.000000	0.908344
1698.000000	0.908453
1697.000000	0.908460
1696.000000	0.908432
1695.000000	0.908530
1694.000000	0.908801
1693.000000	0.909113
1692.000000	0.909312
1691.000000	0.909357
1690.000000	0.909324
1689.000000	0.909278
1688.000000	0.909192
1687.000000	0.908991
1686.000000	0.908679
1685.000000	0.908408
1684.000000	0.908359
1683.000000	0.908561
1682.000000	0.908866
1681.000000	0.909113
1680.000000	0.909255
1679.000000	0.909325
1678.000000	0.909335
1677.000000	0.909273
1676.000000	0.909178
1675.000000	0.909133
1674.000000	0.909179
1673.000000	0.909265
1672.000000	0.909311
1671.000000	0.909294
1670.000000	0.909258
1669.000000	0.909264
1668.000000	0.909334
1667.000000	0.909436
1666.000000	0.909507
1665.000000	0.909504
1664.000000	0.909447
1663.000000	0.909399
1662.000000	0.909407
1661.000000	0.909464
1660.000000	0.909533
1659.000000	0.909593
1658.000000	0.909628
1657.000000	0.909586
1656.000000	0.909377
1655.000000	0.908966
1654.000000	0.908485
1653.000000	0.908204
1652.000000	0.908322
1651.000000	0.908757
1650.000000	0.909210
1649.000000	0.909422
1648.000000	0.909373
1647.000000	0.909238
1646.000000	0.909206
1645.000000	0.909328
1644.000000	0.909531
1643.000000	0.909710
1642.000000	0.909809
1641.000000	0.909829
1640.000000	0.909797
1639.000000	0.909721
1638.000000	0.909581
1637.000000	0.909390
1636.000000	0.909231
1635.000000	0.909214
1634.000000	0.909374
1633.000000	0.909626
1632.000000	0.909837
1631.000000	0.909926
1630.000000	0.909910
1629.000000	0.909861
1628.000000	0.909829
1627.000000	0.909815
1626.000000	0.909792
1625.000000	0.909751
1624.000000	0.909711
1623.000000	0.909707
1622.000000	0.909755
1621.000000	0.909829
1620.000000	0.909848
1619.000000	0.909737
1618.000000	0.909517
1617.000000	0.909336
1616.000000	0.909349
1615.000000	0.909565
1614.000000	0.909837
1613.000000	0.910020
1612.000000	0.910091
1611.000000	0.910104
1610.000000	0.910100
1609.000000	0.910089
1608.000000	0.910083
1607.000000	0.910094
1606.000000	0.910104
1605.000000	0.910092
1604.000000	0.910074
1603.000000	0.910084
1602.000000	0.910116
1601.000000	0.910131
1600.000000	0.910117
1599.000000	0.910099
1598.000000	0.910098
1597.000000	0.910108
1596.000000	0.910129
1595.000000	0.910177
1594.000000	0.910245
1593.000000	0.910291
1592.000000	0.910292
1591.000000	0.910275
1590.000000	0.910279
1589.000000	0.910308
1588.000000	0.910338
1587.000000	0.910355
1586.000000	0.910362
1585.000000	0.910357
1584.000000	0.910339
1583.000000	0.910327
1582.000000	0.910340
1581.000000	0.910368
1580.000000	0.910357
1579.000000	0.910249
1578.000000	0.910037
1577.000000	0.909800
1576.000000	0.909679
1575.000000	0.909762
1574.000000	0.909997
1573.000000	0.910216
1572.000000	0.910282
1571.000000	0.910206
1570.000000	0.910115
1569.000000	0.910122
1568.000000	0.910224
1567.000000	0.910341
1566.000000	0.910408
1565.000000	0.910426
1564.000000	0.910419
1563.000000	0.910358
1562.000000	0.910160
1561.000000	0.909791
1560.000000	0.909369
1559.000000	0.909117
1558.000000	0.909174
1557.000000	0.909468
1556.000000	0.909800
1555.000000	0.910034
1554.000000	0.910170
1553.000000	0.910270
1552.000000	0.910361
1551.000000	0.910428
1550.000000	0.910463
1549.000000	0.910476
1548.000000	0.910473
1547.000000	0.910440
1546.000000	0.910369
1545.000000	0.910274
1544.000000	0.910166
1543.000000	0.910018
1542.000000	0.909794
1541.000000	0.909531
1540.000000	0.909364
1539.000000	0.909433
1538.000000	0.909729
1537.000000	0.910082
1536.000000	0.910305
1535.000000	0.910353
1534.000000	0.910324
1533.000000	0.910329
1532.000000	0.910400
1531.000000	0.910495
1530.000000	0.910562
1529.000000	0.910564
1528.000000	0.910496
1527.000000	0.910399
1526.000000	0.910336
1525.000000	0.910317
1524.000000	0.910273
1523.000000	0.910146
1522.000000	0.909984
1521.000000	0.909905
1520.000000	0.909968
1519.000000	0.910116
1518.000000	0.910253
1517.000000	0.910350
1516.000000	0.910429
1515.000000	0.910502
1514.000000	0.910551
1513.000000	0.910570
1512.000000	0.910573
1511.000000	0.910558
1510.000000	0.910476
1509.000000	0.910271
1508.000000	0.909975
1507.000000	0.909739
1506.000000	0.909742
1505.000000	0.910024
1504.000000	0.910438
1503.000000	0.910774
1502.000000	0.910937
1501.000000	0.910985
1500.000000	0.911004
