PE IR       SUBTECH     SPECTRUM    ASCII       PEDS        4.00        
   -1
TE108B1_042.ASC
20/02/21
17:02:08.00
20/02/21
17:02:08.00
Administrator
Sample 042 By Administrator Date Friday, February 21 2020
1500.000000
#HDR
-1
-1
#GR
cm-1
A
1.0
0.0
4000.000000
-1.000000
2501
8
0.869026
0.816852
#DATA
4000.000000	0.819964
3999.000000	0.819953
3998.000000	0.819947
3997.000000	0.819944
3996.000000	0.819946
3995.000000	0.819948
3994.000000	0.819945
3993.000000	0.819936
3992.000000	0.819930
3991.000000	0.819937
3990.000000	0.819964
3989.000000	0.820003
3988.000000	0.820036
3987.000000	0.820051
3986.000000	0.820047
3985.000000	0.820035
3984.000000	0.820026
3983.000000	0.820024
3982.000000	0.820030
3981.000000	0.820042
3980.000000	0.820055
3979.000000	0.820068
3978.000000	0.820082
3977.000000	0.820099
3976.000000	0.820117
3975.000000	0.820135
3974.000000	0.820149
3973.000000	0.820158
3972.000000	0.820165
3971.000000	0.820173
3970.000000	0.820182
3969.000000	0.820187
3968.000000	0.820186
3967.000000	0.820177
3966.000000	0.820166
3965.000000	0.820153
3964.000000	0.820136
3963.000000	0.820116
3962.000000	0.820099
3961.000000	0.820094
3960.000000	0.820101
3959.000000	0.820109
3958.000000	0.820107
3957.000000	0.820089
3956.000000	0.820061
3955.000000	0.820035
3954.000000	0.820017
3953.000000	0.820009
3952.000000	0.820009
3951.000000	0.820019
3950.000000	0.820039
3949.000000	0.820066
3948.000000	0.820089
3947.000000	0.820101
3946.000000	0.820099
3945.000000	0.820087
3944.000000	0.820074
3943.000000	0.820070
3942.000000	0.820077
3941.000000	0.820092
3940.000000	0.820109
3939.000000	0.820119
3938.000000	0.820122
3937.000000	0.820118
3936.000000	0.820103
3935.000000	0.820068
3934.000000	0.820011
3933.000000	0.819949
3932.000000	0.819907
3931.000000	0.819902
3930.000000	0.819932
3929.000000	0.819971
3928.000000	0.819991
3927.000000	0.819984
3926.000000	0.819957
3925.000000	0.819931
3924.000000	0.819919
3923.000000	0.819921
3922.000000	0.819925
3921.000000	0.819914
3920.000000	0.819881
3919.000000	0.819831
3918.000000	0.819783
3917.000000	0.819760
3916.000000	0.819772
3915.000000	0.819816
3914.000000	0.819869
3913.000000	0.819911
3912.000000	0.819930
3911.000000	0.819926
3910.000000	0.819906
3909.000000	0.819866
3908.000000	0.819800
3907.000000	0.819699
3906.000000	0.819570
3905.000000	0.819435
3904.000000	0.819320
3903.000000	0.819244
3902.000000	0.819215
3901.000000	0.819227
3900.000000	0.819279
3899.000000	0.819370
3898.000000	0.819488
3897.000000	0.819611
3896.000000	0.819702
3895.000000	0.819731
3894.000000	0.819687
3893.000000	0.819593
3892.000000	0.819497
3891.000000	0.819442
3890.000000	0.819442
3889.000000	0.819468
3888.000000	0.819475
3887.000000	0.819446
3886.000000	0.819407
3885.000000	0.819399
3884.000000	0.819438
3883.000000	0.819497
3882.000000	0.819533
3881.000000	0.819531
3880.000000	0.819517
3879.000000	0.819521
3878.000000	0.819550
3877.000000	0.819577
3876.000000	0.819574
3875.000000	0.819531
3874.000000	0.819459
3873.000000	0.819363
3872.000000	0.819244
3871.000000	0.819116
3870.000000	0.819015
3869.000000	0.818975
3868.000000	0.819000
3867.000000	0.819053
3866.000000	0.819093
3865.000000	0.819110
3864.000000	0.819132
3863.000000	0.819188
3862.000000	0.819283
3861.000000	0.819387
3860.000000	0.819455
3859.000000	0.819436
3858.000000	0.819280
3857.000000	0.818951
3856.000000	0.818472
3855.000000	0.817954
3854.000000	0.817576
3853.000000	0.817497
3852.000000	0.817747
3851.000000	0.818214
3850.000000	0.818715
3849.000000	0.819104
3848.000000	0.819326
3847.000000	0.819405
3846.000000	0.819391
3845.000000	0.819325
3844.000000	0.819230
3843.000000	0.819116
3842.000000	0.818976
3841.000000	0.818797
3840.000000	0.818581
3839.000000	0.818369
3838.000000	0.818232
3837.000000	0.818227
3836.000000	0.818355
3835.000000	0.818555
3834.000000	0.818747
3833.000000	0.818882
3832.000000	0.818958
3831.000000	0.819005
3830.000000	0.819046
3829.000000	0.819084
3828.000000	0.819108
3827.000000	0.819106
3826.000000	0.819071
3825.000000	0.818988
3824.000000	0.818844
3823.000000	0.818651
3822.000000	0.818459
3821.000000	0.818331
3820.000000	0.818288
3819.000000	0.818293
3818.000000	0.818285
3817.000000	0.818244
3816.000000	0.818226
3815.000000	0.818304
3814.000000	0.818499
3813.000000	0.818746
3812.000000	0.818937
3811.000000	0.818996
3810.000000	0.818916
3809.000000	0.818750
3808.000000	0.818574
3807.000000	0.818451
3806.000000	0.818398
3805.000000	0.818376
3804.000000	0.818321
3803.000000	0.818204
3802.000000	0.818074
3801.000000	0.818019
3800.000000	0.818098
3799.000000	0.818283
3798.000000	0.818488
3797.000000	0.818637
3796.000000	0.818721
3795.000000	0.818774
3794.000000	0.818832
3793.000000	0.818896
3792.000000	0.818946
3791.000000	0.818968
3790.000000	0.818962
3789.000000	0.818936
3788.000000	0.818901
3787.000000	0.818866
3786.000000	0.818844
3785.000000	0.818840
3784.000000	0.818844
3783.000000	0.818833
3782.000000	0.818791
3781.000000	0.818729
3780.000000	0.818674
3779.000000	0.818657
3778.000000	0.818685
3777.000000	0.818741
3776.000000	0.818791
3775.000000	0.818804
3774.000000	0.818761
3773.000000	0.818666
3772.000000	0.818544
3771.000000	0.818436
3770.000000	0.818379
3769.000000	0.818383
3768.000000	0.818428
3767.000000	0.818479
3766.000000	0.818516
3765.000000	0.818540
3764.000000	0.818557
3763.000000	0.818561
3762.000000	0.818539
3761.000000	0.818490
3760.000000	0.818431
3759.000000	0.818388
3758.000000	0.818368
3757.000000	0.818343
3756.000000	0.818259
3755.000000	0.818071
3754.000000	0.817777
3753.000000	0.817436
3752.000000	0.817145
3751.000000	0.816992
3750.000000	0.817003
3749.000000	0.817119
3748.000000	0.817221
3747.000000	0.817202
3746.000000	0.817051
3745.000000	0.816879
3744.000000	0.816852
3743.000000	0.817065
3742.000000	0.817453
3741.000000	0.817841
3740.000000	0.818065
3739.000000	0.818074
3738.000000	0.817933
3737.000000	0.817753
3736.000000	0.817617
3735.000000	0.817562
3734.000000	0.817588
3733.000000	0.817681
3732.000000	0.817818
3731.000000	0.817977
3730.000000	0.818129
3729.000000	0.818241
3728.000000	0.818296
3727.000000	0.818296
3726.000000	0.818273
3725.000000	0.818262
3724.000000	0.818282
3723.000000	0.818331
3722.000000	0.818398
3721.000000	0.818477
3720.000000	0.818560
3719.000000	0.818641
3718.000000	0.818703
3717.000000	0.818725
3716.000000	0.818681
3715.000000	0.818562
3714.000000	0.818384
3713.000000	0.818200
3712.000000	0.818079
3711.000000	0.818069
3710.000000	0.818175
3709.000000	0.818353
3708.000000	0.818546
3707.000000	0.818711
3706.000000	0.818825
3705.000000	0.818886
3704.000000	0.818901
3703.000000	0.818895
3702.000000	0.818901
3701.000000	0.818946
3700.000000	0.819031
3699.000000	0.819134
3698.000000	0.819229
3697.000000	0.819308
3696.000000	0.819370
3695.000000	0.819408
3694.000000	0.819400
3693.000000	0.819321
3692.000000	0.819168
3691.000000	0.818969
3690.000000	0.818787
3689.000000	0.818701
3688.000000	0.818769
3687.000000	0.818993
3686.000000	0.819308
3685.000000	0.819617
3684.000000	0.819845
3683.000000	0.819977
3682.000000	0.820035
3681.000000	0.820041
3680.000000	0.819992
3679.000000	0.819868
3678.000000	0.819671
3677.000000	0.819452
3676.000000	0.819297
3675.000000	0.819275
3674.000000	0.819377
3673.000000	0.819522
3672.000000	0.819626
3671.000000	0.819684
3670.000000	0.819770
3669.000000	0.819959
3668.000000	0.820252
3667.000000	0.820576
3666.000000	0.820855
3665.000000	0.821057
3664.000000	0.821198
3663.000000	0.821302
3662.000000	0.821377
3661.000000	0.821418
3660.000000	0.821415
3659.000000	0.821369
3658.000000	0.821311
3657.000000	0.821286
3656.000000	0.821330
3655.000000	0.821430
3654.000000	0.821521
3653.000000	0.821527
3652.000000	0.821425
3651.000000	0.821269
3650.000000	0.821161
3649.000000	0.821186
3648.000000	0.821369
3647.000000	0.821671
3646.000000	0.822016
3645.000000	0.822333
3644.000000	0.822580
3643.000000	0.822753
3642.000000	0.822869
3641.000000	0.822956
3640.000000	0.823034
3639.000000	0.823118
3638.000000	0.823215
3637.000000	0.823321
3636.000000	0.823422
3635.000000	0.823501
3634.000000	0.823539
3633.000000	0.823516
3632.000000	0.823419
3631.000000	0.823265
3630.000000	0.823115
3629.000000	0.823069
3628.000000	0.823200
3627.000000	0.823505
3626.000000	0.823891
3625.000000	0.824239
3624.000000	0.824469
3623.000000	0.824569
3622.000000	0.824579
3621.000000	0.824561
3620.000000	0.824570
3619.000000	0.824647
3618.000000	0.824796
3617.000000	0.824983
3616.000000	0.825154
3615.000000	0.825275
3614.000000	0.825354
3613.000000	0.825423
3612.000000	0.825504
3611.000000	0.825595
3610.000000	0.825688
3609.000000	0.825788
3608.000000	0.825914
3607.000000	0.826079
3606.000000	0.826275
3605.000000	0.826474
3604.000000	0.826649
3603.000000	0.826788
3602.000000	0.826896
3601.000000	0.826988
3600.000000	0.827077
3599.000000	0.827164
3598.000000	0.827245
3597.000000	0.827316
3596.000000	0.827384
3595.000000	0.827466
3594.000000	0.827575
3593.000000	0.827703
3592.000000	0.827822
3591.000000	0.827900
3590.000000	0.827927
3589.000000	0.827930
3588.000000	0.827957
3587.000000	0.828049
3586.000000	0.828208
3585.000000	0.828404
3584.000000	0.828593
3583.000000	0.828746
3582.000000	0.828855
3581.000000	0.828935
3580.000000	0.829010
3579.000000	0.829098
3578.000000	0.829203
3577.000000	0.829310
3576.000000	0.829396
3575.000000	0.829453
3574.000000	0.829490
3573.000000	0.829523
3572.000000	0.829557
3571.000000	0.829583
3570.000000	0.829590
3569.000000	0.829582
3568.000000	0.829587
3567.000000	0.829636
3566.000000	0.829743
3565.000000	0.829890
3564.000000	0.830040
3563.000000	0.830166
3562.000000	0.830263
3561.000000	0.830342
3560.000000	0.830414
3559.000000	0.830482
3558.000000	0.830547
3557.000000	0.830609
3556.000000	0.830674
3555.000000	0.830740
3554.000000	0.830802
3553.000000	0.830851
3552.000000	0.830887
3551.000000	0.830919
3550.000000	0.830956
3549.000000	0.830997
3548.000000	0.831041
3547.000000	0.831088
3546.000000	0.831145
3545.000000	0.831219
3544.000000	0.831306
3543.000000	0.831398
3542.000000	0.831483
3541.000000	0.831557
3540.000000	0.831618
3539.000000	0.831668
3538.000000	0.831708
3537.000000	0.831741
3536.000000	0.831779
3535.000000	0.831834
3534.000000	0.831908
3533.000000	0.831988
3532.000000	0.832057
3531.000000	0.832108
3530.000000	0.832147
3529.000000	0.832183
3528.000000	0.832223
3527.000000	0.832271
3526.000000	0.832330
3525.000000	0.832395
3524.000000	0.832461
3523.000000	0.832522
3522.000000	0.832578
3521.000000	0.832637
3520.000000	0.832710
3519.000000	0.832804
3518.000000	0.832915
3517.000000	0.833025
3516.000000	0.833120
3515.000000	0.833192
3514.000000	0.833251
3513.000000	0.833312
3512.000000	0.833384
3511.000000	0.833472
3510.000000	0.833570
3509.000000	0.833673
3508.000000	0.833771
3507.000000	0.833860
3506.000000	0.833943
3505.000000	0.834028
3504.000000	0.834119
3503.000000	0.834220
3502.000000	0.834330
3501.000000	0.834447
3500.000000	0.834564
3499.000000	0.834675
3498.000000	0.834776
3497.000000	0.834867
3496.000000	0.834954
3495.000000	0.835044
3494.000000	0.835140
3493.000000	0.835243
3492.000000	0.835354
3491.000000	0.835469
3490.000000	0.835584
3489.000000	0.835689
3488.000000	0.835784
3487.000000	0.835879
3486.000000	0.835986
3485.000000	0.836103
3484.000000	0.836216
3483.000000	0.836317
3482.000000	0.836411
3481.000000	0.836514
3480.000000	0.836634
3479.000000	0.836763
3478.000000	0.836889
3477.000000	0.837005
3476.000000	0.837118
3475.000000	0.837240
3474.000000	0.837374
3473.000000	0.837512
3472.000000	0.837640
3471.000000	0.837755
3470.000000	0.837863
3469.000000	0.837970
3468.000000	0.838081
3467.000000	0.838199
3466.000000	0.838325
3465.000000	0.838461
3464.000000	0.838601
3463.000000	0.838742
3462.000000	0.838879
3461.000000	0.839011
3460.000000	0.839138
3459.000000	0.839258
3458.000000	0.839380
3457.000000	0.839509
3456.000000	0.839645
3455.000000	0.839777
3454.000000	0.839896
3453.000000	0.840005
3452.000000	0.840117
3451.000000	0.840239
3450.000000	0.840365
3449.000000	0.840477
3448.000000	0.840570
3447.000000	0.840653
3446.000000	0.840752
3445.000000	0.840882
3444.000000	0.841034
3443.000000	0.841187
3442.000000	0.841321
3441.000000	0.841430
3440.000000	0.841524
3439.000000	0.841617
3438.000000	0.841719
3437.000000	0.841827
3436.000000	0.841937
3435.000000	0.842042
3434.000000	0.842142
3433.000000	0.842242
3432.000000	0.842345
3431.000000	0.842451
3430.000000	0.842558
3429.000000	0.842667
3428.000000	0.842778
3427.000000	0.842888
3426.000000	0.842995
3425.000000	0.843097
3424.000000	0.843192
3423.000000	0.843275
3422.000000	0.843348
3421.000000	0.843417
3420.000000	0.843494
3419.000000	0.843583
3418.000000	0.843681
3417.000000	0.843780
3416.000000	0.843872
3415.000000	0.843958
3414.000000	0.844045
3413.000000	0.844137
3412.000000	0.844235
3411.000000	0.844331
3410.000000	0.844420
3409.000000	0.844498
3408.000000	0.844564
3407.000000	0.844623
3406.000000	0.844681
3405.000000	0.844746
3404.000000	0.844819
3403.000000	0.844893
3402.000000	0.844962
3401.000000	0.845022
3400.000000	0.845079
3399.000000	0.845138
3398.000000	0.845199
3397.000000	0.845261
3396.000000	0.845324
3395.000000	0.845386
3394.000000	0.845440
3393.000000	0.845478
3392.000000	0.845501
3391.000000	0.845519
3390.000000	0.845548
3389.000000	0.845593
3388.000000	0.845649
3387.000000	0.845699
3386.000000	0.845736
3385.000000	0.845763
3384.000000	0.845791
3383.000000	0.845831
3382.000000	0.845880
3381.000000	0.845935
3380.000000	0.845990
3379.000000	0.846045
3378.000000	0.846096
3377.000000	0.846142
3376.000000	0.846185
3375.000000	0.846230
3374.000000	0.846271
3373.000000	0.846293
3372.000000	0.846289
3371.000000	0.846272
3370.000000	0.846264
3369.000000	0.846284
3368.000000	0.846325
3367.000000	0.846374
3366.000000	0.846422
3365.000000	0.846473
3364.000000	0.846526
3363.000000	0.846574
3362.000000	0.846606
3361.000000	0.846622
3360.000000	0.846632
3359.000000	0.846649
3358.000000	0.846675
3357.000000	0.846709
3356.000000	0.846750
3355.000000	0.846795
3354.000000	0.846837
3353.000000	0.846867
3352.000000	0.846880
3351.000000	0.846887
3350.000000	0.846901
3349.000000	0.846926
3348.000000	0.846964
3347.000000	0.847009
3346.000000	0.847059
3345.000000	0.847100
3344.000000	0.847123
3343.000000	0.847131
3342.000000	0.847141
3341.000000	0.847168
3340.000000	0.847210
3339.000000	0.847252
3338.000000	0.847283
3337.000000	0.847307
3336.000000	0.847332
3335.000000	0.847359
3334.000000	0.847379
3333.000000	0.847385
3332.000000	0.847382
3331.000000	0.847386
3330.000000	0.847408
3329.000000	0.847447
3328.000000	0.847489
3327.000000	0.847523
3326.000000	0.847548
3325.000000	0.847572
3324.000000	0.847604
3323.000000	0.847647
3322.000000	0.847695
3321.000000	0.847737
3320.000000	0.847767
3319.000000	0.847790
3318.000000	0.847815
3317.000000	0.847847
3316.000000	0.847883
3315.000000	0.847914
3314.000000	0.847938
3313.000000	0.847959
3312.000000	0.847980
3311.000000	0.848005
3310.000000	0.848033
3309.000000	0.848061
3308.000000	0.848090
3307.000000	0.848119
3306.000000	0.848155
3305.000000	0.848202
3304.000000	0.848262
3303.000000	0.848330
3302.000000	0.848396
3301.000000	0.848450
3300.000000	0.848487
3299.000000	0.848508
3298.000000	0.848521
3297.000000	0.848536
3296.000000	0.848558
3295.000000	0.848591
3294.000000	0.848630
3293.000000	0.848670
3292.000000	0.848705
3291.000000	0.848736
3290.000000	0.848771
3289.000000	0.848817
3288.000000	0.848869
3287.000000	0.848919
3286.000000	0.848961
3285.000000	0.848996
3284.000000	0.849028
3283.000000	0.849058
3282.000000	0.849088
3281.000000	0.849121
3280.000000	0.849162
3279.000000	0.849208
3278.000000	0.849251
3277.000000	0.849285
3276.000000	0.849311
3275.000000	0.849334
3274.000000	0.849358
3273.000000	0.849380
3272.000000	0.849401
3271.000000	0.849429
3270.000000	0.849472
3269.000000	0.849524
3268.000000	0.849573
3267.000000	0.849610
3266.000000	0.849643
3265.000000	0.849681
3264.000000	0.849731
3263.000000	0.849789
3262.000000	0.849847
3261.000000	0.849898
3260.000000	0.849936
3259.000000	0.849965
3258.000000	0.849994
3257.000000	0.850033
3256.000000	0.850085
3255.000000	0.850146
3254.000000	0.850208
3253.000000	0.850260
3252.000000	0.850290
3251.000000	0.850297
3250.000000	0.850291
3249.000000	0.850293
3248.000000	0.850315
3247.000000	0.850359
3246.000000	0.850416
3245.000000	0.850477
3244.000000	0.850534
3243.000000	0.850587
3242.000000	0.850636
3241.000000	0.850677
3240.000000	0.850703
3239.000000	0.850711
3238.000000	0.850709
3237.000000	0.850709
3236.000000	0.850720
3235.000000	0.850744
3234.000000	0.850784
3233.000000	0.850835
3232.000000	0.850890
3231.000000	0.850936
3230.000000	0.850968
3229.000000	0.850996
3228.000000	0.851030
3227.000000	0.851071
3226.000000	0.851107
3225.000000	0.851129
3224.000000	0.851138
3223.000000	0.851149
3222.000000	0.851169
3221.000000	0.851192
3220.000000	0.851206
3219.000000	0.851212
3218.000000	0.851219
3217.000000	0.851236
3216.000000	0.851259
3215.000000	0.851282
3214.000000	0.851305
3213.000000	0.851334
3212.000000	0.851368
3211.000000	0.851404
3210.000000	0.851438
3209.000000	0.851466
3208.000000	0.851486
3207.000000	0.851498
3206.000000	0.851502
3205.000000	0.851511
3204.000000	0.851533
3203.000000	0.851567
3202.000000	0.851608
3201.000000	0.851650
3200.000000	0.851687
3199.000000	0.851713
3198.000000	0.851727
3197.000000	0.851736
3196.000000	0.851749
3195.000000	0.851774
3194.000000	0.851811
3193.000000	0.851857
3192.000000	0.851902
3191.000000	0.851929
3190.000000	0.851936
3189.000000	0.851934
3188.000000	0.851943
3187.000000	0.851971
3186.000000	0.852007
3185.000000	0.852036
3184.000000	0.852051
3183.000000	0.852062
3182.000000	0.852076
3181.000000	0.852098
3180.000000	0.852125
3179.000000	0.852153
3178.000000	0.852179
3177.000000	0.852199
3176.000000	0.852213
3175.000000	0.852223
3174.000000	0.852234
3173.000000	0.852250
3172.000000	0.852272
3171.000000	0.852298
3170.000000	0.852326
3169.000000	0.852356
3168.000000	0.852386
3167.000000	0.852417
3166.000000	0.852448
3165.000000	0.852481
3164.000000	0.852520
3163.000000	0.852562
3162.000000	0.852601
3161.000000	0.852631
3160.000000	0.852646
3159.000000	0.852651
3158.000000	0.852653
3157.000000	0.852663
3156.000000	0.852686
3155.000000	0.852716
3154.000000	0.852745
3153.000000	0.852769
3152.000000	0.852794
3151.000000	0.852829
3150.000000	0.852871
3149.000000	0.852913
3148.000000	0.852941
3147.000000	0.852953
3146.000000	0.852954
3145.000000	0.852963
3144.000000	0.852991
3143.000000	0.853035
3142.000000	0.853079
3141.000000	0.853110
3140.000000	0.853129
3139.000000	0.853144
3138.000000	0.853160
3137.000000	0.853176
3136.000000	0.853194
3135.000000	0.853219
3134.000000	0.853253
3133.000000	0.853291
3132.000000	0.853326
3131.000000	0.853362
3130.000000	0.853402
3129.000000	0.853449
3128.000000	0.853497
3127.000000	0.853539
3126.000000	0.853569
3125.000000	0.853587
3124.000000	0.853601
3123.000000	0.853622
3122.000000	0.853651
3121.000000	0.853684
3120.000000	0.853713
3119.000000	0.853735
3118.000000	0.853753
3117.000000	0.853771
3116.000000	0.853793
3115.000000	0.853818
3114.000000	0.853844
3113.000000	0.853870
3112.000000	0.853899
3111.000000	0.853928
3110.000000	0.853944
3109.000000	0.853942
3108.000000	0.853929
3107.000000	0.853928
3106.000000	0.853952
3105.000000	0.853994
3104.000000	0.854034
3103.000000	0.854055
3102.000000	0.854057
3101.000000	0.854053
3100.000000	0.854059
3099.000000	0.854081
3098.000000	0.854114
3097.000000	0.854149
3096.000000	0.854181
3095.000000	0.854207
3094.000000	0.854226
3093.000000	0.854232
3092.000000	0.854223
3091.000000	0.854206
3090.000000	0.854197
3089.000000	0.854201
3088.000000	0.854215
3087.000000	0.854229
3086.000000	0.854234
3085.000000	0.854230
3084.000000	0.854228
3083.000000	0.854235
3082.000000	0.854253
3081.000000	0.854271
3080.000000	0.854285
3079.000000	0.854298
3078.000000	0.854317
3077.000000	0.854340
3076.000000	0.854358
3075.000000	0.854368
3074.000000	0.854378
3073.000000	0.854390
3072.000000	0.854403
3071.000000	0.854411
3070.000000	0.854417
3069.000000	0.854428
3068.000000	0.854438
3067.000000	0.854442
3066.000000	0.854440
3065.000000	0.854444
3064.000000	0.854467
3063.000000	0.854507
3062.000000	0.854547
3061.000000	0.854574
3060.000000	0.854580
3059.000000	0.854569
3058.000000	0.854552
3057.000000	0.854544
3056.000000	0.854556
3055.000000	0.854587
3054.000000	0.854619
3053.000000	0.854635
3052.000000	0.854629
3051.000000	0.854613
3050.000000	0.854601
3049.000000	0.854597
3048.000000	0.854594
3047.000000	0.854591
3046.000000	0.854591
3045.000000	0.854595
3044.000000	0.854602
3043.000000	0.854611
3042.000000	0.854622
3041.000000	0.854638
3040.000000	0.854661
3039.000000	0.854685
3038.000000	0.854701
3037.000000	0.854705
3036.000000	0.854699
3035.000000	0.854700
3034.000000	0.854714
3033.000000	0.854739
3032.000000	0.854764
3031.000000	0.854784
3030.000000	0.854799
3029.000000	0.854811
3028.000000	0.854817
3027.000000	0.854815
3026.000000	0.854806
3025.000000	0.854791
3024.000000	0.854777
3023.000000	0.854778
3022.000000	0.854800
3021.000000	0.854838
3020.000000	0.854874
3019.000000	0.854890
3018.000000	0.854884
3017.000000	0.854869
3016.000000	0.854863
3015.000000	0.854866
3014.000000	0.854868
3013.000000	0.854859
3012.000000	0.854843
3011.000000	0.854838
3010.000000	0.854855
3009.000000	0.854885
3008.000000	0.854910
3007.000000	0.854920
3006.000000	0.854913
3005.000000	0.854897
3004.000000	0.854881
3003.000000	0.854873
3002.000000	0.854875
3001.000000	0.854883
3000.000000	0.854887
2999.000000	0.854884
2998.000000	0.854879
2997.000000	0.854879
2996.000000	0.854886
2995.000000	0.854891
2994.000000	0.854884
2993.000000	0.854866
2992.000000	0.854844
2991.000000	0.854830
2990.000000	0.854828
2989.000000	0.854838
2988.000000	0.854854
2987.000000	0.854873
2986.000000	0.854893
2985.000000	0.854910
2984.000000	0.854922
2983.000000	0.854933
2982.000000	0.854949
2981.000000	0.854972
2980.000000	0.855003
2979.000000	0.855036
2978.000000	0.855067
2977.000000	0.855090
2976.000000	0.855100
2975.000000	0.855101
2974.000000	0.855102
2973.000000	0.855110
2972.000000	0.855127
2971.000000	0.855145
2970.000000	0.855157
2969.000000	0.855161
2968.000000	0.855162
2967.000000	0.855163
2966.000000	0.855163
2965.000000	0.855156
2964.000000	0.855141
2963.000000	0.855125
2962.000000	0.855116
2961.000000	0.855116
2960.000000	0.855117
2959.000000	0.855115
2958.000000	0.855105
2957.000000	0.855085
2956.000000	0.855056
2955.000000	0.855023
2954.000000	0.854996
2953.000000	0.854980
2952.000000	0.854973
2951.000000	0.854970
2950.000000	0.854960
2949.000000	0.854936
2948.000000	0.854901
2947.000000	0.854873
2946.000000	0.854872
2945.000000	0.854897
2944.000000	0.854929
2943.000000	0.854947
2942.000000	0.854951
2941.000000	0.854952
2940.000000	0.854961
2939.000000	0.854974
2938.000000	0.854984
2937.000000	0.854981
2936.000000	0.854968
2935.000000	0.854954
2934.000000	0.854952
2933.000000	0.854965
2932.000000	0.854981
2931.000000	0.854995
2930.000000	0.855007
2929.000000	0.855022
2928.000000	0.855033
2927.000000	0.855026
2926.000000	0.854998
2925.000000	0.854958
2924.000000	0.854911
2923.000000	0.854858
2922.000000	0.854798
2921.000000	0.854740
2920.000000	0.854695
2919.000000	0.854665
2918.000000	0.854646
2917.000000	0.854632
2916.000000	0.854621
2915.000000	0.854618
2914.000000	0.854627
2913.000000	0.854644
2912.000000	0.854663
2911.000000	0.854679
2910.000000	0.854694
2909.000000	0.854713
2908.000000	0.854732
2907.000000	0.854736
2906.000000	0.854720
2905.000000	0.854693
2904.000000	0.854670
2903.000000	0.854658
2902.000000	0.854648
2901.000000	0.854633
2900.000000	0.854620
2899.000000	0.854619
2898.000000	0.854629
2897.000000	0.854642
2896.000000	0.854648
2895.000000	0.854646
2894.000000	0.854637
2893.000000	0.854623
2892.000000	0.854606
2891.000000	0.854588
2890.000000	0.854573
2889.000000	0.854563
2888.000000	0.854559
2887.000000	0.854559
2886.000000	0.854555
2885.000000	0.854538
2884.000000	0.854509
2883.000000	0.854479
2882.000000	0.854454
2881.000000	0.854429
2880.000000	0.854398
2879.000000	0.854368
2878.000000	0.854352
2877.000000	0.854352
2876.000000	0.854354
2875.000000	0.854348
2874.000000	0.854332
2873.000000	0.854314
2872.000000	0.854300
2871.000000	0.854289
2870.000000	0.854282
2869.000000	0.854282
2868.000000	0.854288
2867.000000	0.854292
2866.000000	0.854283
2865.000000	0.854251
2864.000000	0.854200
2863.000000	0.854140
2862.000000	0.854078
2861.000000	0.854018
2860.000000	0.853963
2859.000000	0.853913
2858.000000	0.853876
2857.000000	0.853857
2856.000000	0.853857
2855.000000	0.853869
2854.000000	0.853878
2853.000000	0.853872
2852.000000	0.853846
2851.000000	0.853804
2850.000000	0.853758
2849.000000	0.853718
2848.000000	0.853697
2847.000000	0.853699
2846.000000	0.853715
2845.000000	0.853726
2844.000000	0.853726
2843.000000	0.853720
2842.000000	0.853722
2841.000000	0.853733
2840.000000	0.853740
2839.000000	0.853739
2838.000000	0.853737
2837.000000	0.853740
2836.000000	0.853747
2835.000000	0.853746
2834.000000	0.853732
2833.000000	0.853708
2832.000000	0.853686
2831.000000	0.853671
2830.000000	0.853662
2829.000000	0.853655
2828.000000	0.853646
2827.000000	0.853639
2826.000000	0.853633
2825.000000	0.853629
2824.000000	0.853626
2823.000000	0.853620
2822.000000	0.853606
2821.000000	0.853578
2820.000000	0.853539
2819.000000	0.853501
2818.000000	0.853478
2817.000000	0.853473
2816.000000	0.853476
2815.000000	0.853472
2814.000000	0.853454
2813.000000	0.853427
2812.000000	0.853404
2811.000000	0.853393
2810.000000	0.853390
2809.000000	0.853382
2808.000000	0.853361
2807.000000	0.853332
2806.000000	0.853308
2805.000000	0.853291
2804.000000	0.853278
2803.000000	0.853268
2802.000000	0.853262
2801.000000	0.853260
2800.000000	0.853251
2799.000000	0.853229
2798.000000	0.853193
2797.000000	0.853153
2796.000000	0.853124
2795.000000	0.853115
2794.000000	0.853125
2793.000000	0.853139
2792.000000	0.853143
2791.000000	0.853134
2790.000000	0.853122
2789.000000	0.853117
2788.000000	0.853120
2787.000000	0.853121
2786.000000	0.853115
2785.000000	0.853101
2784.000000	0.853085
2783.000000	0.853073
2782.000000	0.853067
2781.000000	0.853062
2780.000000	0.853058
2779.000000	0.853056
2778.000000	0.853058
2777.000000	0.853058
2776.000000	0.853055
2775.000000	0.853052
2774.000000	0.853055
2773.000000	0.853060
2772.000000	0.853057
2771.000000	0.853041
2770.000000	0.853017
2769.000000	0.852997
2768.000000	0.852988
2767.000000	0.852991
2766.000000	0.853003
2765.000000	0.853016
2764.000000	0.853023
2763.000000	0.853024
2762.000000	0.853020
2761.000000	0.853013
2760.000000	0.853003
2759.000000	0.852989
2758.000000	0.852976
2757.000000	0.852973
2756.000000	0.852982
2755.000000	0.853000
2754.000000	0.853020
2753.000000	0.853030
2752.000000	0.853024
2751.000000	0.853006
2750.000000	0.852984
2749.000000	0.852967
2748.000000	0.852959
2747.000000	0.852965
2746.000000	0.852985
2745.000000	0.853008
2744.000000	0.853019
2743.000000	0.853012
2742.000000	0.852991
2741.000000	0.852971
2740.000000	0.852964
2739.000000	0.852975
2738.000000	0.853002
2737.000000	0.853036
2736.000000	0.853063
2735.000000	0.853076
2734.000000	0.853078
2733.000000	0.853075
2732.000000	0.853064
2731.000000	0.853047
2730.000000	0.853029
2729.000000	0.853014
2728.000000	0.853006
2727.000000	0.853005
2726.000000	0.853015
2725.000000	0.853034
2724.000000	0.853051
2723.000000	0.853056
2722.000000	0.853051
2721.000000	0.853044
2720.000000	0.853043
2719.000000	0.853044
2718.000000	0.853046
2717.000000	0.853057
2716.000000	0.853079
2715.000000	0.853104
2714.000000	0.853119
2713.000000	0.853119
2712.000000	0.853110
2711.000000	0.853105
2710.000000	0.853109
2709.000000	0.853122
2708.000000	0.853139
2707.000000	0.853152
2706.000000	0.853161
2705.000000	0.853166
2704.000000	0.853173
2703.000000	0.853185
2702.000000	0.853197
2701.000000	0.853207
2700.000000	0.853213
2699.000000	0.853218
2698.000000	0.853224
2697.000000	0.853234
2696.000000	0.853245
2695.000000	0.853261
2694.000000	0.853280
2693.000000	0.853300
2692.000000	0.853316
2691.000000	0.853326
2690.000000	0.853333
2689.000000	0.853340
2688.000000	0.853342
2687.000000	0.853340
2686.000000	0.853338
2685.000000	0.853343
2684.000000	0.853363
2683.000000	0.853394
2682.000000	0.853428
2681.000000	0.853455
2680.000000	0.853468
2679.000000	0.853469
2678.000000	0.853466
2677.000000	0.853465
2676.000000	0.853470
2675.000000	0.853487
2674.000000	0.853519
2673.000000	0.853561
2672.000000	0.853596
2671.000000	0.853609
2670.000000	0.853600
2669.000000	0.853586
2668.000000	0.853584
2667.000000	0.853599
2666.000000	0.853622
2665.000000	0.853643
2664.000000	0.853659
2663.000000	0.853673
2662.000000	0.853691
2661.000000	0.853715
2660.000000	0.853746
2659.000000	0.853777
2658.000000	0.853799
2657.000000	0.853803
2656.000000	0.853796
2655.000000	0.853795
2654.000000	0.853814
2653.000000	0.853853
2652.000000	0.853896
2651.000000	0.853932
2650.000000	0.853964
2649.000000	0.853998
2648.000000	0.854033
2647.000000	0.854064
2646.000000	0.854084
2645.000000	0.854094
2644.000000	0.854100
2643.000000	0.854111
2642.000000	0.854129
2641.000000	0.854151
2640.000000	0.854175
2639.000000	0.854202
2638.000000	0.854229
2637.000000	0.854250
2636.000000	0.854262
2635.000000	0.854269
2634.000000	0.854283
2633.000000	0.854305
2632.000000	0.854331
2631.000000	0.854352
2630.000000	0.854370
2629.000000	0.854392
2628.000000	0.854417
2627.000000	0.854442
2626.000000	0.854466
2625.000000	0.854493
2624.000000	0.854521
2623.000000	0.854546
2622.000000	0.854563
2621.000000	0.854572
2620.000000	0.854574
2619.000000	0.854576
2618.000000	0.854585
2617.000000	0.854606
2616.000000	0.854636
2615.000000	0.854667
2614.000000	0.854693
2613.000000	0.854709
2612.000000	0.854717
2611.000000	0.854720
2610.000000	0.854728
2609.000000	0.854747
2608.000000	0.854777
2607.000000	0.854812
2606.000000	0.854838
2605.000000	0.854849
2604.000000	0.854848
2603.000000	0.854849
2602.000000	0.854867
2601.000000	0.854905
2600.000000	0.854952
2599.000000	0.854991
2598.000000	0.855011
2597.000000	0.855020
2596.000000	0.855028
2595.000000	0.855041
2594.000000	0.855060
2593.000000	0.855079
2592.000000	0.855096
2591.000000	0.855111
2590.000000	0.855132
2589.000000	0.855159
2588.000000	0.855185
2587.000000	0.855204
2586.000000	0.855215
2585.000000	0.855230
2584.000000	0.855255
2583.000000	0.855291
2582.000000	0.855327
2581.000000	0.855350
2580.000000	0.855357
2579.000000	0.855356
2578.000000	0.855358
2577.000000	0.855367
2576.000000	0.855383
2575.000000	0.855408
2574.000000	0.855444
2573.000000	0.855483
2572.000000	0.855515
2571.000000	0.855538
2570.000000	0.855563
2569.000000	0.855598
2568.000000	0.855637
2567.000000	0.855665
2566.000000	0.855673
2565.000000	0.855665
2564.000000	0.855656
2563.000000	0.855659
2562.000000	0.855682
2561.000000	0.855720
2560.000000	0.855763
2559.000000	0.855800
2558.000000	0.855829
2557.000000	0.855854
2556.000000	0.855873
2555.000000	0.855885
2554.000000	0.855887
2553.000000	0.855885
2552.000000	0.855886
2551.000000	0.855897
2550.000000	0.855915
2549.000000	0.855936
2548.000000	0.855959
2547.000000	0.855990
2546.000000	0.856032
2545.000000	0.856079
2544.000000	0.856116
2543.000000	0.856136
2542.000000	0.856148
2541.000000	0.856162
2540.000000	0.856184
2539.000000	0.856209
2538.000000	0.856233
2537.000000	0.856249
2536.000000	0.856255
2535.000000	0.856254
2534.000000	0.856253
2533.000000	0.856257
2532.000000	0.856268
2531.000000	0.856286
2530.000000	0.856311
2529.000000	0.856338
2528.000000	0.856359
2527.000000	0.856368
2526.000000	0.856371
2525.000000	0.856380
2524.000000	0.856402
2523.000000	0.856435
2522.000000	0.856469
2521.000000	0.856497
2520.000000	0.856520
2519.000000	0.856541
2518.000000	0.856564
2517.000000	0.856587
2516.000000	0.856606
2515.000000	0.856622
2514.000000	0.856638
2513.000000	0.856651
2512.000000	0.856658
2511.000000	0.856663
2510.000000	0.856676
2509.000000	0.856700
2508.000000	0.856731
2507.000000	0.856755
2506.000000	0.856773
2505.000000	0.856786
2504.000000	0.856797
2503.000000	0.856810
2502.000000	0.856833
2501.000000	0.856872
2500.000000	0.856920
2499.000000	0.856959
2498.000000	0.856980
2497.000000	0.856992
2496.000000	0.857009
2495.000000	0.857035
2494.000000	0.857064
2493.000000	0.857088
2492.000000	0.857104
2491.000000	0.857117
2490.000000	0.857131
2489.000000	0.857147
2488.000000	0.857158
2487.000000	0.857162
2486.000000	0.857170
2485.000000	0.857192
2484.000000	0.857227
2483.000000	0.857258
2482.000000	0.857277
2481.000000	0.857286
2480.000000	0.857294
2479.000000	0.857305
2478.000000	0.857321
2477.000000	0.857343
2476.000000	0.857367
2475.000000	0.857386
2474.000000	0.857401
2473.000000	0.857421
2472.000000	0.857452
2471.000000	0.857491
2470.000000	0.857525
2469.000000	0.857551
2468.000000	0.857579
2467.000000	0.857614
2466.000000	0.857651
2465.000000	0.857679
2464.000000	0.857700
2463.000000	0.857724
2462.000000	0.857760
2461.000000	0.857804
2460.000000	0.857845
2459.000000	0.857876
2458.000000	0.857901
2457.000000	0.857925
2456.000000	0.857952
2455.000000	0.857985
2454.000000	0.858020
2453.000000	0.858058
2452.000000	0.858099
2451.000000	0.858147
2450.000000	0.858203
2449.000000	0.858261
2448.000000	0.858310
2447.000000	0.858351
2446.000000	0.858396
2445.000000	0.858456
2444.000000	0.858526
2443.000000	0.858600
2442.000000	0.858676
2441.000000	0.858760
2440.000000	0.858852
2439.000000	0.858942
2438.000000	0.859028
2437.000000	0.859117
2436.000000	0.859210
2435.000000	0.859298
2434.000000	0.859367
2433.000000	0.859419
2432.000000	0.859467
2431.000000	0.859518
2430.000000	0.859568
2429.000000	0.859606
2428.000000	0.859633
2427.000000	0.859653
2426.000000	0.859667
2425.000000	0.859667
2424.000000	0.859648
2423.000000	0.859616
2422.000000	0.859580
2421.000000	0.859542
2420.000000	0.859500
2419.000000	0.859451
2418.000000	0.859398
2417.000000	0.859341
2416.000000	0.859281
2415.000000	0.859223
2414.000000	0.859178
2413.000000	0.859148
2412.000000	0.859124
2411.000000	0.859092
2410.000000	0.859050
2409.000000	0.859006
2408.000000	0.858973
2407.000000	0.858953
2406.000000	0.858944
2405.000000	0.858942
2404.000000	0.858949
2403.000000	0.858961
2402.000000	0.858971
2401.000000	0.858969
2400.000000	0.858952
2399.000000	0.858926
2398.000000	0.858905
2397.000000	0.858901
2396.000000	0.858912
2395.000000	0.858926
2394.000000	0.858933
2393.000000	0.858932
2392.000000	0.858935
2391.000000	0.858950
2390.000000	0.858975
2389.000000	0.858994
2388.000000	0.858997
2387.000000	0.858984
2386.000000	0.858965
2385.000000	0.858941
2384.000000	0.858905
2383.000000	0.858857
2382.000000	0.858801
2381.000000	0.858742
2380.000000	0.858668
2379.000000	0.858561
2378.000000	0.858415
2377.000000	0.858233
2376.000000	0.858025
2375.000000	0.857796
2374.000000	0.857543
2373.000000	0.857264
2372.000000	0.856962
2371.000000	0.856652
2370.000000	0.856345
2369.000000	0.856052
2368.000000	0.855777
2367.000000	0.855522
2366.000000	0.855297
2365.000000	0.855110
2364.000000	0.854969
2363.000000	0.854877
2362.000000	0.854838
2361.000000	0.854856
2360.000000	0.854940
2359.000000	0.855090
2358.000000	0.855305
2357.000000	0.855578
2356.000000	0.855907
2355.000000	0.856293
2354.000000	0.856734
2353.000000	0.857214
2352.000000	0.857698
2351.000000	0.858126
2350.000000	0.858427
2349.000000	0.858541
2348.000000	0.858450
2347.000000	0.858197
2346.000000	0.857866
2345.000000	0.857539
2344.000000	0.857269
2343.000000	0.857070
2342.000000	0.856930
2341.000000	0.856829
2340.000000	0.856744
2339.000000	0.856666
2338.000000	0.856600
2337.000000	0.856555
2336.000000	0.856537
2335.000000	0.856549
2334.000000	0.856595
2333.000000	0.856672
2332.000000	0.856774
2331.000000	0.856896
2330.000000	0.857031
2329.000000	0.857177
2328.000000	0.857332
2327.000000	0.857498
2326.000000	0.857675
2325.000000	0.857855
2324.000000	0.858027
2323.000000	0.858187
2322.000000	0.858345
2321.000000	0.858508
2320.000000	0.858672
2319.000000	0.858827
2318.000000	0.858970
2317.000000	0.859103
2316.000000	0.859229
2315.000000	0.859347
2314.000000	0.859458
2313.000000	0.859567
2312.000000	0.859675
2311.000000	0.859780
2310.000000	0.859876
2309.000000	0.859957
2308.000000	0.860020
2307.000000	0.860072
2306.000000	0.860125
2305.000000	0.860190
2304.000000	0.860264
2303.000000	0.860336
2302.000000	0.860395
2301.000000	0.860442
2300.000000	0.860478
2299.000000	0.860510
2298.000000	0.860540
2297.000000	0.860567
2296.000000	0.860589
2295.000000	0.860608
2294.000000	0.860629
2293.000000	0.860660
2292.000000	0.860695
2291.000000	0.860724
2290.000000	0.860743
2289.000000	0.860759
2288.000000	0.860786
2287.000000	0.860828
2286.000000	0.860877
2285.000000	0.860921
2284.000000	0.860953
2283.000000	0.860977
2282.000000	0.861004
2281.000000	0.861038
2280.000000	0.861073
2279.000000	0.861102
2278.000000	0.861122
2277.000000	0.861136
2276.000000	0.861153
2275.000000	0.861179
2274.000000	0.861211
2273.000000	0.861240
2272.000000	0.861261
2271.000000	0.861272
2270.000000	0.861278
2269.000000	0.861281
2268.000000	0.861287
2267.000000	0.861302
2266.000000	0.861328
2265.000000	0.861359
2264.000000	0.861390
2263.000000	0.861422
2262.000000	0.861460
2261.000000	0.861501
2260.000000	0.861536
2259.000000	0.861555
2258.000000	0.861560
2257.000000	0.861559
2256.000000	0.861560
2255.000000	0.861567
2254.000000	0.861581
2253.000000	0.861598
2252.000000	0.861615
2251.000000	0.861633
2250.000000	0.861656
2249.000000	0.861679
2248.000000	0.861696
2247.000000	0.861706
2246.000000	0.861715
2245.000000	0.861727
2244.000000	0.861738
2243.000000	0.861744
2242.000000	0.861749
2241.000000	0.861764
2240.000000	0.861788
2239.000000	0.861815
2238.000000	0.861839
2237.000000	0.861855
2236.000000	0.861867
2235.000000	0.861876
2234.000000	0.861883
2233.000000	0.861884
2232.000000	0.861881
2231.000000	0.861884
2230.000000	0.861900
2229.000000	0.861929
2228.000000	0.861953
2227.000000	0.861962
2226.000000	0.861965
2225.000000	0.861977
2224.000000	0.861998
2223.000000	0.862019
2222.000000	0.862033
2221.000000	0.862041
2220.000000	0.862043
2219.000000	0.862038
2218.000000	0.862028
2217.000000	0.862023
2216.000000	0.862029
2215.000000	0.862043
2214.000000	0.862062
2213.000000	0.862082
2212.000000	0.862103
2211.000000	0.862119
2210.000000	0.862124
2209.000000	0.862121
2208.000000	0.862114
2207.000000	0.862112
2206.000000	0.862120
2205.000000	0.862137
2204.000000	0.862157
2203.000000	0.862177
2202.000000	0.862193
2201.000000	0.862196
2200.000000	0.862179
2199.000000	0.862147
2198.000000	0.862117
2197.000000	0.862108
2196.000000	0.862120
2195.000000	0.862138
2194.000000	0.862151
2193.000000	0.862160
2192.000000	0.862168
2191.000000	0.862171
2190.000000	0.862164
2189.000000	0.862144
2188.000000	0.862122
2187.000000	0.862114
2186.000000	0.862127
2185.000000	0.862150
2184.000000	0.862167
2183.000000	0.862169
2182.000000	0.862163
2181.000000	0.862160
2180.000000	0.862166
2179.000000	0.862172
2178.000000	0.862173
2177.000000	0.862163
2176.000000	0.862145
2175.000000	0.862124
2174.000000	0.862110
2173.000000	0.862108
2172.000000	0.862114
2171.000000	0.862119
2170.000000	0.862118
2169.000000	0.862111
2168.000000	0.862099
2167.000000	0.862082
2166.000000	0.862062
2165.000000	0.862045
2164.000000	0.862036
2163.000000	0.862032
2162.000000	0.862033
2161.000000	0.862037
2160.000000	0.862043
2159.000000	0.862043
2158.000000	0.862032
2157.000000	0.862010
2156.000000	0.861983
2155.000000	0.861958
2154.000000	0.861940
2153.000000	0.861925
2152.000000	0.861910
2151.000000	0.861893
2150.000000	0.861879
2149.000000	0.861874
2148.000000	0.861876
2147.000000	0.861883
2146.000000	0.861890
2145.000000	0.861890
2144.000000	0.861882
2143.000000	0.861869
2142.000000	0.861854
2141.000000	0.861842
2140.000000	0.861829
2139.000000	0.861814
2138.000000	0.861800
2137.000000	0.861792
2136.000000	0.861789
2135.000000	0.861787
2134.000000	0.861780
2133.000000	0.861762
2132.000000	0.861731
2131.000000	0.861693
2130.000000	0.861660
2129.000000	0.861639
2128.000000	0.861632
2127.000000	0.861633
2126.000000	0.861635
2125.000000	0.861629
2124.000000	0.861608
2123.000000	0.861578
2122.000000	0.861551
2121.000000	0.861538
2120.000000	0.861533
2119.000000	0.861527
2118.000000	0.861514
2117.000000	0.861499
2116.000000	0.861487
2115.000000	0.861473
2114.000000	0.861456
2113.000000	0.861431
2112.000000	0.861403
2111.000000	0.861377
2110.000000	0.861364
2109.000000	0.861364
2108.000000	0.861367
2107.000000	0.861363
2106.000000	0.861353
2105.000000	0.861339
2104.000000	0.861320
2103.000000	0.861294
2102.000000	0.861265
2101.000000	0.861242
2100.000000	0.861228
2099.000000	0.861221
2098.000000	0.861218
2097.000000	0.861214
2096.000000	0.861202
2095.000000	0.861178
2094.000000	0.861150
2093.000000	0.861132
2092.000000	0.861128
2091.000000	0.861129
2090.000000	0.861126
2089.000000	0.861119
2088.000000	0.861113
2087.000000	0.861113
2086.000000	0.861119
2085.000000	0.861124
2084.000000	0.861123
2083.000000	0.861108
2082.000000	0.861083
2081.000000	0.861055
2080.000000	0.861027
2079.000000	0.861001
2078.000000	0.860980
2077.000000	0.860965
2076.000000	0.860954
2075.000000	0.860942
2074.000000	0.860933
2073.000000	0.860927
2072.000000	0.860922
2071.000000	0.860907
2070.000000	0.860881
2069.000000	0.860854
2068.000000	0.860834
2067.000000	0.860823
2066.000000	0.860813
2065.000000	0.860798
2064.000000	0.860778
2063.000000	0.860758
2062.000000	0.860747
2061.000000	0.860744
2060.000000	0.860741
2059.000000	0.860731
2058.000000	0.860715
2057.000000	0.860703
2056.000000	0.860700
2055.000000	0.860702
2054.000000	0.860698
2053.000000	0.860683
2052.000000	0.860656
2051.000000	0.860624
2050.000000	0.860600
2049.000000	0.860589
2048.000000	0.860588
2047.000000	0.860588
2046.000000	0.860583
2045.000000	0.860569
2044.000000	0.860549
2043.000000	0.860526
2042.000000	0.860506
2041.000000	0.860490
2040.000000	0.860478
2039.000000	0.860469
2038.000000	0.860463
2037.000000	0.860457
2036.000000	0.860441
2035.000000	0.860413
2034.000000	0.860385
2033.000000	0.860373
2032.000000	0.860376
2031.000000	0.860384
2030.000000	0.860388
2029.000000	0.860386
2028.000000	0.860377
2027.000000	0.860359
2026.000000	0.860338
2025.000000	0.860322
2024.000000	0.860314
2023.000000	0.860308
2022.000000	0.860299
2021.000000	0.860286
2020.000000	0.860273
2019.000000	0.860258
2018.000000	0.860236
2017.000000	0.860209
2016.000000	0.860179
2015.000000	0.860155
2014.000000	0.860145
2013.000000	0.860146
2012.000000	0.860151
2011.000000	0.860150
2010.000000	0.860141
2009.000000	0.860136
2008.000000	0.860138
2007.000000	0.860142
2006.000000	0.860147
2005.000000	0.860153
2004.000000	0.860158
2003.000000	0.860155
2002.000000	0.860141
2001.000000	0.860121
2000.000000	0.860107
1999.000000	0.860102
1998.000000	0.860104
1997.000000	0.860102
1996.000000	0.860091
1995.000000	0.860066
1994.000000	0.860028
1993.000000	0.859988
1992.000000	0.859960
1991.000000	0.859958
1990.000000	0.859977
1989.000000	0.860003
1988.000000	0.860019
1987.000000	0.860020
1986.000000	0.860010
1985.000000	0.859999
1984.000000	0.859991
1983.000000	0.859989
1982.000000	0.859992
1981.000000	0.859997
1980.000000	0.859999
1979.000000	0.859996
1978.000000	0.859990
1977.000000	0.859981
1976.000000	0.859969
1975.000000	0.859958
1974.000000	0.859959
1973.000000	0.859975
1972.000000	0.860001
1971.000000	0.860023
1970.000000	0.860036
1969.000000	0.860036
1968.000000	0.860027
1967.000000	0.860017
1966.000000	0.860018
1965.000000	0.860029
1964.000000	0.860040
1963.000000	0.860045
1962.000000	0.860051
1961.000000	0.860066
1960.000000	0.860078
1959.000000	0.860078
1958.000000	0.860068
1957.000000	0.860064
1956.000000	0.860075
1955.000000	0.860094
1954.000000	0.860112
1953.000000	0.860123
1952.000000	0.860126
1951.000000	0.860124
1950.000000	0.860121
1949.000000	0.860123
1948.000000	0.860130
1947.000000	0.860140
1946.000000	0.860145
1945.000000	0.860139
1944.000000	0.860120
1943.000000	0.860101
1942.000000	0.860108
1941.000000	0.860150
1940.000000	0.860211
1939.000000	0.860262
1938.000000	0.860290
1937.000000	0.860299
1936.000000	0.860301
1935.000000	0.860304
1934.000000	0.860313
1933.000000	0.860326
1932.000000	0.860339
1931.000000	0.860347
1930.000000	0.860353
1929.000000	0.860361
1928.000000	0.860371
1927.000000	0.860381
1926.000000	0.860391
1925.000000	0.860400
1924.000000	0.860401
1923.000000	0.860393
1922.000000	0.860381
1921.000000	0.860362
1920.000000	0.860330
1919.000000	0.860297
1918.000000	0.860301
1917.000000	0.860366
1916.000000	0.860468
1915.000000	0.860557
1914.000000	0.860606
1913.000000	0.860625
1912.000000	0.860635
1911.000000	0.860643
1910.000000	0.860656
1909.000000	0.860681
1908.000000	0.860715
1907.000000	0.860745
1906.000000	0.860771
1905.000000	0.860801
1904.000000	0.860834
1903.000000	0.860859
1902.000000	0.860872
1901.000000	0.860882
1900.000000	0.860896
1899.000000	0.860907
1898.000000	0.860907
1897.000000	0.860901
1896.000000	0.860896
1895.000000	0.860897
1894.000000	0.860903
1893.000000	0.860912
1892.000000	0.860910
1891.000000	0.860893
1890.000000	0.860874
1889.000000	0.860885
1888.000000	0.860935
1887.000000	0.861000
1886.000000	0.861050
1885.000000	0.861078
1884.000000	0.861093
1883.000000	0.861106
1882.000000	0.861120
1881.000000	0.861134
1880.000000	0.861148
1879.000000	0.861162
1878.000000	0.861182
1877.000000	0.861208
1876.000000	0.861229
1875.000000	0.861236
1874.000000	0.861236
1873.000000	0.861233
1872.000000	0.861208
1871.000000	0.861142
1870.000000	0.861057
1869.000000	0.861013
1868.000000	0.861047
1867.000000	0.861138
1866.000000	0.861235
1865.000000	0.861309
1864.000000	0.861357
1863.000000	0.861385
1862.000000	0.861394
1861.000000	0.861396
1860.000000	0.861406
1859.000000	0.861428
1858.000000	0.861456
1857.000000	0.861482
1856.000000	0.861501
1855.000000	0.861510
1854.000000	0.861516
1853.000000	0.861525
1852.000000	0.861535
1851.000000	0.861538
1850.000000	0.861534
1849.000000	0.861526
1848.000000	0.861493
1847.000000	0.861404
1846.000000	0.861261
1845.000000	0.861132
1844.000000	0.861107
1843.000000	0.861215
1842.000000	0.861397
1841.000000	0.861559
1840.000000	0.861645
1839.000000	0.861670
1838.000000	0.861677
1837.000000	0.861692
1836.000000	0.861714
1835.000000	0.861729
1834.000000	0.861726
1833.000000	0.861692
1832.000000	0.861623
1831.000000	0.861546
1830.000000	0.861515
1829.000000	0.861564
1828.000000	0.861653
1827.000000	0.861712
1826.000000	0.861722
1825.000000	0.861731
1824.000000	0.861789
1823.000000	0.861884
1822.000000	0.861970
1821.000000	0.862022
1820.000000	0.862049
1819.000000	0.862070
1818.000000	0.862094
1817.000000	0.862126
1816.000000	0.862163
1815.000000	0.862189
1814.000000	0.862192
1813.000000	0.862176
1812.000000	0.862158
1811.000000	0.862152
1810.000000	0.862164
1809.000000	0.862197
1808.000000	0.862243
1807.000000	0.862286
1806.000000	0.862308
1805.000000	0.862302
1804.000000	0.862265
1803.000000	0.862206
1802.000000	0.862149
1801.000000	0.862124
1800.000000	0.862141
1799.000000	0.862186
1798.000000	0.862239
1797.000000	0.862279
1796.000000	0.862267
1795.000000	0.862167
1794.000000	0.862002
1793.000000	0.861866
1792.000000	0.861856
1791.000000	0.861987
1790.000000	0.862182
1789.000000	0.862345
1788.000000	0.862420
1787.000000	0.862410
1786.000000	0.862370
1785.000000	0.862357
1784.000000	0.862386
1783.000000	0.862424
1782.000000	0.862445
1781.000000	0.862464
1780.000000	0.862509
1779.000000	0.862574
1778.000000	0.862626
1777.000000	0.862637
1776.000000	0.862576
1775.000000	0.862416
1774.000000	0.862185
1773.000000	0.862000
1772.000000	0.861985
1771.000000	0.862142
1770.000000	0.862349
1769.000000	0.862500
1768.000000	0.862603
1767.000000	0.862723
1766.000000	0.862860
1765.000000	0.862946
1764.000000	0.862926
1763.000000	0.862839
1762.000000	0.862781
1761.000000	0.862815
1760.000000	0.862915
1759.000000	0.862994
1758.000000	0.863010
1757.000000	0.863002
1756.000000	0.863034
1755.000000	0.863093
1754.000000	0.863086
1753.000000	0.862964
1752.000000	0.862797
1751.000000	0.862711
1750.000000	0.862766
1749.000000	0.862914
1748.000000	0.863075
1747.000000	0.863205
1746.000000	0.863305
1745.000000	0.863378
1744.000000	0.863421
1743.000000	0.863428
1742.000000	0.863392
1741.000000	0.863336
1740.000000	0.863319
1739.000000	0.863382
1738.000000	0.863454
1737.000000	0.863374
1736.000000	0.863056
1735.000000	0.862653
1734.000000	0.862464
1733.000000	0.862654
1732.000000	0.863099
1731.000000	0.863541
1730.000000	0.863830
1729.000000	0.863988
1728.000000	0.864090
1727.000000	0.864160
1726.000000	0.864189
1725.000000	0.864188
1724.000000	0.864185
1723.000000	0.864191
1722.000000	0.864174
1721.000000	0.864059
1720.000000	0.863779
1719.000000	0.863382
1718.000000	0.863058
1717.000000	0.863005
1716.000000	0.863245
1715.000000	0.863619
1714.000000	0.863961
1713.000000	0.864216
1712.000000	0.864394
1711.000000	0.864500
1710.000000	0.864537
1709.000000	0.864533
1708.000000	0.864502
1707.000000	0.864438
1706.000000	0.864372
1705.000000	0.864355
1704.000000	0.864335
1703.000000	0.864141
1702.000000	0.863706
1701.000000	0.863247
1700.000000	0.863072
1699.000000	0.863211
1698.000000	0.863396
1697.000000	0.863435
1696.000000	0.863462
1695.000000	0.863724
1694.000000	0.864228
1693.000000	0.864728
1692.000000	0.865011
1691.000000	0.865087
1690.000000	0.865089
1689.000000	0.865067
1688.000000	0.864922
1687.000000	0.864538
1686.000000	0.863981
1685.000000	0.863544
1684.000000	0.863530
1683.000000	0.863962
1682.000000	0.864564
1681.000000	0.865037
1680.000000	0.865289
1679.000000	0.865373
1678.000000	0.865325
1677.000000	0.865151
1676.000000	0.864945
1675.000000	0.864870
1674.000000	0.864982
1673.000000	0.865146
1672.000000	0.865195
1671.000000	0.865113
1670.000000	0.865040
1669.000000	0.865107
1668.000000	0.865323
1667.000000	0.865582
1666.000000	0.865749
1665.000000	0.865752
1664.000000	0.865638
1663.000000	0.865548
1662.000000	0.865593
1661.000000	0.865757
1660.000000	0.865931
1659.000000	0.866032
1658.000000	0.866029
1657.000000	0.865851
1656.000000	0.865370
1655.000000	0.864577
1654.000000	0.863772
1653.000000	0.863436
1652.000000	0.863813
1651.000000	0.864636
1650.000000	0.865358
1649.000000	0.865626
1648.000000	0.865503
1647.000000	0.865311
1646.000000	0.865322
1645.000000	0.865584
1644.000000	0.865958
1643.000000	0.866266
1642.000000	0.866418
1641.000000	0.866438
1640.000000	0.866385
1639.000000	0.866251
1638.000000	0.865985
1637.000000	0.865633
1636.000000	0.865390
1635.000000	0.865447
1634.000000	0.865792
1633.000000	0.866219
1632.000000	0.866523
1631.000000	0.866642
1630.000000	0.866637
1629.000000	0.866591
1628.000000	0.866558
1627.000000	0.866540
1626.000000	0.866505
1625.000000	0.866426
1624.000000	0.866336
1623.000000	0.866320
1622.000000	0.866418
1621.000000	0.866546
1620.000000	0.866538
1619.000000	0.866303
1618.000000	0.865951
1617.000000	0.865737
1616.000000	0.865848
1615.000000	0.866242
1614.000000	0.866699
1613.000000	0.867018
1612.000000	0.867156
1611.000000	0.867186
1610.000000	0.867183
1609.000000	0.867173
1608.000000	0.867168
1607.000000	0.867180
1606.000000	0.867208
1605.000000	0.867236
1604.000000	0.867260
1603.000000	0.867292
1602.000000	0.867334
1601.000000	0.867370
1600.000000	0.867386
1599.000000	0.867391
1598.000000	0.867398
1597.000000	0.867409
1596.000000	0.867427
1595.000000	0.867459
1594.000000	0.867501
1593.000000	0.867539
1592.000000	0.867558
1591.000000	0.867563
1590.000000	0.867567
1589.000000	0.867580
1588.000000	0.867597
1587.000000	0.867621
1586.000000	0.867651
1585.000000	0.867678
1584.000000	0.867690
1583.000000	0.867690
1582.000000	0.867698
1581.000000	0.867716
1580.000000	0.867681
1579.000000	0.867493
1578.000000	0.867132
1577.000000	0.866756
1576.000000	0.866619
1575.000000	0.866840
1574.000000	0.867257
1573.000000	0.867572
1572.000000	0.867620
1571.000000	0.867490
1570.000000	0.867390
1569.000000	0.867446
1568.000000	0.867624
1567.000000	0.867807
1566.000000	0.867913
1565.000000	0.867939
1564.000000	0.867893
1563.000000	0.867708
1562.000000	0.867265
1561.000000	0.866562
1560.000000	0.865859
1559.000000	0.865545
1558.000000	0.865783
1557.000000	0.866356
1556.000000	0.866907
1555.000000	0.867260
1554.000000	0.867480
1553.000000	0.867674
1552.000000	0.867856
1551.000000	0.867996
1550.000000	0.868094
1549.000000	0.868161
1548.000000	0.868165
1547.000000	0.868067
1546.000000	0.867877
1545.000000	0.867644
1544.000000	0.867384
1543.000000	0.867061
1542.000000	0.866657
1541.000000	0.866269
1540.000000	0.866108
1539.000000	0.866351
1538.000000	0.866938
1537.000000	0.867570
1536.000000	0.867939
1535.000000	0.867989
1534.000000	0.867919
1533.000000	0.867949
1532.000000	0.868116
1531.000000	0.868299
1530.000000	0.868385
1529.000000	0.868348
1528.000000	0.868234
1527.000000	0.868111
1526.000000	0.868029
1525.000000	0.867959
1524.000000	0.867805
1523.000000	0.867535
1522.000000	0.867283
1521.000000	0.867244
1520.000000	0.867461
1519.000000	0.867769
1518.000000	0.867992
1517.000000	0.868123
1516.000000	0.868255
1515.000000	0.868414
1514.000000	0.868529
1513.000000	0.868548
1512.000000	0.868499
1511.000000	0.868402
1510.000000	0.868193
1509.000000	0.867800
1508.000000	0.867300
1507.000000	0.866955
1506.000000	0.867016
1505.000000	0.867499
1504.000000	0.868156
1503.000000	0.868688
1502.000000	0.868960
1501.000000	0.869026
1500.000000	0.868988
