PE IR       SUBTECH     SPECTRUM    ASCII       PEDS        4.00        
   -1
TE108B1_010_1.ASC
20/02/21
14:58:03.00
20/02/21
14:58:03.00
Administrator
Sample 010 By Administrator Date Friday, February 21 2020
1500.000000
#HDR
-1
-1
#GR
cm-1
A
1.0
0.0
4000.000000
-1.000000
2501
8
1.070339
0.983811
#DATA
4000.000000	0.998325
3999.000000	0.998267
3998.000000	0.998219
3997.000000	0.998185
3996.000000	0.998174
3995.000000	0.998180
3994.000000	0.998191
3993.000000	0.998195
3992.000000	0.998203
3991.000000	0.998230
3990.000000	0.998269
3989.000000	0.998297
3988.000000	0.998288
3987.000000	0.998238
3986.000000	0.998163
3985.000000	0.998089
3984.000000	0.998039
3983.000000	0.998013
3982.000000	0.997987
3981.000000	0.997928
3980.000000	0.997826
3979.000000	0.997696
3978.000000	0.997568
3977.000000	0.997461
3976.000000	0.997395
3975.000000	0.997380
3974.000000	0.997407
3973.000000	0.997446
3972.000000	0.997459
3971.000000	0.997429
3970.000000	0.997362
3969.000000	0.997280
3968.000000	0.997204
3967.000000	0.997139
3966.000000	0.997081
3965.000000	0.997016
3964.000000	0.996936
3963.000000	0.996841
3962.000000	0.996734
3961.000000	0.996622
3960.000000	0.996521
3959.000000	0.996452
3958.000000	0.996427
3957.000000	0.996435
3956.000000	0.996456
3955.000000	0.996466
3954.000000	0.996443
3953.000000	0.996374
3952.000000	0.996261
3951.000000	0.996115
3950.000000	0.995947
3949.000000	0.995762
3948.000000	0.995573
3947.000000	0.995405
3946.000000	0.995275
3945.000000	0.995176
3944.000000	0.995074
3943.000000	0.994940
3942.000000	0.994777
3941.000000	0.994619
3940.000000	0.994504
3939.000000	0.994450
3938.000000	0.994440
3937.000000	0.994439
3936.000000	0.994416
3935.000000	0.994344
3934.000000	0.994208
3933.000000	0.994016
3932.000000	0.993811
3931.000000	0.993642
3930.000000	0.993524
3929.000000	0.993430
3928.000000	0.993324
3927.000000	0.993208
3926.000000	0.993105
3925.000000	0.993014
3924.000000	0.992905
3923.000000	0.992754
3922.000000	0.992570
3921.000000	0.992377
3920.000000	0.992196
3919.000000	0.992042
3918.000000	0.991933
3917.000000	0.991866
3916.000000	0.991811
3915.000000	0.991727
3914.000000	0.991591
3913.000000	0.991413
3912.000000	0.991231
3911.000000	0.991080
3910.000000	0.990956
3909.000000	0.990822
3908.000000	0.990646
3907.000000	0.990438
3906.000000	0.990242
3905.000000	0.990091
3904.000000	0.989986
3903.000000	0.989910
3902.000000	0.989856
3901.000000	0.989810
3900.000000	0.989742
3899.000000	0.989623
3898.000000	0.989468
3897.000000	0.989326
3896.000000	0.989218
3895.000000	0.989109
3894.000000	0.988960
3893.000000	0.988785
3892.000000	0.988637
3891.000000	0.988530
3890.000000	0.988423
3889.000000	0.988296
3888.000000	0.988184
3887.000000	0.988123
3886.000000	0.988087
3885.000000	0.987999
3884.000000	0.987836
3883.000000	0.987650
3882.000000	0.987500
3881.000000	0.987392
3880.000000	0.987296
3879.000000	0.987189
3878.000000	0.987083
3877.000000	0.987011
3876.000000	0.986986
3875.000000	0.986972
3874.000000	0.986907
3873.000000	0.986774
3872.000000	0.986621
3871.000000	0.986501
3870.000000	0.986398
3869.000000	0.986254
3868.000000	0.986086
3867.000000	0.985976
3866.000000	0.985954
3865.000000	0.985969
3864.000000	0.985969
3863.000000	0.985950
3862.000000	0.985917
3861.000000	0.985839
3860.000000	0.985701
3859.000000	0.985538
3858.000000	0.985404
3857.000000	0.985324
3856.000000	0.985292
3855.000000	0.985289
3854.000000	0.985260
3853.000000	0.985138
3852.000000	0.984959
3851.000000	0.984846
3850.000000	0.984849
3849.000000	0.984903
3848.000000	0.984929
3847.000000	0.984907
3846.000000	0.984851
3845.000000	0.984776
3844.000000	0.984692
3843.000000	0.984614
3842.000000	0.984552
3841.000000	0.984505
3840.000000	0.984460
3839.000000	0.984413
3838.000000	0.984368
3837.000000	0.984341
3836.000000	0.984344
3835.000000	0.984375
3834.000000	0.984407
3833.000000	0.984408
3832.000000	0.984359
3831.000000	0.984275
3830.000000	0.984198
3829.000000	0.984159
3828.000000	0.984155
3827.000000	0.984141
3826.000000	0.984080
3825.000000	0.983978
3824.000000	0.983898
3823.000000	0.983896
3822.000000	0.983965
3821.000000	0.984028
3820.000000	0.984029
3819.000000	0.983995
3818.000000	0.983986
3817.000000	0.984020
3816.000000	0.984052
3815.000000	0.984043
3814.000000	0.984029
3813.000000	0.984060
3812.000000	0.984110
3811.000000	0.984111
3810.000000	0.984047
3809.000000	0.983975
3808.000000	0.983947
3807.000000	0.983942
3806.000000	0.983902
3805.000000	0.983833
3804.000000	0.983811
3803.000000	0.983883
3802.000000	0.984005
3801.000000	0.984077
3800.000000	0.984059
3799.000000	0.984027
3798.000000	0.984057
3797.000000	0.984146
3796.000000	0.984252
3795.000000	0.984359
3794.000000	0.984486
3793.000000	0.984633
3792.000000	0.984764
3791.000000	0.984842
3790.000000	0.984863
3789.000000	0.984852
3788.000000	0.984839
3787.000000	0.984847
3786.000000	0.984889
3785.000000	0.984945
3784.000000	0.984983
3783.000000	0.984990
3782.000000	0.984996
3781.000000	0.985041
3780.000000	0.985136
3779.000000	0.985259
3778.000000	0.985387
3777.000000	0.985515
3776.000000	0.985636
3775.000000	0.985727
3774.000000	0.985772
3773.000000	0.985794
3772.000000	0.985835
3771.000000	0.985900
3770.000000	0.985941
3769.000000	0.985926
3768.000000	0.985898
3767.000000	0.985936
3766.000000	0.986058
3765.000000	0.986196
3764.000000	0.986268
3763.000000	0.986274
3762.000000	0.986281
3761.000000	0.986330
3760.000000	0.986411
3759.000000	0.986497
3758.000000	0.986578
3757.000000	0.986646
3756.000000	0.986695
3755.000000	0.986738
3754.000000	0.986792
3753.000000	0.986849
3752.000000	0.986905
3751.000000	0.986988
3750.000000	0.987131
3749.000000	0.987282
3748.000000	0.987371
3747.000000	0.987418
3746.000000	0.987515
3745.000000	0.987706
3744.000000	0.987898
3743.000000	0.988005
3742.000000	0.988100
3741.000000	0.988238
3740.000000	0.988356
3739.000000	0.988402
3738.000000	0.988421
3737.000000	0.988485
3736.000000	0.988590
3735.000000	0.988692
3734.000000	0.988781
3733.000000	0.988883
3732.000000	0.988999
3731.000000	0.989106
3730.000000	0.989201
3729.000000	0.989307
3728.000000	0.989433
3727.000000	0.989566
3726.000000	0.989684
3725.000000	0.989796
3724.000000	0.989935
3723.000000	0.990108
3722.000000	0.990296
3721.000000	0.990480
3720.000000	0.990669
3719.000000	0.990898
3718.000000	0.991185
3717.000000	0.991511
3716.000000	0.991837
3715.000000	0.992152
3714.000000	0.992461
3713.000000	0.992754
3712.000000	0.992995
3711.000000	0.993181
3710.000000	0.993352
3709.000000	0.993567
3708.000000	0.993858
3707.000000	0.994216
3706.000000	0.994610
3705.000000	0.995011
3704.000000	0.995418
3703.000000	0.995838
3702.000000	0.996278
3701.000000	0.996725
3700.000000	0.997157
3699.000000	0.997580
3698.000000	0.998029
3697.000000	0.998537
3696.000000	0.999091
3695.000000	0.999657
3694.000000	1.000202
3693.000000	1.000707
3692.000000	1.001166
3691.000000	1.001600
3690.000000	1.002052
3689.000000	1.002556
3688.000000	1.003095
3687.000000	1.003640
3686.000000	1.004213
3685.000000	1.004853
3684.000000	1.005571
3683.000000	1.006352
3682.000000	1.007177
3681.000000	1.008010
3680.000000	1.008785
3679.000000	1.009448
3678.000000	1.010028
3677.000000	1.010619
3676.000000	1.011280
3675.000000	1.011979
3674.000000	1.012682
3673.000000	1.013426
3672.000000	1.014245
3671.000000	1.015112
3670.000000	1.015961
3669.000000	1.016757
3668.000000	1.017530
3667.000000	1.018320
3666.000000	1.019139
3665.000000	1.019983
3664.000000	1.020832
3663.000000	1.021656
3662.000000	1.022425
3661.000000	1.023135
3660.000000	1.023811
3659.000000	1.024504
3658.000000	1.025251
3657.000000	1.026042
3656.000000	1.026811
3655.000000	1.027495
3654.000000	1.028093
3653.000000	1.028660
3652.000000	1.029240
3651.000000	1.029843
3650.000000	1.030452
3649.000000	1.031070
3648.000000	1.031709
3647.000000	1.032344
3646.000000	1.032949
3645.000000	1.033535
3644.000000	1.034125
3643.000000	1.034719
3642.000000	1.035299
3641.000000	1.035858
3640.000000	1.036410
3639.000000	1.036971
3638.000000	1.037524
3637.000000	1.038038
3636.000000	1.038496
3635.000000	1.038897
3634.000000	1.039242
3633.000000	1.039541
3632.000000	1.039835
3631.000000	1.040173
3630.000000	1.040554
3629.000000	1.040909
3628.000000	1.041178
3627.000000	1.041395
3626.000000	1.041641
3625.000000	1.041947
3624.000000	1.042288
3623.000000	1.042639
3622.000000	1.042997
3621.000000	1.043339
3620.000000	1.043619
3619.000000	1.043804
3618.000000	1.043916
3617.000000	1.044016
3616.000000	1.044155
3615.000000	1.044350
3614.000000	1.044588
3613.000000	1.044845
3612.000000	1.045095
3611.000000	1.045308
3610.000000	1.045457
3609.000000	1.045535
3608.000000	1.045570
3607.000000	1.045619
3606.000000	1.045730
3605.000000	1.045898
3604.000000	1.046078
3603.000000	1.046225
3602.000000	1.046325
3601.000000	1.046393
3600.000000	1.046452
3599.000000	1.046512
3598.000000	1.046575
3597.000000	1.046647
3596.000000	1.046753
3595.000000	1.046920
3594.000000	1.047141
3593.000000	1.047372
3592.000000	1.047557
3591.000000	1.047675
3590.000000	1.047732
3589.000000	1.047740
3588.000000	1.047704
3587.000000	1.047644
3586.000000	1.047605
3585.000000	1.047631
3584.000000	1.047732
3583.000000	1.047880
3582.000000	1.048027
3581.000000	1.048141
3580.000000	1.048222
3579.000000	1.048282
3578.000000	1.048314
3577.000000	1.048297
3576.000000	1.048220
3575.000000	1.048126
3574.000000	1.048086
3573.000000	1.048153
3572.000000	1.048307
3571.000000	1.048476
3570.000000	1.048596
3569.000000	1.048647
3568.000000	1.048649
3567.000000	1.048639
3566.000000	1.048647
3565.000000	1.048683
3564.000000	1.048726
3563.000000	1.048751
3562.000000	1.048758
3561.000000	1.048780
3560.000000	1.048843
3559.000000	1.048935
3558.000000	1.049003
3557.000000	1.049006
3556.000000	1.048952
3555.000000	1.048895
3554.000000	1.048877
3553.000000	1.048894
3552.000000	1.048903
3551.000000	1.048873
3550.000000	1.048815
3549.000000	1.048774
3548.000000	1.048783
3547.000000	1.048837
3546.000000	1.048906
3545.000000	1.048971
3544.000000	1.049045
3543.000000	1.049151
3542.000000	1.049295
3541.000000	1.049453
3540.000000	1.049594
3539.000000	1.049698
3538.000000	1.049760
3537.000000	1.049783
3536.000000	1.049774
3535.000000	1.049758
3534.000000	1.049755
3533.000000	1.049758
3532.000000	1.049736
3531.000000	1.049682
3530.000000	1.049636
3529.000000	1.049649
3528.000000	1.049719
3527.000000	1.049781
3526.000000	1.049780
3525.000000	1.049727
3524.000000	1.049688
3523.000000	1.049721
3522.000000	1.049829
3521.000000	1.049973
3520.000000	1.050113
3519.000000	1.050241
3518.000000	1.050377
3517.000000	1.050538
3516.000000	1.050706
3515.000000	1.050823
3514.000000	1.050839
3513.000000	1.050766
3512.000000	1.050679
3511.000000	1.050665
3510.000000	1.050756
3509.000000	1.050912
3508.000000	1.051053
3507.000000	1.051124
3506.000000	1.051131
3505.000000	1.051127
3504.000000	1.051159
3503.000000	1.051249
3502.000000	1.051400
3501.000000	1.051611
3500.000000	1.051857
3499.000000	1.052080
3498.000000	1.052226
3497.000000	1.052288
3496.000000	1.052313
3495.000000	1.052351
3494.000000	1.052414
3493.000000	1.052492
3492.000000	1.052577
3491.000000	1.052675
3490.000000	1.052788
3489.000000	1.052903
3488.000000	1.052997
3487.000000	1.053045
3486.000000	1.053045
3485.000000	1.053037
3484.000000	1.053086
3483.000000	1.053232
3482.000000	1.053450
3481.000000	1.053682
3480.000000	1.053878
3479.000000	1.054029
3478.000000	1.054147
3477.000000	1.054251
3476.000000	1.054355
3475.000000	1.054454
3474.000000	1.054529
3473.000000	1.054566
3472.000000	1.054585
3471.000000	1.054631
3470.000000	1.054734
3469.000000	1.054890
3468.000000	1.055071
3467.000000	1.055243
3466.000000	1.055387
3465.000000	1.055496
3464.000000	1.055592
3463.000000	1.055701
3462.000000	1.055834
3461.000000	1.055973
3460.000000	1.056107
3459.000000	1.056241
3458.000000	1.056390
3457.000000	1.056559
3456.000000	1.056743
3455.000000	1.056937
3454.000000	1.057139
3453.000000	1.057339
3452.000000	1.057523
3451.000000	1.057680
3450.000000	1.057800
3449.000000	1.057877
3448.000000	1.057919
3447.000000	1.057958
3446.000000	1.058036
3445.000000	1.058176
3444.000000	1.058366
3443.000000	1.058572
3442.000000	1.058768
3441.000000	1.058945
3440.000000	1.059109
3439.000000	1.059261
3438.000000	1.059392
3437.000000	1.059494
3436.000000	1.059577
3435.000000	1.059661
3434.000000	1.059756
3433.000000	1.059851
3432.000000	1.059943
3431.000000	1.060061
3430.000000	1.060243
3429.000000	1.060483
3428.000000	1.060714
3427.000000	1.060872
3426.000000	1.060971
3425.000000	1.061088
3424.000000	1.061272
3423.000000	1.061493
3422.000000	1.061675
3421.000000	1.061786
3420.000000	1.061864
3419.000000	1.061965
3418.000000	1.062106
3417.000000	1.062257
3416.000000	1.062385
3415.000000	1.062480
3414.000000	1.062552
3413.000000	1.062609
3412.000000	1.062653
3411.000000	1.062686
3410.000000	1.062720
3409.000000	1.062774
3408.000000	1.062862
3407.000000	1.062990
3406.000000	1.063153
3405.000000	1.063337
3404.000000	1.063524
3403.000000	1.063687
3402.000000	1.063797
3401.000000	1.063838
3400.000000	1.063826
3399.000000	1.063800
3398.000000	1.063793
3397.000000	1.063823
3396.000000	1.063896
3395.000000	1.064019
3394.000000	1.064175
3393.000000	1.064325
3392.000000	1.064428
3391.000000	1.064475
3390.000000	1.064484
3389.000000	1.064482
3388.000000	1.064497
3387.000000	1.064550
3386.000000	1.064639
3385.000000	1.064723
3384.000000	1.064760
3383.000000	1.064745
3382.000000	1.064720
3381.000000	1.064732
3380.000000	1.064790
3379.000000	1.064874
3378.000000	1.064957
3377.000000	1.065024
3376.000000	1.065069
3375.000000	1.065094
3374.000000	1.065105
3373.000000	1.065112
3372.000000	1.065124
3371.000000	1.065160
3370.000000	1.065234
3369.000000	1.065342
3368.000000	1.065458
3367.000000	1.065555
3366.000000	1.065620
3365.000000	1.065643
3364.000000	1.065610
3363.000000	1.065534
3362.000000	1.065460
3361.000000	1.065442
3360.000000	1.065498
3359.000000	1.065596
3358.000000	1.065699
3357.000000	1.065792
3356.000000	1.065883
3355.000000	1.065978
3354.000000	1.066064
3353.000000	1.066116
3352.000000	1.066121
3351.000000	1.066089
3350.000000	1.066045
3349.000000	1.065997
3348.000000	1.065939
3347.000000	1.065879
3346.000000	1.065856
3345.000000	1.065900
3344.000000	1.065995
3343.000000	1.066086
3342.000000	1.066143
3341.000000	1.066182
3340.000000	1.066234
3339.000000	1.066305
3338.000000	1.066376
3337.000000	1.066434
3336.000000	1.066479
3335.000000	1.066510
3334.000000	1.066516
3333.000000	1.066492
3332.000000	1.066450
3331.000000	1.066419
3330.000000	1.066425
3329.000000	1.066461
3328.000000	1.066494
3327.000000	1.066497
3326.000000	1.066477
3325.000000	1.066455
3324.000000	1.066438
3323.000000	1.066423
3322.000000	1.066438
3321.000000	1.066524
3320.000000	1.066682
3319.000000	1.066847
3318.000000	1.066939
3317.000000	1.066944
3316.000000	1.066914
3315.000000	1.066913
3314.000000	1.066963
3313.000000	1.067039
3312.000000	1.067104
3311.000000	1.067132
3310.000000	1.067126
3309.000000	1.067106
3308.000000	1.067087
3307.000000	1.067075
3306.000000	1.067086
3305.000000	1.067155
3304.000000	1.067292
3303.000000	1.067454
3302.000000	1.067567
3301.000000	1.067602
3300.000000	1.067596
3299.000000	1.067595
3298.000000	1.067611
3297.000000	1.067625
3296.000000	1.067629
3295.000000	1.067639
3294.000000	1.067669
3293.000000	1.067714
3292.000000	1.067749
3291.000000	1.067749
3290.000000	1.067716
3289.000000	1.067684
3288.000000	1.067700
3287.000000	1.067782
3286.000000	1.067908
3285.000000	1.068033
3284.000000	1.068127
3283.000000	1.068183
3282.000000	1.068217
3281.000000	1.068252
3280.000000	1.068305
3279.000000	1.068366
3278.000000	1.068408
3277.000000	1.068420
3276.000000	1.068429
3275.000000	1.068474
3274.000000	1.068561
3273.000000	1.068660
3272.000000	1.068746
3271.000000	1.068822
3270.000000	1.068897
3269.000000	1.068958
3268.000000	1.068979
3267.000000	1.068947
3266.000000	1.068879
3265.000000	1.068798
3264.000000	1.068718
3263.000000	1.068655
3262.000000	1.068630
3261.000000	1.068651
3260.000000	1.068703
3259.000000	1.068759
3258.000000	1.068811
3257.000000	1.068875
3256.000000	1.068958
3255.000000	1.069044
3254.000000	1.069107
3253.000000	1.069140
3252.000000	1.069159
3251.000000	1.069179
3250.000000	1.069200
3249.000000	1.069210
3248.000000	1.069211
3247.000000	1.069219
3246.000000	1.069262
3245.000000	1.069354
3244.000000	1.069483
3243.000000	1.069612
3242.000000	1.069698
3241.000000	1.069724
3240.000000	1.069699
3239.000000	1.069649
3238.000000	1.069600
3237.000000	1.069574
3236.000000	1.069576
3235.000000	1.069595
3234.000000	1.069623
3233.000000	1.069660
3232.000000	1.069716
3231.000000	1.069787
3230.000000	1.069853
3229.000000	1.069899
3228.000000	1.069925
3227.000000	1.069941
3226.000000	1.069946
3225.000000	1.069935
3224.000000	1.069914
3223.000000	1.069898
3222.000000	1.069900
3221.000000	1.069920
3220.000000	1.069951
3219.000000	1.069992
3218.000000	1.070045
3217.000000	1.070110
3216.000000	1.070181
3215.000000	1.070237
3214.000000	1.070257
3213.000000	1.070234
3212.000000	1.070181
3211.000000	1.070127
3210.000000	1.070094
3209.000000	1.070087
3208.000000	1.070104
3207.000000	1.070142
3206.000000	1.070199
3205.000000	1.070266
3204.000000	1.070319
3203.000000	1.070339
3202.000000	1.070325
3201.000000	1.070300
3200.000000	1.070290
3199.000000	1.070296
3198.000000	1.070289
3197.000000	1.070245
3196.000000	1.070172
3195.000000	1.070113
3194.000000	1.070109
3193.000000	1.070155
3192.000000	1.070206
3191.000000	1.070218
3190.000000	1.070190
3189.000000	1.070162
3188.000000	1.070166
3187.000000	1.070191
3186.000000	1.070198
3185.000000	1.070172
3184.000000	1.070133
3183.000000	1.070113
3182.000000	1.070119
3181.000000	1.070136
3180.000000	1.070146
3179.000000	1.070138
3178.000000	1.070114
3177.000000	1.070081
3176.000000	1.070045
3175.000000	1.070005
3174.000000	1.069956
3173.000000	1.069904
3172.000000	1.069877
3171.000000	1.069905
3170.000000	1.069978
3169.000000	1.070045
3168.000000	1.070058
3167.000000	1.070019
3166.000000	1.069983
3165.000000	1.069989
3164.000000	1.070021
3163.000000	1.070021
3162.000000	1.069966
3161.000000	1.069891
3160.000000	1.069852
3159.000000	1.069871
3158.000000	1.069927
3157.000000	1.069989
3156.000000	1.070038
3155.000000	1.070060
3154.000000	1.070051
3153.000000	1.070023
3152.000000	1.070006
3151.000000	1.070013
3150.000000	1.070022
3149.000000	1.070008
3148.000000	1.069976
3147.000000	1.069947
3146.000000	1.069937
3145.000000	1.069940
3144.000000	1.069952
3143.000000	1.069972
3142.000000	1.069995
3141.000000	1.070010
3140.000000	1.070013
3139.000000	1.070013
3138.000000	1.070021
3137.000000	1.070038
3136.000000	1.070050
3135.000000	1.070047
3134.000000	1.070027
3133.000000	1.070004
3132.000000	1.069992
3131.000000	1.069995
3130.000000	1.070013
3129.000000	1.070044
3128.000000	1.070073
3127.000000	1.070078
3126.000000	1.070046
3125.000000	1.069999
3124.000000	1.069985
3123.000000	1.070021
3122.000000	1.070073
3121.000000	1.070094
3120.000000	1.070079
3119.000000	1.070061
3118.000000	1.070063
3117.000000	1.070079
3116.000000	1.070086
3115.000000	1.070069
3114.000000	1.070023
3113.000000	1.069948
3112.000000	1.069865
3111.000000	1.069805
3110.000000	1.069783
3109.000000	1.069774
3108.000000	1.069747
3107.000000	1.069697
3106.000000	1.069651
3105.000000	1.069629
3104.000000	1.069622
3103.000000	1.069599
3102.000000	1.069543
3101.000000	1.069466
3100.000000	1.069396
3099.000000	1.069349
3098.000000	1.069314
3097.000000	1.069275
3096.000000	1.069231
3095.000000	1.069201
3094.000000	1.069196
3093.000000	1.069197
3092.000000	1.069170
3091.000000	1.069090
3090.000000	1.068961
3089.000000	1.068813
3088.000000	1.068695
3087.000000	1.068644
3086.000000	1.068663
3085.000000	1.068711
3084.000000	1.068741
3083.000000	1.068728
3082.000000	1.068672
3081.000000	1.068583
3080.000000	1.068476
3079.000000	1.068375
3078.000000	1.068298
3077.000000	1.068241
3076.000000	1.068175
3075.000000	1.068084
3074.000000	1.067982
3073.000000	1.067900
3072.000000	1.067841
3071.000000	1.067782
3070.000000	1.067688
3069.000000	1.067552
3068.000000	1.067405
3067.000000	1.067287
3066.000000	1.067220
3065.000000	1.067189
3064.000000	1.067158
3063.000000	1.067107
3062.000000	1.067041
3061.000000	1.066974
3060.000000	1.066904
3059.000000	1.066825
3058.000000	1.066741
3057.000000	1.066670
3056.000000	1.066621
3055.000000	1.066577
3054.000000	1.066513
3053.000000	1.066422
3052.000000	1.066325
3051.000000	1.066246
3050.000000	1.066194
3049.000000	1.066157
3048.000000	1.066112
3047.000000	1.066040
3046.000000	1.065934
3045.000000	1.065806
3044.000000	1.065683
3043.000000	1.065594
3042.000000	1.065545
3041.000000	1.065510
3040.000000	1.065445
3039.000000	1.065335
3038.000000	1.065211
3037.000000	1.065118
3036.000000	1.065068
3035.000000	1.065030
3034.000000	1.064963
3033.000000	1.064867
3032.000000	1.064767
3031.000000	1.064686
3030.000000	1.064616
3029.000000	1.064536
3028.000000	1.064443
3027.000000	1.064355
3026.000000	1.064288
3025.000000	1.064234
3024.000000	1.064165
3023.000000	1.064067
3022.000000	1.063962
3021.000000	1.063889
3020.000000	1.063851
3019.000000	1.063810
3018.000000	1.063723
3017.000000	1.063600
3016.000000	1.063487
3015.000000	1.063411
3014.000000	1.063344
3013.000000	1.063235
3012.000000	1.063070
3011.000000	1.062889
3010.000000	1.062744
3009.000000	1.062654
3008.000000	1.062604
3007.000000	1.062569
3006.000000	1.062529
3005.000000	1.062475
3004.000000	1.062399
3003.000000	1.062297
3002.000000	1.062171
3001.000000	1.062036
3000.000000	1.061907
2999.000000	1.061791
2998.000000	1.061677
2997.000000	1.061544
2996.000000	1.061383
2995.000000	1.061204
2994.000000	1.061029
2993.000000	1.060871
2992.000000	1.060731
2991.000000	1.060605
2990.000000	1.060494
2989.000000	1.060388
2988.000000	1.060264
2987.000000	1.060097
2986.000000	1.059893
2985.000000	1.059689
2984.000000	1.059517
2983.000000	1.059381
2982.000000	1.059260
2981.000000	1.059136
2980.000000	1.059010
2979.000000	1.058884
2978.000000	1.058749
2977.000000	1.058606
2976.000000	1.058473
2975.000000	1.058374
2974.000000	1.058304
2973.000000	1.058229
2972.000000	1.058106
2971.000000	1.057920
2970.000000	1.057688
2969.000000	1.057437
2968.000000	1.057185
2967.000000	1.056945
2966.000000	1.056737
2965.000000	1.056586
2964.000000	1.056493
2963.000000	1.056410
2962.000000	1.056275
2961.000000	1.056066
2960.000000	1.055817
2959.000000	1.055577
2958.000000	1.055366
2957.000000	1.055173
2956.000000	1.054982
2955.000000	1.054788
2954.000000	1.054585
2953.000000	1.054365
2952.000000	1.054126
2951.000000	1.053879
2950.000000	1.053634
2949.000000	1.053392
2948.000000	1.053152
2947.000000	1.052916
2946.000000	1.052690
2945.000000	1.052482
2944.000000	1.052305
2943.000000	1.052183
2942.000000	1.052116
2941.000000	1.052058
2940.000000	1.051939
2939.000000	1.051720
2938.000000	1.051423
2937.000000	1.051113
2936.000000	1.050849
2935.000000	1.050645
2934.000000	1.050480
2933.000000	1.050323
2932.000000	1.050150
2931.000000	1.049952
2930.000000	1.049732
2929.000000	1.049496
2928.000000	1.049258
2927.000000	1.049040
2926.000000	1.048856
2925.000000	1.048699
2924.000000	1.048533
2923.000000	1.048323
2922.000000	1.048063
2921.000000	1.047779
2920.000000	1.047513
2919.000000	1.047292
2918.000000	1.047111
2917.000000	1.046945
2916.000000	1.046763
2915.000000	1.046548
2914.000000	1.046307
2913.000000	1.046055
2912.000000	1.045807
2911.000000	1.045576
2910.000000	1.045377
2909.000000	1.045217
2908.000000	1.045076
2907.000000	1.044914
2906.000000	1.044704
2905.000000	1.044462
2904.000000	1.044229
2903.000000	1.044035
2902.000000	1.043871
2901.000000	1.043704
2900.000000	1.043511
2899.000000	1.043293
2898.000000	1.043067
2897.000000	1.042842
2896.000000	1.042617
2895.000000	1.042397
2894.000000	1.042202
2893.000000	1.042040
2892.000000	1.041891
2891.000000	1.041718
2890.000000	1.041505
2889.000000	1.041274
2888.000000	1.041049
2887.000000	1.040832
2886.000000	1.040608
2885.000000	1.040384
2884.000000	1.040178
2883.000000	1.039995
2882.000000	1.039816
2881.000000	1.039614
2880.000000	1.039385
2879.000000	1.039151
2878.000000	1.038950
2877.000000	1.038808
2876.000000	1.038715
2875.000000	1.038624
2874.000000	1.038483
2873.000000	1.038290
2872.000000	1.038087
2871.000000	1.037917
2870.000000	1.037781
2869.000000	1.037648
2868.000000	1.037495
2867.000000	1.037322
2866.000000	1.037151
2865.000000	1.037002
2864.000000	1.036876
2863.000000	1.036737
2862.000000	1.036539
2861.000000	1.036271
2860.000000	1.035986
2859.000000	1.035754
2858.000000	1.035611
2857.000000	1.035533
2856.000000	1.035469
2855.000000	1.035375
2854.000000	1.035234
2853.000000	1.035053
2852.000000	1.034863
2851.000000	1.034690
2850.000000	1.034535
2849.000000	1.034380
2848.000000	1.034214
2847.000000	1.034050
2846.000000	1.033899
2845.000000	1.033760
2844.000000	1.033629
2843.000000	1.033507
2842.000000	1.033398
2841.000000	1.033289
2840.000000	1.033168
2839.000000	1.033033
2838.000000	1.032902
2837.000000	1.032795
2836.000000	1.032719
2835.000000	1.032666
2834.000000	1.032619
2833.000000	1.032555
2832.000000	1.032455
2831.000000	1.032318
2830.000000	1.032159
2829.000000	1.031996
2828.000000	1.031840
2827.000000	1.031690
2826.000000	1.031549
2825.000000	1.031413
2824.000000	1.031278
2823.000000	1.031144
2822.000000	1.031022
2821.000000	1.030926
2820.000000	1.030843
2819.000000	1.030745
2818.000000	1.030619
2817.000000	1.030494
2816.000000	1.030412
2815.000000	1.030371
2814.000000	1.030322
2813.000000	1.030225
2812.000000	1.030090
2811.000000	1.029958
2810.000000	1.029857
2809.000000	1.029783
2808.000000	1.029724
2807.000000	1.029675
2806.000000	1.029622
2805.000000	1.029551
2804.000000	1.029459
2803.000000	1.029361
2802.000000	1.029265
2801.000000	1.029162
2800.000000	1.029047
2799.000000	1.028943
2798.000000	1.028880
2797.000000	1.028860
2796.000000	1.028843
2795.000000	1.028787
2794.000000	1.028681
2793.000000	1.028550
2792.000000	1.028428
2791.000000	1.028327
2790.000000	1.028246
2789.000000	1.028180
2788.000000	1.028125
2787.000000	1.028079
2786.000000	1.028039
2785.000000	1.027996
2784.000000	1.027937
2783.000000	1.027857
2782.000000	1.027764
2781.000000	1.027681
2780.000000	1.027624
2779.000000	1.027583
2778.000000	1.027536
2777.000000	1.027475
2776.000000	1.027413
2775.000000	1.027353
2774.000000	1.027276
2773.000000	1.027167
2772.000000	1.027046
2771.000000	1.026951
2770.000000	1.026904
2769.000000	1.026891
2768.000000	1.026890
2767.000000	1.026892
2766.000000	1.026892
2765.000000	1.026873
2764.000000	1.026829
2763.000000	1.026774
2762.000000	1.026734
2761.000000	1.026713
2760.000000	1.026697
2759.000000	1.026675
2758.000000	1.026646
2757.000000	1.026600
2756.000000	1.026521
2755.000000	1.026415
2754.000000	1.026324
2753.000000	1.026297
2752.000000	1.026331
2751.000000	1.026366
2750.000000	1.026337
2749.000000	1.026234
2748.000000	1.026115
2747.000000	1.026048
2746.000000	1.026068
2745.000000	1.026152
2744.000000	1.026247
2743.000000	1.026309
2742.000000	1.026317
2741.000000	1.026277
2740.000000	1.026204
2739.000000	1.026113
2738.000000	1.026023
2737.000000	1.025957
2736.000000	1.025937
2735.000000	1.025963
2734.000000	1.026011
2733.000000	1.026047
2732.000000	1.026051
2731.000000	1.026030
2730.000000	1.026004
2729.000000	1.025988
2728.000000	1.025985
2727.000000	1.025985
2726.000000	1.025973
2725.000000	1.025946
2724.000000	1.025908
2723.000000	1.025872
2722.000000	1.025851
2721.000000	1.025844
2720.000000	1.025846
2719.000000	1.025850
2718.000000	1.025858
2717.000000	1.025871
2716.000000	1.025883
2715.000000	1.025883
2714.000000	1.025869
2713.000000	1.025847
2712.000000	1.025824
2711.000000	1.025794
2710.000000	1.025759
2709.000000	1.025740
2708.000000	1.025773
2707.000000	1.025856
2706.000000	1.025935
2705.000000	1.025956
2704.000000	1.025919
2703.000000	1.025880
2702.000000	1.025883
2701.000000	1.025922
2700.000000	1.025967
2699.000000	1.026004
2698.000000	1.026035
2697.000000	1.026067
2696.000000	1.026100
2695.000000	1.026137
2694.000000	1.026189
2693.000000	1.026254
2692.000000	1.026316
2691.000000	1.026359
2690.000000	1.026380
2689.000000	1.026382
2688.000000	1.026363
2687.000000	1.026329
2686.000000	1.026301
2685.000000	1.026316
2684.000000	1.026389
2683.000000	1.026488
2682.000000	1.026557
2681.000000	1.026571
2680.000000	1.026567
2679.000000	1.026602
2678.000000	1.026687
2677.000000	1.026784
2676.000000	1.026848
2675.000000	1.026876
2674.000000	1.026895
2673.000000	1.026920
2672.000000	1.026950
2671.000000	1.026974
2670.000000	1.026989
2669.000000	1.026998
2668.000000	1.027016
2667.000000	1.027059
2666.000000	1.027140
2665.000000	1.027254
2664.000000	1.027388
2663.000000	1.027522
2662.000000	1.027633
2661.000000	1.027702
2660.000000	1.027729
2659.000000	1.027738
2658.000000	1.027757
2657.000000	1.027791
2656.000000	1.027826
2655.000000	1.027856
2654.000000	1.027896
2653.000000	1.027961
2652.000000	1.028054
2651.000000	1.028167
2650.000000	1.028288
2649.000000	1.028398
2648.000000	1.028489
2647.000000	1.028572
2646.000000	1.028663
2645.000000	1.028763
2644.000000	1.028856
2643.000000	1.028934
2642.000000	1.029011
2641.000000	1.029102
2640.000000	1.029193
2639.000000	1.029258
2638.000000	1.029292
2637.000000	1.029323
2636.000000	1.029382
2635.000000	1.029472
2634.000000	1.029576
2633.000000	1.029687
2632.000000	1.029812
2631.000000	1.029951
2630.000000	1.030082
2629.000000	1.030179
2628.000000	1.030240
2627.000000	1.030298
2626.000000	1.030382
2625.000000	1.030496
2624.000000	1.030618
2623.000000	1.030736
2622.000000	1.030849
2621.000000	1.030955
2620.000000	1.031046
2619.000000	1.031122
2618.000000	1.031190
2617.000000	1.031260
2616.000000	1.031347
2615.000000	1.031470
2614.000000	1.031644
2613.000000	1.031850
2612.000000	1.032030
2611.000000	1.032140
2610.000000	1.032192
2609.000000	1.032241
2608.000000	1.032320
2607.000000	1.032415
2606.000000	1.032494
2605.000000	1.032557
2604.000000	1.032629
2603.000000	1.032728
2602.000000	1.032846
2601.000000	1.032975
2600.000000	1.033120
2599.000000	1.033287
2598.000000	1.033455
2597.000000	1.033583
2596.000000	1.033645
2595.000000	1.033663
2594.000000	1.033682
2593.000000	1.033725
2592.000000	1.033795
2591.000000	1.033896
2590.000000	1.034050
2589.000000	1.034257
2588.000000	1.034481
2587.000000	1.034674
2586.000000	1.034826
2585.000000	1.034968
2584.000000	1.035119
2583.000000	1.035265
2582.000000	1.035379
2581.000000	1.035454
2580.000000	1.035513
2579.000000	1.035577
2578.000000	1.035664
2577.000000	1.035787
2576.000000	1.035952
2575.000000	1.036146
2574.000000	1.036331
2573.000000	1.036476
2572.000000	1.036579
2571.000000	1.036672
2570.000000	1.036789
2569.000000	1.036945
2568.000000	1.037127
2567.000000	1.037308
2566.000000	1.037472
2565.000000	1.037618
2564.000000	1.037761
2563.000000	1.037912
2562.000000	1.038072
2561.000000	1.038231
2560.000000	1.038374
2559.000000	1.038494
2558.000000	1.038609
2557.000000	1.038748
2556.000000	1.038927
2555.000000	1.039128
2554.000000	1.039321
2553.000000	1.039488
2552.000000	1.039640
2551.000000	1.039793
2550.000000	1.039955
2549.000000	1.040119
2548.000000	1.040273
2547.000000	1.040410
2546.000000	1.040536
2545.000000	1.040676
2544.000000	1.040847
2543.000000	1.041046
2542.000000	1.041243
2541.000000	1.041415
2540.000000	1.041562
2539.000000	1.041703
2538.000000	1.041855
2537.000000	1.042034
2536.000000	1.042249
2535.000000	1.042493
2534.000000	1.042729
2533.000000	1.042916
2532.000000	1.043048
2531.000000	1.043161
2530.000000	1.043303
2529.000000	1.043502
2528.000000	1.043752
2527.000000	1.044015
2526.000000	1.044256
2525.000000	1.044460
2524.000000	1.044636
2523.000000	1.044790
2522.000000	1.044918
2521.000000	1.045020
2520.000000	1.045122
2519.000000	1.045250
2518.000000	1.045404
2517.000000	1.045554
2516.000000	1.045693
2515.000000	1.045837
2514.000000	1.046002
2513.000000	1.046182
2512.000000	1.046366
2511.000000	1.046561
2510.000000	1.046774
2509.000000	1.046985
2508.000000	1.047172
2507.000000	1.047334
2506.000000	1.047490
2505.000000	1.047659
2504.000000	1.047845
2503.000000	1.048045
2502.000000	1.048249
2501.000000	1.048435
2500.000000	1.048576
2499.000000	1.048667
2498.000000	1.048723
2497.000000	1.048767
2496.000000	1.048825
2495.000000	1.048918
2494.000000	1.049046
2493.000000	1.049193
2492.000000	1.049339
2491.000000	1.049484
2490.000000	1.049630
2489.000000	1.049760
2488.000000	1.049851
2487.000000	1.049905
2486.000000	1.049955
2485.000000	1.050025
2484.000000	1.050104
2483.000000	1.050172
2482.000000	1.050227
2481.000000	1.050285
2480.000000	1.050350
2479.000000	1.050427
2478.000000	1.050529
2477.000000	1.050657
2476.000000	1.050777
2475.000000	1.050840
2474.000000	1.050833
2473.000000	1.050798
2472.000000	1.050803
2471.000000	1.050876
2470.000000	1.050991
2469.000000	1.051092
2468.000000	1.051145
2467.000000	1.051159
2466.000000	1.051169
2465.000000	1.051200
2464.000000	1.051254
2463.000000	1.051322
2462.000000	1.051402
2461.000000	1.051483
2460.000000	1.051542
2459.000000	1.051559
2458.000000	1.051543
2457.000000	1.051525
2456.000000	1.051520
2455.000000	1.051520
2454.000000	1.051510
2453.000000	1.051501
2452.000000	1.051508
2451.000000	1.051531
2450.000000	1.051544
2449.000000	1.051522
2448.000000	1.051472
2447.000000	1.051419
2446.000000	1.051386
2445.000000	1.051374
2444.000000	1.051370
2443.000000	1.051357
2442.000000	1.051324
2441.000000	1.051263
2440.000000	1.051179
2439.000000	1.051091
2438.000000	1.051026
2437.000000	1.050995
2436.000000	1.050989
2435.000000	1.050993
2434.000000	1.050994
2433.000000	1.050990
2432.000000	1.050979
2431.000000	1.050955
2430.000000	1.050905
2429.000000	1.050820
2428.000000	1.050698
2427.000000	1.050558
2426.000000	1.050434
2425.000000	1.050360
2424.000000	1.050343
2423.000000	1.050356
2422.000000	1.050357
2421.000000	1.050322
2420.000000	1.050263
2419.000000	1.050213
2418.000000	1.050189
2417.000000	1.050174
2416.000000	1.050133
2415.000000	1.050046
2414.000000	1.049930
2413.000000	1.049823
2412.000000	1.049763
2411.000000	1.049768
2410.000000	1.049810
2409.000000	1.049834
2408.000000	1.049789
2407.000000	1.049684
2406.000000	1.049580
2405.000000	1.049529
2404.000000	1.049527
2403.000000	1.049531
2402.000000	1.049516
2401.000000	1.049488
2400.000000	1.049464
2399.000000	1.049446
2398.000000	1.049427
2397.000000	1.049403
2396.000000	1.049374
2395.000000	1.049336
2394.000000	1.049281
2393.000000	1.049206
2392.000000	1.049124
2391.000000	1.049061
2390.000000	1.049044
2389.000000	1.049080
2388.000000	1.049149
2387.000000	1.049230
2386.000000	1.049318
2385.000000	1.049419
2384.000000	1.049527
2383.000000	1.049631
2382.000000	1.049723
2381.000000	1.049814
2380.000000	1.049910
2379.000000	1.050003
2378.000000	1.050073
2377.000000	1.050115
2376.000000	1.050141
2375.000000	1.050169
2374.000000	1.050206
2373.000000	1.050238
2372.000000	1.050259
2371.000000	1.050283
2370.000000	1.050354
2369.000000	1.050503
2368.000000	1.050706
2367.000000	1.050887
2366.000000	1.051004
2365.000000	1.051084
2364.000000	1.051145
2363.000000	1.051177
2362.000000	1.051220
2361.000000	1.051286
2360.000000	1.051326
2359.000000	1.046501
2358.000000	1.046688
2357.000000	1.046913
2356.000000	1.047173
2355.000000	1.047460
2354.000000	1.047781
2353.000000	1.050341
2352.000000	1.050068
2351.000000	1.049982
2350.000000	1.050344
2349.000000	1.051290
2348.000000	1.052377
2347.000000	1.053048
2346.000000	1.053036
2345.000000	1.052659
2344.000000	1.052654
2343.000000	1.053380
2342.000000	1.054676
2341.000000	1.055791
2340.000000	1.056307
2339.000000	1.056218
2338.000000	1.055715
2337.000000	1.055075
2336.000000	1.054439
2335.000000	1.053945
2334.000000	1.053575
2333.000000	1.053373
2332.000000	1.053238
2331.000000	1.053189
2330.000000	1.053124
2329.000000	1.053197
2328.000000	1.053281
2327.000000	1.053495
2326.000000	1.053721
2325.000000	1.053946
2324.000000	1.054066
2323.000000	1.054006
2322.000000	1.053853
2321.000000	1.053658
2320.000000	1.053517
2319.000000	1.053449
2318.000000	1.053426
2317.000000	1.053472
2316.000000	1.053498
2315.000000	1.053537
2314.000000	1.053486
2313.000000	1.053441
2312.000000	1.053363
2311.000000	1.053376
2310.000000	1.053395
2309.000000	1.053447
2308.000000	1.053418
2307.000000	1.053373
2306.000000	1.053313
2305.000000	1.053322
2304.000000	1.053346
2303.000000	1.053376
2302.000000	1.053360
2301.000000	1.053350
2300.000000	1.053323
2299.000000	1.053300
2298.000000	1.053221
2297.000000	1.053111
2296.000000	1.052959
2295.000000	1.052833
2294.000000	1.052754
2293.000000	1.052767
2292.000000	1.052845
2291.000000	1.052943
2290.000000	1.053007
2289.000000	1.053020
2288.000000	1.052999
2287.000000	1.052969
2286.000000	1.052963
2285.000000	1.053001
2284.000000	1.053089
2283.000000	1.053193
2282.000000	1.053286
2281.000000	1.053366
2280.000000	1.053452
2279.000000	1.053532
2278.000000	1.053575
2277.000000	1.053574
2276.000000	1.053558
2275.000000	1.053558
2274.000000	1.053566
2273.000000	1.053573
2272.000000	1.053582
2271.000000	1.053608
2270.000000	1.053645
2269.000000	1.053672
2268.000000	1.053677
2267.000000	1.053667
2266.000000	1.053659
2265.000000	1.053672
2264.000000	1.053726
2263.000000	1.053815
2262.000000	1.053896
2261.000000	1.053930
2260.000000	1.053932
2259.000000	1.053956
2258.000000	1.054041
2257.000000	1.054160
2256.000000	1.054269
2255.000000	1.054337
2254.000000	1.054362
2253.000000	1.054349
2252.000000	1.054309
2251.000000	1.054281
2250.000000	1.054303
2249.000000	1.054385
2248.000000	1.054496
2247.000000	1.054595
2246.000000	1.054666
2245.000000	1.054720
2244.000000	1.054772
2243.000000	1.054821
2242.000000	1.054857
2241.000000	1.054876
2240.000000	1.054885
2239.000000	1.054900
2238.000000	1.054933
2237.000000	1.054985
2236.000000	1.055045
2235.000000	1.055088
2234.000000	1.055086
2233.000000	1.055032
2232.000000	1.054955
2231.000000	1.054909
2230.000000	1.054932
2229.000000	1.055027
2228.000000	1.055157
2227.000000	1.055272
2226.000000	1.055333
2225.000000	1.055333
2224.000000	1.055303
2223.000000	1.055279
2222.000000	1.055274
2221.000000	1.055274
2220.000000	1.055268
2219.000000	1.055260
2218.000000	1.055256
2217.000000	1.055247
2216.000000	1.055231
2215.000000	1.055215
2214.000000	1.055209
2213.000000	1.055206
2212.000000	1.055203
2211.000000	1.055207
2210.000000	1.055224
2209.000000	1.055230
2208.000000	1.055207
2207.000000	1.055169
2206.000000	1.055156
2205.000000	1.055176
2204.000000	1.055200
2203.000000	1.055198
2202.000000	1.055176
2201.000000	1.055158
2200.000000	1.055157
2199.000000	1.055179
2198.000000	1.055220
2197.000000	1.055254
2196.000000	1.055241
2195.000000	1.055167
2194.000000	1.055070
2193.000000	1.055009
2192.000000	1.055007
2191.000000	1.055043
2190.000000	1.055095
2189.000000	1.055148
2188.000000	1.055184
2187.000000	1.055184
2186.000000	1.055150
2185.000000	1.055112
2184.000000	1.055098
2183.000000	1.055105
2182.000000	1.055106
2181.000000	1.055077
2180.000000	1.055015
2179.000000	1.054937
2178.000000	1.054857
2177.000000	1.054782
2176.000000	1.054722
2175.000000	1.054693
2174.000000	1.054703
2173.000000	1.054730
2172.000000	1.054729
2171.000000	1.054679
2170.000000	1.054607
2169.000000	1.054551
2168.000000	1.054513
2167.000000	1.054469
2166.000000	1.054403
2165.000000	1.054335
2164.000000	1.054292
2163.000000	1.054275
2162.000000	1.054262
2161.000000	1.054223
2160.000000	1.054150
2159.000000	1.054071
2158.000000	1.054036
2157.000000	1.054066
2156.000000	1.054123
2155.000000	1.054139
2154.000000	1.054088
2153.000000	1.054004
2152.000000	1.053921
2151.000000	1.053827
2150.000000	1.053703
2149.000000	1.053570
2148.000000	1.053487
2147.000000	1.053482
2146.000000	1.053527
2145.000000	1.053560
2144.000000	1.053540
2143.000000	1.053464
2142.000000	1.053353
2141.000000	1.053235
2140.000000	1.053121
2139.000000	1.053014
2138.000000	1.052915
2137.000000	1.052831
2136.000000	1.052771
2135.000000	1.052725
2134.000000	1.052673
2133.000000	1.052599
2132.000000	1.052503
2131.000000	1.052393
2130.000000	1.052287
2129.000000	1.052200
2128.000000	1.052137
2127.000000	1.052076
2126.000000	1.051985
2125.000000	1.051854
2124.000000	1.051703
2123.000000	1.051569
2122.000000	1.051470
2121.000000	1.051396
2120.000000	1.051327
2119.000000	1.051244
2118.000000	1.051145
2117.000000	1.051039
2116.000000	1.050933
2115.000000	1.050827
2114.000000	1.050716
2113.000000	1.050603
2112.000000	1.050494
2111.000000	1.050396
2110.000000	1.050304
2109.000000	1.050210
2108.000000	1.050111
2107.000000	1.050008
2106.000000	1.049898
2105.000000	1.049769
2104.000000	1.049616
2103.000000	1.049450
2102.000000	1.049292
2101.000000	1.049160
2100.000000	1.049043
2099.000000	1.048915
2098.000000	1.048759
2097.000000	1.048591
2096.000000	1.048439
2095.000000	1.048316
2094.000000	1.048210
2093.000000	1.048106
2092.000000	1.048002
2091.000000	1.047902
2090.000000	1.047802
2089.000000	1.047695
2088.000000	1.047576
2087.000000	1.047441
2086.000000	1.047287
2085.000000	1.047107
2084.000000	1.046920
2083.000000	1.046762
2082.000000	1.046664
2081.000000	1.046618
2080.000000	1.046571
2079.000000	1.046463
2078.000000	1.046277
2077.000000	1.046050
2076.000000	1.045835
2075.000000	1.045659
2074.000000	1.045506
2073.000000	1.045349
2072.000000	1.045180
2071.000000	1.045013
2070.000000	1.044856
2069.000000	1.044699
2068.000000	1.044530
2067.000000	1.044353
2066.000000	1.044181
2065.000000	1.044021
2064.000000	1.043871
2063.000000	1.043737
2062.000000	1.043634
2061.000000	1.043562
2060.000000	1.043494
2059.000000	1.043400
2058.000000	1.043272
2057.000000	1.043128
2056.000000	1.042979
2055.000000	1.042818
2054.000000	1.042636
2053.000000	1.042444
2052.000000	1.042271
2051.000000	1.042138
2050.000000	1.042035
2049.000000	1.041934
2048.000000	1.041807
2047.000000	1.041655
2046.000000	1.041501
2045.000000	1.041364
2044.000000	1.041236
2043.000000	1.041104
2042.000000	1.040966
2041.000000	1.040836
2040.000000	1.040715
2039.000000	1.040583
2038.000000	1.040433
2037.000000	1.040287
2036.000000	1.040174
2035.000000	1.040086
2034.000000	1.039974
2033.000000	1.039803
2032.000000	1.039588
2031.000000	1.039378
2030.000000	1.039208
2029.000000	1.039074
2028.000000	1.038953
2027.000000	1.038834
2026.000000	1.038716
2025.000000	1.038604
2024.000000	1.038492
2023.000000	1.038374
2022.000000	1.038249
2021.000000	1.038127
2020.000000	1.038020
2019.000000	1.037924
2018.000000	1.037819
2017.000000	1.037689
2016.000000	1.037541
2015.000000	1.037402
2014.000000	1.037286
2013.000000	1.037181
2012.000000	1.037060
2011.000000	1.036914
2010.000000	1.036764
2009.000000	1.036642
2008.000000	1.036556
2007.000000	1.036496
2006.000000	1.036452
2005.000000	1.036418
2004.000000	1.036387
2003.000000	1.036343
2002.000000	1.036268
2001.000000	1.036153
2000.000000	1.036004
1999.000000	1.035837
1998.000000	1.035677
1997.000000	1.035544
1996.000000	1.035442
1995.000000	1.035360
1994.000000	1.035289
1993.000000	1.035227
1992.000000	1.035177
1991.000000	1.035139
1990.000000	1.035111
1989.000000	1.035085
1988.000000	1.035058
1987.000000	1.035014
1986.000000	1.034936
1985.000000	1.034824
1984.000000	1.034705
1983.000000	1.034613
1982.000000	1.034559
1981.000000	1.034520
1980.000000	1.034463
1979.000000	1.034373
1978.000000	1.034266
1977.000000	1.034161
1976.000000	1.034065
1975.000000	1.033971
1974.000000	1.033873
1973.000000	1.033781
1972.000000	1.033724
1971.000000	1.033716
1970.000000	1.033729
1969.000000	1.033712
1968.000000	1.033649
1967.000000	1.033567
1966.000000	1.033505
1965.000000	1.033467
1964.000000	1.033440
1963.000000	1.033429
1962.000000	1.033443
1961.000000	1.033466
1960.000000	1.033453
1959.000000	1.033384
1958.000000	1.033280
1957.000000	1.033186
1956.000000	1.033131
1955.000000	1.033122
1954.000000	1.033146
1953.000000	1.033171
1952.000000	1.033162
1951.000000	1.033110
1950.000000	1.033044
1949.000000	1.032998
1948.000000	1.032988
1947.000000	1.033004
1946.000000	1.033037
1945.000000	1.033069
1944.000000	1.033065
1943.000000	1.033007
1942.000000	1.032919
1941.000000	1.032851
1940.000000	1.032831
1939.000000	1.032844
1938.000000	1.032869
1937.000000	1.032904
1936.000000	1.032953
1935.000000	1.033002
1934.000000	1.033019
1933.000000	1.032987
1932.000000	1.032923
1931.000000	1.032861
1930.000000	1.032820
1929.000000	1.032801
1928.000000	1.032806
1927.000000	1.032847
1926.000000	1.032922
1925.000000	1.032997
1924.000000	1.033018
1923.000000	1.032960
1922.000000	1.032863
1921.000000	1.032796
1920.000000	1.032796
1919.000000	1.032847
1918.000000	1.032904
1917.000000	1.032929
1916.000000	1.032906
1915.000000	1.032850
1914.000000	1.032799
1913.000000	1.032784
1912.000000	1.032809
1911.000000	1.032861
1910.000000	1.032932
1909.000000	1.033019
1908.000000	1.033104
1907.000000	1.033163
1906.000000	1.033195
1905.000000	1.033231
1904.000000	1.033288
1903.000000	1.033340
1902.000000	1.033353
1901.000000	1.033320
1900.000000	1.033266
1899.000000	1.033215
1898.000000	1.033189
1897.000000	1.033203
1896.000000	1.033270
1895.000000	1.033371
1894.000000	1.033468
1893.000000	1.033529
1892.000000	1.033554
1891.000000	1.033573
1890.000000	1.033613
1889.000000	1.033674
1888.000000	1.033736
1887.000000	1.033786
1886.000000	1.033821
1885.000000	1.033840
1884.000000	1.033844
1883.000000	1.033838
1882.000000	1.033846
1881.000000	1.033889
1880.000000	1.033956
1879.000000	1.034009
1878.000000	1.034017
1877.000000	1.033990
1876.000000	1.033973
1875.000000	1.034013
1874.000000	1.034116
1873.000000	1.034241
1872.000000	1.034335
1871.000000	1.034381
1870.000000	1.034406
1869.000000	1.034441
1868.000000	1.034486
1867.000000	1.034525
1866.000000	1.034557
1865.000000	1.034592
1864.000000	1.034635
1863.000000	1.034683
1862.000000	1.034738
1861.000000	1.034798
1860.000000	1.034858
1859.000000	1.034916
1858.000000	1.034978
1857.000000	1.035045
1856.000000	1.035108
1855.000000	1.035170
1854.000000	1.035252
1853.000000	1.035370
1852.000000	1.035495
1851.000000	1.035595
1850.000000	1.035677
1849.000000	1.035766
1848.000000	1.035864
1847.000000	1.035956
1846.000000	1.036047
1845.000000	1.036158
1844.000000	1.036278
1843.000000	1.036362
1842.000000	1.036386
1841.000000	1.036388
1840.000000	1.036427
1839.000000	1.036531
1838.000000	1.036674
1837.000000	1.036814
1836.000000	1.036921
1835.000000	1.036994
1834.000000	1.037051
1833.000000	1.037113
1832.000000	1.037191
1831.000000	1.037295
1830.000000	1.037433
1829.000000	1.037598
1828.000000	1.037768
1827.000000	1.037917
1826.000000	1.038038
1825.000000	1.038153
1824.000000	1.038287
1823.000000	1.038432
1822.000000	1.038556
1821.000000	1.038636
1820.000000	1.038680
1819.000000	1.038717
1818.000000	1.038777
1817.000000	1.038880
1816.000000	1.039021
1815.000000	1.039173
1814.000000	1.039309
1813.000000	1.039421
1812.000000	1.039525
1811.000000	1.039642
1810.000000	1.039790
1809.000000	1.039975
1808.000000	1.040175
1807.000000	1.040348
1806.000000	1.040477
1805.000000	1.040578
1804.000000	1.040680
1803.000000	1.040796
1802.000000	1.040926
1801.000000	1.041055
1800.000000	1.041166
1799.000000	1.041255
1798.000000	1.041344
1797.000000	1.041468
1796.000000	1.041637
1795.000000	1.041828
1794.000000	1.042016
1793.000000	1.042191
1792.000000	1.042355
1791.000000	1.042515
1790.000000	1.042681
1789.000000	1.042854
1788.000000	1.043015
1787.000000	1.043147
1786.000000	1.043272
1785.000000	1.043421
1784.000000	1.043585
1783.000000	1.043722
1782.000000	1.043824
1781.000000	1.043925
1780.000000	1.044069
1779.000000	1.044267
1778.000000	1.044504
1777.000000	1.044753
1776.000000	1.044988
1775.000000	1.045194
1774.000000	1.045360
1773.000000	1.045481
1772.000000	1.045572
1771.000000	1.045666
1770.000000	1.045793
1769.000000	1.045964
1768.000000	1.046163
1767.000000	1.046370
1766.000000	1.046575
1765.000000	1.046779
1764.000000	1.046973
1763.000000	1.047141
1762.000000	1.047284
1761.000000	1.047427
1760.000000	1.047608
1759.000000	1.047829
1758.000000	1.048065
1757.000000	1.048281
1756.000000	1.048463
1755.000000	1.048624
1754.000000	1.048779
1753.000000	1.048934
1752.000000	1.049092
1751.000000	1.049252
1750.000000	1.049415
1749.000000	1.049589
1748.000000	1.049776
1747.000000	1.049966
1746.000000	1.050146
1745.000000	1.050303
1744.000000	1.050444
1743.000000	1.050583
1742.000000	1.050727
1741.000000	1.050878
1740.000000	1.051039
1739.000000	1.051194
1738.000000	1.051328
1737.000000	1.051438
1736.000000	1.051531
1735.000000	1.051621
1734.000000	1.051725
1733.000000	1.051853
1732.000000	1.052011
1731.000000	1.052182
1730.000000	1.052335
1729.000000	1.052453
1728.000000	1.052536
1727.000000	1.052598
1726.000000	1.052650
1725.000000	1.052694
1724.000000	1.052732
1723.000000	1.052759
1722.000000	1.052781
1721.000000	1.052820
1720.000000	1.052887
1719.000000	1.052971
1718.000000	1.053061
1717.000000	1.053154
1716.000000	1.053257
1715.000000	1.053366
1714.000000	1.053462
1713.000000	1.053542
1712.000000	1.053599
1711.000000	1.053624
1710.000000	1.053632
1709.000000	1.053652
1708.000000	1.053675
1707.000000	1.053673
1706.000000	1.053649
1705.000000	1.053650
1704.000000	1.053704
1703.000000	1.053782
1702.000000	1.053830
1701.000000	1.053839
1700.000000	1.053850
1699.000000	1.053867
1698.000000	1.053865
1697.000000	1.053857
1696.000000	1.053876
1695.000000	1.053931
1694.000000	1.054021
1693.000000	1.054112
1692.000000	1.054166
1691.000000	1.054173
1690.000000	1.054152
1689.000000	1.054127
1688.000000	1.054108
1687.000000	1.054108
1686.000000	1.054129
1685.000000	1.054180
1684.000000	1.054248
1683.000000	1.054316
1682.000000	1.054380
1681.000000	1.054392
1680.000000	1.054331
1679.000000	1.054251
1678.000000	1.054222
1677.000000	1.054257
1676.000000	1.054318
1675.000000	1.054372
1674.000000	1.054411
1673.000000	1.054426
1672.000000	1.054427
1671.000000	1.054427
1670.000000	1.054436
1669.000000	1.054456
1668.000000	1.054489
1667.000000	1.054537
1666.000000	1.054574
1665.000000	1.054568
1664.000000	1.054516
1663.000000	1.054461
1662.000000	1.054459
1661.000000	1.054508
1660.000000	1.054567
1659.000000	1.054612
1658.000000	1.054642
1657.000000	1.054660
1656.000000	1.054667
1655.000000	1.054669
1654.000000	1.054677
1653.000000	1.054688
1652.000000	1.054699
1651.000000	1.054709
1650.000000	1.054706
1649.000000	1.054723
1648.000000	1.054779
1647.000000	1.054844
1646.000000	1.054868
1645.000000	1.054859
1644.000000	1.054844
1643.000000	1.054831
1642.000000	1.054821
1641.000000	1.054799
1640.000000	1.054758
1639.000000	1.054708
1638.000000	1.054663
1637.000000	1.054643
1636.000000	1.054665
1635.000000	1.054735
1634.000000	1.054838
1633.000000	1.054934
1632.000000	1.054983
1631.000000	1.054971
1630.000000	1.054909
1629.000000	1.054822
1628.000000	1.054746
1627.000000	1.054701
1626.000000	1.054691
1625.000000	1.054709
1624.000000	1.054744
1623.000000	1.054784
1622.000000	1.054813
1621.000000	1.054817
1620.000000	1.054786
1619.000000	1.054735
1618.000000	1.054692
1617.000000	1.054688
1616.000000	1.054736
1615.000000	1.054828
1614.000000	1.054935
1613.000000	1.055008
1612.000000	1.055017
1611.000000	1.054971
1610.000000	1.054918
1609.000000	1.054907
1608.000000	1.054956
1607.000000	1.055036
1606.000000	1.055100
1605.000000	1.055106
1604.000000	1.055062
1603.000000	1.055003
1602.000000	1.054951
1601.000000	1.054917
1600.000000	1.054925
1599.000000	1.054985
1598.000000	1.055056
1597.000000	1.055092
1596.000000	1.055093
1595.000000	1.055096
1594.000000	1.055114
1593.000000	1.055118
1592.000000	1.055091
1591.000000	1.055047
1590.000000	1.055012
1589.000000	1.055005
1588.000000	1.055027
1587.000000	1.055063
1586.000000	1.055083
1585.000000	1.055056
1584.000000	1.054983
1583.000000	1.054919
1582.000000	1.054918
1581.000000	1.054990
1580.000000	1.055098
1579.000000	1.055200
1578.000000	1.055255
1577.000000	1.055247
1576.000000	1.055198
1575.000000	1.055148
1574.000000	1.055115
1573.000000	1.055076
1572.000000	1.055036
1571.000000	1.055029
1570.000000	1.055068
1569.000000	1.055108
1568.000000	1.055106
1567.000000	1.055078
1566.000000	1.055049
1565.000000	1.055031
1564.000000	1.055027
1563.000000	1.055060
1562.000000	1.055126
1561.000000	1.055174
1560.000000	1.055176
1559.000000	1.055170
1558.000000	1.055143
1557.000000	1.055157
1556.000000	1.055216
1555.000000	1.055278
1554.000000	1.055303
1553.000000	1.055267
1552.000000	1.055226
1551.000000	1.055246
1550.000000	1.055300
1549.000000	1.055297
1548.000000	1.055209
1547.000000	1.055105
1546.000000	1.055058
1545.000000	1.055065
1544.000000	1.055079
1543.000000	1.055083
1542.000000	1.055085
1541.000000	1.055087
1540.000000	1.055063
1539.000000	1.055016
1538.000000	1.055004
1537.000000	1.055032
1536.000000	1.055058
1535.000000	1.055060
1534.000000	1.055055
1533.000000	1.055047
1532.000000	1.055035
1531.000000	1.055041
1530.000000	1.055090
1529.000000	1.055183
1528.000000	1.055268
1527.000000	1.055278
1526.000000	1.055197
1525.000000	1.055076
1524.000000	1.054993
1523.000000	1.054996
1522.000000	1.055064
1521.000000	1.055121
1520.000000	1.055121
1519.000000	1.055096
1518.000000	1.055092
1517.000000	1.055115
1516.000000	1.055132
1515.000000	1.055121
1514.000000	1.055094
1513.000000	1.055067
1512.000000	1.055053
1511.000000	1.055062
1510.000000	1.055105
1509.000000	1.055178
1508.000000	1.055253
1507.000000	1.055261
1506.000000	1.055191
1505.000000	1.055177
1504.000000	1.055253
1503.000000	1.055347
1502.000000	1.055393
1501.000000	1.055363
1500.000000	1.055287
