PE IR       SUBTECH     SPECTRUM    ASCII       PEDS        4.00        
   -1
TE108B1_027.ASC
20/02/21
15:55:52.00
20/02/21
15:55:52.00
Administrator
Sample 027 By Administrator Date Friday, February 21 2020
1500.000000
#HDR
-1
-1
#GR
cm-1
A
1.0
0.0
4000.000000
-1.000000
2501
8
0.977455
0.921713
#DATA
4000.000000	0.932184
3999.000000	0.932155
3998.000000	0.932122
3997.000000	0.932096
3996.000000	0.932085
3995.000000	0.932093
3994.000000	0.932112
3993.000000	0.932130
3992.000000	0.932138
3991.000000	0.932131
3990.000000	0.932117
3989.000000	0.932104
3988.000000	0.932096
3987.000000	0.932084
3986.000000	0.932053
3985.000000	0.931999
3984.000000	0.931935
3983.000000	0.931885
3982.000000	0.931857
3981.000000	0.931837
3980.000000	0.931807
3979.000000	0.931759
3978.000000	0.931706
3977.000000	0.931663
3976.000000	0.931632
3975.000000	0.931605
3974.000000	0.931574
3973.000000	0.931537
3972.000000	0.931496
3971.000000	0.931452
3970.000000	0.931406
3969.000000	0.931356
3968.000000	0.931305
3967.000000	0.931257
3966.000000	0.931207
3965.000000	0.931147
3964.000000	0.931077
3963.000000	0.931005
3962.000000	0.930942
3961.000000	0.930894
3960.000000	0.930856
3959.000000	0.930823
3958.000000	0.930789
3957.000000	0.930752
3956.000000	0.930711
3955.000000	0.930669
3954.000000	0.930625
3953.000000	0.930573
3952.000000	0.930500
3951.000000	0.930401
3950.000000	0.930285
3949.000000	0.930171
3948.000000	0.930081
3947.000000	0.930028
3946.000000	0.930001
3945.000000	0.929975
3944.000000	0.929929
3943.000000	0.929856
3942.000000	0.929768
3941.000000	0.929680
3940.000000	0.929602
3939.000000	0.929532
3938.000000	0.929460
3937.000000	0.929377
3936.000000	0.929274
3935.000000	0.929155
3934.000000	0.929033
3933.000000	0.928926
3932.000000	0.928847
3931.000000	0.928793
3930.000000	0.928750
3929.000000	0.928695
3928.000000	0.928618
3927.000000	0.928523
3926.000000	0.928423
3925.000000	0.928328
3924.000000	0.928239
3923.000000	0.928155
3922.000000	0.928069
3921.000000	0.927973
3920.000000	0.927865
3919.000000	0.927751
3918.000000	0.927640
3917.000000	0.927543
3916.000000	0.927463
3915.000000	0.927404
3914.000000	0.927361
3913.000000	0.927323
3912.000000	0.927273
3911.000000	0.927200
3910.000000	0.927113
3909.000000	0.927032
3908.000000	0.926974
3907.000000	0.926925
3906.000000	0.926852
3905.000000	0.926724
3904.000000	0.926547
3903.000000	0.926358
3902.000000	0.926195
3901.000000	0.926077
3900.000000	0.926002
3899.000000	0.925962
3898.000000	0.925950
3897.000000	0.925954
3896.000000	0.925952
3895.000000	0.925914
3894.000000	0.925819
3893.000000	0.925671
3892.000000	0.925519
3891.000000	0.925429
3890.000000	0.925438
3889.000000	0.925506
3888.000000	0.925535
3887.000000	0.925452
3886.000000	0.925277
3885.000000	0.925100
3884.000000	0.924995
3883.000000	0.924955
3882.000000	0.924918
3881.000000	0.924847
3880.000000	0.924768
3879.000000	0.924734
3878.000000	0.924752
3877.000000	0.924769
3876.000000	0.924736
3875.000000	0.924657
3874.000000	0.924570
3873.000000	0.924490
3872.000000	0.924384
3871.000000	0.924224
3870.000000	0.924039
3869.000000	0.923903
3868.000000	0.923863
3867.000000	0.923890
3866.000000	0.923908
3865.000000	0.923864
3864.000000	0.923770
3863.000000	0.923677
3862.000000	0.923618
3861.000000	0.923591
3860.000000	0.923595
3859.000000	0.923636
3858.000000	0.923703
3857.000000	0.923722
3856.000000	0.923594
3855.000000	0.923283
3854.000000	0.922877
3853.000000	0.922553
3852.000000	0.922453
3851.000000	0.922584
3850.000000	0.922832
3849.000000	0.923054
3848.000000	0.923169
3847.000000	0.923175
3846.000000	0.923115
3845.000000	0.923032
3844.000000	0.922955
3843.000000	0.922907
3842.000000	0.922891
3841.000000	0.922880
3840.000000	0.922820
3839.000000	0.922681
3838.000000	0.922498
3837.000000	0.922353
3836.000000	0.922309
3835.000000	0.922357
3834.000000	0.922428
3833.000000	0.922455
3832.000000	0.922427
3831.000000	0.922386
3830.000000	0.922369
3829.000000	0.922375
3828.000000	0.922373
3827.000000	0.922356
3826.000000	0.922343
3825.000000	0.922347
3824.000000	0.922338
3823.000000	0.922271
3822.000000	0.922147
3821.000000	0.922038
3820.000000	0.922017
3819.000000	0.922070
3818.000000	0.922092
3817.000000	0.922000
3816.000000	0.921830
3815.000000	0.921713
3814.000000	0.921746
3813.000000	0.921903
3812.000000	0.922082
3811.000000	0.922198
3810.000000	0.922227
3809.000000	0.922181
3808.000000	0.922084
3807.000000	0.921992
3806.000000	0.921970
3805.000000	0.922031
3804.000000	0.922094
3803.000000	0.922059
3802.000000	0.921913
3801.000000	0.921763
3800.000000	0.921729
3799.000000	0.921828
3798.000000	0.921970
3797.000000	0.922066
3796.000000	0.922098
3795.000000	0.922117
3794.000000	0.922162
3793.000000	0.922226
3792.000000	0.922277
3791.000000	0.922295
3790.000000	0.922293
3789.000000	0.922292
3788.000000	0.922300
3787.000000	0.922315
3786.000000	0.922332
3785.000000	0.922351
3784.000000	0.922377
3783.000000	0.922407
3782.000000	0.922434
3781.000000	0.922445
3780.000000	0.922440
3779.000000	0.922436
3778.000000	0.922456
3777.000000	0.922508
3776.000000	0.922580
3775.000000	0.922651
3774.000000	0.922701
3773.000000	0.922718
3772.000000	0.922698
3771.000000	0.922657
3770.000000	0.922627
3769.000000	0.922634
3768.000000	0.922673
3767.000000	0.922718
3766.000000	0.922753
3765.000000	0.922785
3764.000000	0.922834
3763.000000	0.922897
3762.000000	0.922953
3761.000000	0.922985
3760.000000	0.923000
3759.000000	0.923020
3758.000000	0.923068
3757.000000	0.923147
3756.000000	0.923238
3755.000000	0.923299
3754.000000	0.923285
3753.000000	0.923171
3752.000000	0.922985
3751.000000	0.922808
3750.000000	0.922743
3749.000000	0.922851
3748.000000	0.923076
3747.000000	0.923263
3746.000000	0.923266
3745.000000	0.923088
3744.000000	0.922901
3743.000000	0.922896
3742.000000	0.923119
3741.000000	0.923444
3740.000000	0.923707
3739.000000	0.923826
3738.000000	0.923825
3737.000000	0.923774
3736.000000	0.923733
3735.000000	0.923729
3734.000000	0.923763
3733.000000	0.923819
3732.000000	0.923894
3731.000000	0.924004
3730.000000	0.924160
3729.000000	0.924336
3728.000000	0.924475
3727.000000	0.924543
3726.000000	0.924564
3725.000000	0.924592
3724.000000	0.924664
3723.000000	0.924783
3722.000000	0.924926
3721.000000	0.925069
3720.000000	0.925192
3719.000000	0.925293
3718.000000	0.925398
3717.000000	0.925542
3716.000000	0.925730
3715.000000	0.925918
3714.000000	0.926045
3713.000000	0.926092
3712.000000	0.926111
3711.000000	0.926183
3710.000000	0.926350
3709.000000	0.926590
3708.000000	0.926856
3707.000000	0.927111
3706.000000	0.927352
3705.000000	0.927584
3704.000000	0.927807
3703.000000	0.928016
3702.000000	0.928221
3701.000000	0.928443
3700.000000	0.928696
3699.000000	0.928978
3698.000000	0.929277
3697.000000	0.929583
3696.000000	0.929892
3695.000000	0.930205
3694.000000	0.930516
3693.000000	0.930816
3692.000000	0.931088
3691.000000	0.931312
3690.000000	0.931479
3689.000000	0.931630
3688.000000	0.931845
3687.000000	0.932193
3686.000000	0.932664
3685.000000	0.933174
3684.000000	0.933636
3683.000000	0.934030
3682.000000	0.934404
3681.000000	0.934819
3680.000000	0.935287
3679.000000	0.935761
3678.000000	0.936167
3677.000000	0.936470
3676.000000	0.936723
3675.000000	0.937035
3674.000000	0.937476
3673.000000	0.938002
3672.000000	0.938496
3671.000000	0.938899
3670.000000	0.939262
3669.000000	0.939682
3668.000000	0.940195
3667.000000	0.940747
3666.000000	0.941267
3665.000000	0.941730
3664.000000	0.942164
3663.000000	0.942602
3662.000000	0.943062
3661.000000	0.943541
3660.000000	0.944019
3659.000000	0.944462
3658.000000	0.944848
3657.000000	0.945194
3656.000000	0.945554
3655.000000	0.945975
3654.000000	0.946444
3653.000000	0.946885
3652.000000	0.947225
3651.000000	0.947456
3650.000000	0.947649
3649.000000	0.947900
3648.000000	0.948268
3647.000000	0.948741
3646.000000	0.949255
3645.000000	0.949739
3644.000000	0.950152
3643.000000	0.950498
3642.000000	0.950807
3641.000000	0.951107
3640.000000	0.951409
3639.000000	0.951711
3638.000000	0.952011
3637.000000	0.952304
3636.000000	0.952579
3635.000000	0.952827
3634.000000	0.953053
3633.000000	0.953269
3632.000000	0.953466
3631.000000	0.953615
3630.000000	0.953713
3629.000000	0.953808
3628.000000	0.953970
3627.000000	0.954228
3626.000000	0.954541
3625.000000	0.954840
3624.000000	0.955087
3623.000000	0.955280
3622.000000	0.955427
3621.000000	0.955532
3620.000000	0.955615
3619.000000	0.955722
3618.000000	0.955893
3617.000000	0.956120
3616.000000	0.956351
3615.000000	0.956537
3614.000000	0.956674
3613.000000	0.956793
3612.000000	0.956916
3611.000000	0.957032
3610.000000	0.957115
3609.000000	0.957161
3608.000000	0.957201
3607.000000	0.957276
3606.000000	0.957402
3605.000000	0.957560
3604.000000	0.957717
3603.000000	0.957848
3602.000000	0.957952
3601.000000	0.958042
3600.000000	0.958135
3599.000000	0.958239
3598.000000	0.958342
3597.000000	0.958422
3596.000000	0.958466
3595.000000	0.958489
3594.000000	0.958519
3593.000000	0.958571
3592.000000	0.958630
3591.000000	0.958667
3590.000000	0.958667
3589.000000	0.958648
3588.000000	0.958648
3587.000000	0.958700
3586.000000	0.958805
3585.000000	0.958937
3584.000000	0.959061
3583.000000	0.959146
3582.000000	0.959188
3581.000000	0.959201
3580.000000	0.959208
3579.000000	0.959223
3578.000000	0.959249
3577.000000	0.959280
3576.000000	0.959303
3575.000000	0.959306
3574.000000	0.959285
3573.000000	0.959250
3572.000000	0.959222
3571.000000	0.959222
3570.000000	0.959247
3569.000000	0.959276
3568.000000	0.959287
3567.000000	0.959282
3566.000000	0.959284
3565.000000	0.959309
3564.000000	0.959362
3563.000000	0.959429
3562.000000	0.959497
3561.000000	0.959552
3560.000000	0.959584
3559.000000	0.959585
3558.000000	0.959563
3557.000000	0.959541
3556.000000	0.959542
3555.000000	0.959572
3554.000000	0.959614
3553.000000	0.959641
3552.000000	0.959643
3551.000000	0.959633
3550.000000	0.959637
3549.000000	0.959669
3548.000000	0.959724
3547.000000	0.959785
3546.000000	0.959839
3545.000000	0.959882
3544.000000	0.959916
3543.000000	0.959942
3542.000000	0.959956
3541.000000	0.959960
3540.000000	0.959960
3539.000000	0.959967
3538.000000	0.959985
3537.000000	0.960009
3536.000000	0.960033
3535.000000	0.960053
3534.000000	0.960072
3533.000000	0.960094
3532.000000	0.960125
3531.000000	0.960170
3530.000000	0.960227
3529.000000	0.960285
3528.000000	0.960336
3527.000000	0.960377
3526.000000	0.960417
3525.000000	0.960462
3524.000000	0.960515
3523.000000	0.960575
3522.000000	0.960646
3521.000000	0.960724
3520.000000	0.960801
3519.000000	0.960863
3518.000000	0.960907
3517.000000	0.960942
3516.000000	0.960987
3515.000000	0.961055
3514.000000	0.961144
3513.000000	0.961242
3512.000000	0.961339
3511.000000	0.961427
3510.000000	0.961503
3509.000000	0.961567
3508.000000	0.961624
3507.000000	0.961683
3506.000000	0.961749
3505.000000	0.961817
3504.000000	0.961881
3503.000000	0.961946
3502.000000	0.962022
3501.000000	0.962116
3500.000000	0.962224
3499.000000	0.962337
3498.000000	0.962449
3497.000000	0.962555
3496.000000	0.962654
3495.000000	0.962740
3494.000000	0.962806
3493.000000	0.962853
3492.000000	0.962896
3491.000000	0.962967
3490.000000	0.963083
3489.000000	0.963233
3488.000000	0.963377
3487.000000	0.963484
3486.000000	0.963557
3485.000000	0.963623
3484.000000	0.963708
3483.000000	0.963815
3482.000000	0.963930
3481.000000	0.964041
3480.000000	0.964149
3479.000000	0.964261
3478.000000	0.964380
3477.000000	0.964497
3476.000000	0.964607
3475.000000	0.964710
3474.000000	0.964814
3473.000000	0.964919
3472.000000	0.965023
3471.000000	0.965122
3470.000000	0.965220
3469.000000	0.965328
3468.000000	0.965452
3467.000000	0.965599
3466.000000	0.965766
3465.000000	0.965939
3464.000000	0.966098
3463.000000	0.966225
3462.000000	0.966326
3461.000000	0.966425
3460.000000	0.966542
3459.000000	0.966681
3458.000000	0.966828
3457.000000	0.966967
3456.000000	0.967091
3455.000000	0.967206
3454.000000	0.967317
3453.000000	0.967432
3452.000000	0.967556
3451.000000	0.967696
3450.000000	0.967848
3449.000000	0.967997
3448.000000	0.968128
3447.000000	0.968232
3446.000000	0.968314
3445.000000	0.968387
3444.000000	0.968468
3443.000000	0.968572
3442.000000	0.968705
3441.000000	0.968860
3440.000000	0.969021
3439.000000	0.969168
3438.000000	0.969286
3437.000000	0.969370
3436.000000	0.969435
3435.000000	0.969508
3434.000000	0.969613
3433.000000	0.969747
3432.000000	0.969892
3431.000000	0.970029
3430.000000	0.970150
3429.000000	0.970258
3428.000000	0.970361
3427.000000	0.970469
3426.000000	0.970587
3425.000000	0.970710
3424.000000	0.970821
3423.000000	0.970909
3422.000000	0.970979
3421.000000	0.971053
3420.000000	0.971149
3419.000000	0.971262
3418.000000	0.971375
3417.000000	0.971467
3416.000000	0.971542
3415.000000	0.971617
3414.000000	0.971710
3413.000000	0.971822
3412.000000	0.971938
3411.000000	0.972048
3410.000000	0.972148
3409.000000	0.972241
3408.000000	0.972326
3407.000000	0.972396
3406.000000	0.972449
3405.000000	0.972491
3404.000000	0.972530
3403.000000	0.972573
3402.000000	0.972623
3401.000000	0.972684
3400.000000	0.972755
3399.000000	0.972830
3398.000000	0.972894
3397.000000	0.972935
3396.000000	0.972958
3395.000000	0.972980
3394.000000	0.973018
3393.000000	0.973076
3392.000000	0.973139
3391.000000	0.973199
3390.000000	0.973254
3389.000000	0.973303
3388.000000	0.973340
3387.000000	0.973363
3386.000000	0.973377
3385.000000	0.973398
3384.000000	0.973436
3383.000000	0.973492
3382.000000	0.973557
3381.000000	0.973618
3380.000000	0.973663
3379.000000	0.973686
3378.000000	0.973691
3377.000000	0.973696
3376.000000	0.973722
3375.000000	0.973777
3374.000000	0.973846
3373.000000	0.973899
3372.000000	0.973916
3371.000000	0.973908
3370.000000	0.973902
3369.000000	0.973916
3368.000000	0.973942
3367.000000	0.973957
3366.000000	0.973956
3365.000000	0.973957
3364.000000	0.973980
3363.000000	0.974027
3362.000000	0.974078
3361.000000	0.974116
3360.000000	0.974138
3359.000000	0.974159
3358.000000	0.974187
3357.000000	0.974221
3356.000000	0.974251
3355.000000	0.974267
3354.000000	0.974269
3353.000000	0.974259
3352.000000	0.974243
3351.000000	0.974229
3350.000000	0.974227
3349.000000	0.974244
3348.000000	0.974275
3347.000000	0.974308
3346.000000	0.974331
3345.000000	0.974341
3344.000000	0.974351
3343.000000	0.974376
3342.000000	0.974417
3341.000000	0.974452
3340.000000	0.974456
3339.000000	0.974422
3338.000000	0.974378
3337.000000	0.974355
3336.000000	0.974365
3335.000000	0.974391
3334.000000	0.974414
3333.000000	0.974437
3332.000000	0.974474
3331.000000	0.974527
3330.000000	0.974580
3329.000000	0.974609
3328.000000	0.974608
3327.000000	0.974595
3326.000000	0.974588
3325.000000	0.974596
3324.000000	0.974616
3323.000000	0.974645
3322.000000	0.974686
3321.000000	0.974737
3320.000000	0.974789
3319.000000	0.974827
3318.000000	0.974848
3317.000000	0.974863
3316.000000	0.974885
3315.000000	0.974918
3314.000000	0.974952
3313.000000	0.974978
3312.000000	0.974997
3311.000000	0.975013
3310.000000	0.975027
3309.000000	0.975031
3308.000000	0.975024
3307.000000	0.975018
3306.000000	0.975033
3305.000000	0.975074
3304.000000	0.975130
3303.000000	0.975180
3302.000000	0.975212
3301.000000	0.975230
3300.000000	0.975244
3299.000000	0.975266
3298.000000	0.975298
3297.000000	0.975332
3296.000000	0.975361
3295.000000	0.975376
3294.000000	0.975379
3293.000000	0.975378
3292.000000	0.975383
3291.000000	0.975406
3290.000000	0.975445
3289.000000	0.975491
3288.000000	0.975535
3287.000000	0.975573
3286.000000	0.975607
3285.000000	0.975638
3284.000000	0.975667
3283.000000	0.975700
3282.000000	0.975743
3281.000000	0.975798
3280.000000	0.975853
3279.000000	0.975890
3278.000000	0.975902
3277.000000	0.975904
3276.000000	0.975919
3275.000000	0.975962
3274.000000	0.976014
3273.000000	0.976048
3272.000000	0.976049
3271.000000	0.976036
3270.000000	0.976035
3269.000000	0.976054
3268.000000	0.976075
3267.000000	0.976078
3266.000000	0.976066
3265.000000	0.976059
3264.000000	0.976076
3263.000000	0.976117
3262.000000	0.976168
3261.000000	0.976212
3260.000000	0.976245
3259.000000	0.976276
3258.000000	0.976313
3257.000000	0.976349
3256.000000	0.976371
3255.000000	0.976374
3254.000000	0.976371
3253.000000	0.976379
3252.000000	0.976400
3251.000000	0.976429
3250.000000	0.976460
3249.000000	0.976496
3248.000000	0.976535
3247.000000	0.976567
3246.000000	0.976580
3245.000000	0.976576
3244.000000	0.976567
3243.000000	0.976572
3242.000000	0.976597
3241.000000	0.976637
3240.000000	0.976682
3239.000000	0.976722
3238.000000	0.976750
3237.000000	0.976764
3236.000000	0.976763
3235.000000	0.976753
3234.000000	0.976741
3233.000000	0.976738
3232.000000	0.976755
3231.000000	0.976795
3230.000000	0.976854
3229.000000	0.976915
3228.000000	0.976957
3227.000000	0.976974
3226.000000	0.976974
3225.000000	0.976974
3224.000000	0.976983
3223.000000	0.976999
3222.000000	0.977015
3221.000000	0.977027
3220.000000	0.977038
3219.000000	0.977054
3218.000000	0.977078
3217.000000	0.977097
3216.000000	0.977095
3215.000000	0.977072
3214.000000	0.977049
3213.000000	0.977052
3212.000000	0.977083
3211.000000	0.977114
3210.000000	0.977119
3209.000000	0.977101
3208.000000	0.977083
3207.000000	0.977082
3206.000000	0.977093
3205.000000	0.977100
3204.000000	0.977093
3203.000000	0.977071
3202.000000	0.977047
3201.000000	0.977038
3200.000000	0.977050
3199.000000	0.977077
3198.000000	0.977102
3197.000000	0.977115
3196.000000	0.977115
3195.000000	0.977108
3194.000000	0.977100
3193.000000	0.977094
3192.000000	0.977090
3191.000000	0.977086
3190.000000	0.977078
3189.000000	0.977071
3188.000000	0.977074
3187.000000	0.977094
3186.000000	0.977120
3185.000000	0.977134
3184.000000	0.977130
3183.000000	0.977119
3182.000000	0.977115
3181.000000	0.977125
3180.000000	0.977142
3179.000000	0.977153
3178.000000	0.977148
3177.000000	0.977126
3176.000000	0.977102
3175.000000	0.977093
3174.000000	0.977100
3173.000000	0.977111
3172.000000	0.977113
3171.000000	0.977109
3170.000000	0.977109
3169.000000	0.977113
3168.000000	0.977116
3167.000000	0.977122
3166.000000	0.977134
3165.000000	0.977153
3164.000000	0.977170
3163.000000	0.977181
3162.000000	0.977190
3161.000000	0.977199
3160.000000	0.977202
3159.000000	0.977196
3158.000000	0.977188
3157.000000	0.977192
3156.000000	0.977208
3155.000000	0.977228
3154.000000	0.977242
3153.000000	0.977243
3152.000000	0.977236
3151.000000	0.977230
3150.000000	0.977234
3149.000000	0.977247
3148.000000	0.977258
3147.000000	0.977258
3146.000000	0.977245
3145.000000	0.977229
3144.000000	0.977222
3143.000000	0.977235
3142.000000	0.977269
3141.000000	0.977310
3140.000000	0.977344
3139.000000	0.977365
3138.000000	0.977379
3137.000000	0.977391
3136.000000	0.977397
3135.000000	0.977395
3134.000000	0.977389
3133.000000	0.977387
3132.000000	0.977384
3131.000000	0.977369
3130.000000	0.977343
3129.000000	0.977319
3128.000000	0.977317
3127.000000	0.977344
3126.000000	0.977390
3125.000000	0.977433
3124.000000	0.977455
3123.000000	0.977454
3122.000000	0.977443
3121.000000	0.977432
3120.000000	0.977421
3119.000000	0.977404
3118.000000	0.977381
3117.000000	0.977359
3116.000000	0.977351
3115.000000	0.977361
3114.000000	0.977381
3113.000000	0.977390
3112.000000	0.977371
3111.000000	0.977323
3110.000000	0.977267
3109.000000	0.977226
3108.000000	0.977205
3107.000000	0.977191
3106.000000	0.977177
3105.000000	0.977169
3104.000000	0.977173
3103.000000	0.977181
3102.000000	0.977176
3101.000000	0.977150
3100.000000	0.977105
3099.000000	0.977046
3098.000000	0.976985
3097.000000	0.976934
3096.000000	0.976904
3095.000000	0.976894
3094.000000	0.976894
3093.000000	0.976889
3092.000000	0.976870
3091.000000	0.976831
3090.000000	0.976774
3089.000000	0.976704
3088.000000	0.976640
3087.000000	0.976599
3086.000000	0.976585
3085.000000	0.976584
3084.000000	0.976575
3083.000000	0.976547
3082.000000	0.976501
3081.000000	0.976445
3080.000000	0.976383
3079.000000	0.976320
3078.000000	0.976263
3077.000000	0.976224
3076.000000	0.976207
3075.000000	0.976199
3074.000000	0.976177
3073.000000	0.976126
3072.000000	0.976051
3071.000000	0.975975
3070.000000	0.975918
3069.000000	0.975884
3068.000000	0.975861
3067.000000	0.975835
3066.000000	0.975802
3065.000000	0.975760
3064.000000	0.975715
3063.000000	0.975668
3062.000000	0.975620
3061.000000	0.975566
3060.000000	0.975504
3059.000000	0.975439
3058.000000	0.975383
3057.000000	0.975341
3056.000000	0.975309
3055.000000	0.975274
3054.000000	0.975231
3053.000000	0.975187
3052.000000	0.975154
3051.000000	0.975132
3050.000000	0.975111
3049.000000	0.975077
3048.000000	0.975026
3047.000000	0.974961
3046.000000	0.974895
3045.000000	0.974833
3044.000000	0.974773
3043.000000	0.974711
3042.000000	0.974654
3041.000000	0.974616
3040.000000	0.974602
3039.000000	0.974596
3038.000000	0.974576
3037.000000	0.974535
3036.000000	0.974480
3035.000000	0.974422
3034.000000	0.974370
3033.000000	0.974333
3032.000000	0.974320
3031.000000	0.974326
3030.000000	0.974331
3029.000000	0.974315
3028.000000	0.974273
3027.000000	0.974217
3026.000000	0.974158
3025.000000	0.974103
3024.000000	0.974057
3023.000000	0.974020
3022.000000	0.973982
3021.000000	0.973933
3020.000000	0.973869
3019.000000	0.973800
3018.000000	0.973736
3017.000000	0.973673
3016.000000	0.973606
3015.000000	0.973535
3014.000000	0.973471
3013.000000	0.973419
3012.000000	0.973382
3011.000000	0.973356
3010.000000	0.973336
3009.000000	0.973311
3008.000000	0.973268
3007.000000	0.973209
3006.000000	0.973148
3005.000000	0.973097
3004.000000	0.973056
3003.000000	0.973009
3002.000000	0.972950
3001.000000	0.972880
3000.000000	0.972806
2999.000000	0.972737
2998.000000	0.972676
2997.000000	0.972625
2996.000000	0.972578
2995.000000	0.972528
2994.000000	0.972469
2993.000000	0.972406
2992.000000	0.972342
2991.000000	0.972279
2990.000000	0.972211
2989.000000	0.972132
2988.000000	0.972044
2987.000000	0.971956
2986.000000	0.971883
2985.000000	0.971836
2984.000000	0.971810
2983.000000	0.971787
2982.000000	0.971754
2981.000000	0.971706
2980.000000	0.971648
2979.000000	0.971582
2978.000000	0.971510
2977.000000	0.971441
2976.000000	0.971386
2975.000000	0.971350
2974.000000	0.971321
2973.000000	0.971284
2972.000000	0.971239
2971.000000	0.971194
2970.000000	0.971150
2969.000000	0.971096
2968.000000	0.971022
2967.000000	0.970931
2966.000000	0.970835
2965.000000	0.970742
2964.000000	0.970654
2963.000000	0.970563
2962.000000	0.970460
2961.000000	0.970338
2960.000000	0.970201
2959.000000	0.970062
2958.000000	0.969934
2957.000000	0.969818
2956.000000	0.969702
2955.000000	0.969586
2954.000000	0.969480
2953.000000	0.969389
2952.000000	0.969308
2951.000000	0.969231
2950.000000	0.969162
2949.000000	0.969103
2948.000000	0.969044
2947.000000	0.968965
2946.000000	0.968861
2945.000000	0.968747
2944.000000	0.968644
2943.000000	0.968560
2942.000000	0.968488
2941.000000	0.968412
2940.000000	0.968319
2939.000000	0.968203
2938.000000	0.968070
2937.000000	0.967934
2936.000000	0.967809
2935.000000	0.967708
2934.000000	0.967628
2933.000000	0.967553
2932.000000	0.967460
2931.000000	0.967335
2930.000000	0.967185
2929.000000	0.967033
2928.000000	0.966893
2927.000000	0.966762
2926.000000	0.966634
2925.000000	0.966509
2924.000000	0.966386
2923.000000	0.966255
2922.000000	0.966106
2921.000000	0.965944
2920.000000	0.965787
2919.000000	0.965644
2918.000000	0.965512
2917.000000	0.965383
2916.000000	0.965260
2915.000000	0.965148
2914.000000	0.965043
2913.000000	0.964940
2912.000000	0.964841
2911.000000	0.964746
2910.000000	0.964648
2909.000000	0.964533
2908.000000	0.964398
2907.000000	0.964250
2906.000000	0.964106
2905.000000	0.963978
2904.000000	0.963872
2903.000000	0.963784
2902.000000	0.963702
2901.000000	0.963606
2900.000000	0.963489
2899.000000	0.963357
2898.000000	0.963228
2897.000000	0.963112
2896.000000	0.963000
2895.000000	0.962875
2894.000000	0.962726
2893.000000	0.962561
2892.000000	0.962400
2891.000000	0.962263
2890.000000	0.962149
2889.000000	0.962042
2888.000000	0.961927
2887.000000	0.961807
2886.000000	0.961694
2885.000000	0.961591
2884.000000	0.961490
2883.000000	0.961381
2882.000000	0.961266
2881.000000	0.961149
2880.000000	0.961031
2879.000000	0.960906
2878.000000	0.960769
2877.000000	0.960627
2876.000000	0.960486
2875.000000	0.960351
2874.000000	0.960224
2873.000000	0.960105
2872.000000	0.960000
2871.000000	0.959911
2870.000000	0.959827
2869.000000	0.959732
2868.000000	0.959618
2867.000000	0.959493
2866.000000	0.959370
2865.000000	0.959249
2864.000000	0.959116
2863.000000	0.958965
2862.000000	0.958804
2861.000000	0.958644
2860.000000	0.958491
2859.000000	0.958343
2858.000000	0.958200
2857.000000	0.958065
2856.000000	0.957942
2855.000000	0.957831
2854.000000	0.957725
2853.000000	0.957621
2852.000000	0.957517
2851.000000	0.957419
2850.000000	0.957333
2849.000000	0.957253
2848.000000	0.957171
2847.000000	0.957081
2846.000000	0.956987
2845.000000	0.956898
2844.000000	0.956813
2843.000000	0.956727
2842.000000	0.956638
2841.000000	0.956554
2840.000000	0.956477
2839.000000	0.956402
2838.000000	0.956322
2837.000000	0.956236
2836.000000	0.956150
2835.000000	0.956067
2834.000000	0.955980
2833.000000	0.955883
2832.000000	0.955783
2831.000000	0.955698
2830.000000	0.955636
2829.000000	0.955583
2828.000000	0.955519
2827.000000	0.955438
2826.000000	0.955352
2825.000000	0.955272
2824.000000	0.955200
2823.000000	0.955128
2822.000000	0.955049
2821.000000	0.954962
2820.000000	0.954865
2819.000000	0.954761
2818.000000	0.954656
2817.000000	0.954561
2816.000000	0.954480
2815.000000	0.954410
2814.000000	0.954341
2813.000000	0.954270
2812.000000	0.954197
2811.000000	0.954120
2810.000000	0.954037
2809.000000	0.953950
2808.000000	0.953868
2807.000000	0.953798
2806.000000	0.953735
2805.000000	0.953673
2804.000000	0.953608
2803.000000	0.953545
2802.000000	0.953489
2801.000000	0.953438
2800.000000	0.953389
2799.000000	0.953337
2798.000000	0.953282
2797.000000	0.953226
2796.000000	0.953170
2795.000000	0.953113
2794.000000	0.953059
2793.000000	0.953006
2792.000000	0.952950
2791.000000	0.952888
2790.000000	0.952819
2789.000000	0.952753
2788.000000	0.952698
2787.000000	0.952653
2786.000000	0.952611
2785.000000	0.952564
2784.000000	0.952512
2783.000000	0.952460
2782.000000	0.952412
2781.000000	0.952369
2780.000000	0.952332
2779.000000	0.952303
2778.000000	0.952280
2777.000000	0.952253
2776.000000	0.952210
2775.000000	0.952146
2774.000000	0.952066
2773.000000	0.951988
2772.000000	0.951929
2771.000000	0.951900
2770.000000	0.951892
2769.000000	0.951893
2768.000000	0.951889
2767.000000	0.951870
2766.000000	0.951833
2765.000000	0.951778
2764.000000	0.951711
2763.000000	0.951641
2762.000000	0.951576
2761.000000	0.951518
2760.000000	0.951466
2759.000000	0.951420
2758.000000	0.951376
2757.000000	0.951337
2756.000000	0.951311
2755.000000	0.951302
2754.000000	0.951298
2753.000000	0.951281
2752.000000	0.951241
2751.000000	0.951192
2750.000000	0.951154
2749.000000	0.951139
2748.000000	0.951141
2747.000000	0.951146
2746.000000	0.951142
2745.000000	0.951126
2744.000000	0.951100
2743.000000	0.951070
2742.000000	0.951039
2741.000000	0.951010
2740.000000	0.950990
2739.000000	0.950980
2738.000000	0.950974
2737.000000	0.950956
2736.000000	0.950924
2735.000000	0.950890
2734.000000	0.950864
2733.000000	0.950848
2732.000000	0.950837
2731.000000	0.950830
2730.000000	0.950825
2729.000000	0.950816
2728.000000	0.950798
2727.000000	0.950777
2726.000000	0.950766
2725.000000	0.950764
2724.000000	0.950759
2723.000000	0.950741
2722.000000	0.950711
2721.000000	0.950678
2720.000000	0.950649
2719.000000	0.950632
2718.000000	0.950637
2717.000000	0.950662
2716.000000	0.950694
2715.000000	0.950711
2714.000000	0.950706
2713.000000	0.950688
2712.000000	0.950676
2711.000000	0.950680
2710.000000	0.950694
2709.000000	0.950706
2708.000000	0.950707
2707.000000	0.950700
2706.000000	0.950693
2705.000000	0.950689
2704.000000	0.950693
2703.000000	0.950702
2702.000000	0.950713
2701.000000	0.950720
2700.000000	0.950724
2699.000000	0.950730
2698.000000	0.950744
2697.000000	0.950767
2696.000000	0.950795
2695.000000	0.950818
2694.000000	0.950831
2693.000000	0.950832
2692.000000	0.950830
2691.000000	0.950832
2690.000000	0.950839
2689.000000	0.950843
2688.000000	0.950841
2687.000000	0.950845
2686.000000	0.950868
2685.000000	0.950907
2684.000000	0.950946
2683.000000	0.950975
2682.000000	0.951001
2681.000000	0.951027
2680.000000	0.951053
2679.000000	0.951073
2678.000000	0.951089
2677.000000	0.951103
2676.000000	0.951119
2675.000000	0.951139
2674.000000	0.951164
2673.000000	0.951193
2672.000000	0.951224
2671.000000	0.951259
2670.000000	0.951302
2669.000000	0.951344
2668.000000	0.951371
2667.000000	0.951381
2666.000000	0.951393
2665.000000	0.951424
2664.000000	0.951472
2663.000000	0.951526
2662.000000	0.951573
2661.000000	0.951612
2660.000000	0.951640
2659.000000	0.951663
2658.000000	0.951695
2657.000000	0.951744
2656.000000	0.951802
2655.000000	0.951851
2654.000000	0.951884
2653.000000	0.951912
2652.000000	0.951949
2651.000000	0.951998
2650.000000	0.952053
2649.000000	0.952111
2648.000000	0.952169
2647.000000	0.952227
2646.000000	0.952288
2645.000000	0.952349
2644.000000	0.952403
2643.000000	0.952442
2642.000000	0.952468
2641.000000	0.952494
2640.000000	0.952538
2639.000000	0.952603
2638.000000	0.952677
2637.000000	0.952742
2636.000000	0.952786
2635.000000	0.952816
2634.000000	0.952839
2633.000000	0.952862
2632.000000	0.952890
2631.000000	0.952933
2630.000000	0.952996
2629.000000	0.953073
2628.000000	0.953144
2627.000000	0.953198
2626.000000	0.953245
2625.000000	0.953299
2624.000000	0.953360
2623.000000	0.953415
2622.000000	0.953460
2621.000000	0.953500
2620.000000	0.953545
2619.000000	0.953600
2618.000000	0.953662
2617.000000	0.953725
2616.000000	0.953785
2615.000000	0.953848
2614.000000	0.953922
2613.000000	0.954008
2612.000000	0.954097
2611.000000	0.954172
2610.000000	0.954229
2609.000000	0.954274
2608.000000	0.954316
2607.000000	0.954360
2606.000000	0.954408
2605.000000	0.954463
2604.000000	0.954523
2603.000000	0.954590
2602.000000	0.954665
2601.000000	0.954742
2600.000000	0.954812
2599.000000	0.954870
2598.000000	0.954922
2597.000000	0.954979
2596.000000	0.955045
2595.000000	0.955116
2594.000000	0.955189
2593.000000	0.955264
2592.000000	0.955339
2591.000000	0.955405
2590.000000	0.955461
2589.000000	0.955510
2588.000000	0.955560
2587.000000	0.955615
2586.000000	0.955676
2585.000000	0.955743
2584.000000	0.955813
2583.000000	0.955882
2582.000000	0.955946
2581.000000	0.956006
2580.000000	0.956068
2579.000000	0.956139
2578.000000	0.956220
2577.000000	0.956308
2576.000000	0.956394
2575.000000	0.956470
2574.000000	0.956533
2573.000000	0.956587
2572.000000	0.956640
2571.000000	0.956704
2570.000000	0.956783
2569.000000	0.956875
2568.000000	0.956968
2567.000000	0.957051
2566.000000	0.957129
2565.000000	0.957211
2564.000000	0.957302
2563.000000	0.957392
2562.000000	0.957472
2561.000000	0.957546
2560.000000	0.957623
2559.000000	0.957709
2558.000000	0.957803
2557.000000	0.957903
2556.000000	0.958004
2555.000000	0.958096
2554.000000	0.958171
2553.000000	0.958232
2552.000000	0.958299
2551.000000	0.958386
2550.000000	0.958493
2549.000000	0.958601
2548.000000	0.958700
2547.000000	0.958786
2546.000000	0.958868
2545.000000	0.958949
2544.000000	0.959027
2543.000000	0.959099
2542.000000	0.959164
2541.000000	0.959229
2540.000000	0.959299
2539.000000	0.959382
2538.000000	0.959475
2537.000000	0.959579
2536.000000	0.959693
2535.000000	0.959818
2534.000000	0.959946
2533.000000	0.960065
2532.000000	0.960167
2531.000000	0.960254
2530.000000	0.960339
2529.000000	0.960428
2528.000000	0.960520
2527.000000	0.960615
2526.000000	0.960715
2525.000000	0.960821
2524.000000	0.960926
2523.000000	0.961021
2522.000000	0.961103
2521.000000	0.961179
2520.000000	0.961255
2519.000000	0.961335
2518.000000	0.961417
2517.000000	0.961505
2516.000000	0.961600
2515.000000	0.961706
2514.000000	0.961821
2513.000000	0.961934
2512.000000	0.962030
2511.000000	0.962100
2510.000000	0.962153
2509.000000	0.962214
2508.000000	0.962300
2507.000000	0.962409
2506.000000	0.962516
2505.000000	0.962600
2504.000000	0.962664
2503.000000	0.962730
2502.000000	0.962821
2501.000000	0.962931
2500.000000	0.963042
2499.000000	0.963140
2498.000000	0.963229
2497.000000	0.963319
2496.000000	0.963407
2495.000000	0.963488
2494.000000	0.963558
2493.000000	0.963620
2492.000000	0.963673
2491.000000	0.963719
2490.000000	0.963763
2489.000000	0.963814
2488.000000	0.963876
2487.000000	0.963940
2486.000000	0.963998
2485.000000	0.964051
2484.000000	0.964101
2483.000000	0.964155
2482.000000	0.964218
2481.000000	0.964293
2480.000000	0.964372
2479.000000	0.964441
2478.000000	0.964488
2477.000000	0.964514
2476.000000	0.964538
2475.000000	0.964575
2474.000000	0.964629
2473.000000	0.964690
2472.000000	0.964745
2471.000000	0.964786
2470.000000	0.964821
2469.000000	0.964858
2468.000000	0.964900
2467.000000	0.964944
2466.000000	0.964985
2465.000000	0.965019
2464.000000	0.965039
2463.000000	0.965044
2462.000000	0.965043
2461.000000	0.965051
2460.000000	0.965074
2459.000000	0.965108
2458.000000	0.965146
2457.000000	0.965181
2456.000000	0.965208
2455.000000	0.965224
2454.000000	0.965230
2453.000000	0.965235
2452.000000	0.965240
2451.000000	0.965239
2450.000000	0.965229
2449.000000	0.965217
2448.000000	0.965211
2447.000000	0.965213
2446.000000	0.965216
2445.000000	0.965215
2444.000000	0.965207
2443.000000	0.965193
2442.000000	0.965174
2441.000000	0.965153
2440.000000	0.965130
2439.000000	0.965104
2438.000000	0.965074
2437.000000	0.965043
2436.000000	0.965020
2435.000000	0.965007
2434.000000	0.964999
2433.000000	0.964988
2432.000000	0.964967
2431.000000	0.964936
2430.000000	0.964897
2429.000000	0.964856
2428.000000	0.964818
2427.000000	0.964783
2426.000000	0.964745
2425.000000	0.964700
2424.000000	0.964654
2423.000000	0.964615
2422.000000	0.964586
2421.000000	0.964563
2420.000000	0.964537
2419.000000	0.964501
2418.000000	0.964454
2417.000000	0.964404
2416.000000	0.964365
2415.000000	0.964342
2414.000000	0.964331
2413.000000	0.964319
2412.000000	0.964296
2411.000000	0.964261
2410.000000	0.964225
2409.000000	0.964192
2408.000000	0.964161
2407.000000	0.964125
2406.000000	0.964081
2405.000000	0.964039
2404.000000	0.964007
2403.000000	0.963976
2402.000000	0.963935
2401.000000	0.963881
2400.000000	0.963833
2399.000000	0.963808
2398.000000	0.963800
2397.000000	0.963788
2396.000000	0.963764
2395.000000	0.963743
2394.000000	0.963745
2393.000000	0.963769
2392.000000	0.963799
2391.000000	0.963812
2390.000000	0.963798
2389.000000	0.963762
2388.000000	0.963721
2387.000000	0.963694
2386.000000	0.963691
2385.000000	0.963697
2384.000000	0.963691
2383.000000	0.963658
2382.000000	0.963603
2381.000000	0.963542
2380.000000	0.963484
2379.000000	0.963427
2378.000000	0.963362
2377.000000	0.963278
2376.000000	0.963172
2375.000000	0.963041
2374.000000	0.962885
2373.000000	0.962705
2372.000000	0.962515
2371.000000	0.962331
2370.000000	0.962166
2369.000000	0.962022
2368.000000	0.961892
2367.000000	0.961775
2366.000000	0.961674
2365.000000	0.961589
2364.000000	0.961520
2363.000000	0.961466
2362.000000	0.961434
2361.000000	0.961430
2360.000000	0.961461
2359.000000	0.961527
2358.000000	0.961630
2357.000000	0.961772
2356.000000	0.961956
2355.000000	0.962170
2354.000000	0.962399
2353.000000	0.962634
2352.000000	0.962879
2351.000000	0.963138
2350.000000	0.963393
2349.000000	0.963615
2348.000000	0.963795
2347.000000	0.963971
2346.000000	0.964204
2345.000000	0.964542
2344.000000	0.964988
2343.000000	0.965492
2342.000000	0.965944
2341.000000	0.966199
2340.000000	0.966146
2339.000000	0.965777
2338.000000	0.965206
2337.000000	0.964599
2336.000000	0.964086
2335.000000	0.963718
2334.000000	0.963485
2333.000000	0.963353
2332.000000	0.963290
2331.000000	0.963276
2330.000000	0.963296
2329.000000	0.963338
2328.000000	0.963397
2327.000000	0.963477
2326.000000	0.963578
2325.000000	0.963684
2324.000000	0.963774
2323.000000	0.963846
2322.000000	0.963920
2321.000000	0.964008
2320.000000	0.964105
2319.000000	0.964200
2318.000000	0.964295
2317.000000	0.964397
2316.000000	0.964501
2315.000000	0.964595
2314.000000	0.964668
2313.000000	0.964726
2312.000000	0.964781
2311.000000	0.964842
2310.000000	0.964913
2309.000000	0.964989
2308.000000	0.965063
2307.000000	0.965123
2306.000000	0.965165
2305.000000	0.965197
2304.000000	0.965231
2303.000000	0.965268
2302.000000	0.965305
2301.000000	0.965339
2300.000000	0.965365
2299.000000	0.965382
2298.000000	0.965389
2297.000000	0.965397
2296.000000	0.965419
2295.000000	0.965458
2294.000000	0.965507
2293.000000	0.965556
2292.000000	0.965604
2291.000000	0.965649
2290.000000	0.965687
2289.000000	0.965713
2288.000000	0.965731
2287.000000	0.965753
2286.000000	0.965785
2285.000000	0.965818
2284.000000	0.965844
2283.000000	0.965864
2282.000000	0.965885
2281.000000	0.965910
2280.000000	0.965932
2279.000000	0.965951
2278.000000	0.965978
2277.000000	0.966019
2276.000000	0.966066
2275.000000	0.966105
2274.000000	0.966132
2273.000000	0.966157
2272.000000	0.966186
2271.000000	0.966220
2270.000000	0.966250
2269.000000	0.966273
2268.000000	0.966290
2267.000000	0.966309
2266.000000	0.966337
2265.000000	0.966373
2264.000000	0.966402
2263.000000	0.966416
2262.000000	0.966419
2261.000000	0.966420
2260.000000	0.966424
2259.000000	0.966430
2258.000000	0.966443
2257.000000	0.966466
2256.000000	0.966497
2255.000000	0.966525
2254.000000	0.966542
2253.000000	0.966554
2252.000000	0.966567
2251.000000	0.966587
2250.000000	0.966611
2249.000000	0.966633
2248.000000	0.966652
2247.000000	0.966667
2246.000000	0.966679
2245.000000	0.966690
2244.000000	0.966703
2243.000000	0.966722
2242.000000	0.966748
2241.000000	0.966775
2240.000000	0.966793
2239.000000	0.966797
2238.000000	0.966794
2237.000000	0.966797
2236.000000	0.966805
2235.000000	0.966811
2234.000000	0.966811
2233.000000	0.966814
2232.000000	0.966829
2231.000000	0.966855
2230.000000	0.966880
2229.000000	0.966891
2228.000000	0.966886
2227.000000	0.966874
2226.000000	0.966868
2225.000000	0.966875
2224.000000	0.966891
2223.000000	0.966903
2222.000000	0.966908
2221.000000	0.966909
2220.000000	0.966911
2219.000000	0.966914
2218.000000	0.966919
2217.000000	0.966923
2216.000000	0.966918
2215.000000	0.966901
2214.000000	0.966876
2213.000000	0.966858
2212.000000	0.966857
2211.000000	0.966866
2210.000000	0.966871
2209.000000	0.966870
2208.000000	0.966867
2207.000000	0.966867
2206.000000	0.966864
2205.000000	0.966857
2204.000000	0.966846
2203.000000	0.966834
2202.000000	0.966819
2201.000000	0.966802
2200.000000	0.966785
2199.000000	0.966770
2198.000000	0.966759
2197.000000	0.966751
2196.000000	0.966746
2195.000000	0.966738
2194.000000	0.966720
2193.000000	0.966686
2192.000000	0.966644
2191.000000	0.966608
2190.000000	0.966592
2189.000000	0.966596
2188.000000	0.966607
2187.000000	0.966612
2186.000000	0.966606
2185.000000	0.966597
2184.000000	0.966594
2183.000000	0.966596
2182.000000	0.966590
2181.000000	0.966568
2180.000000	0.966532
2179.000000	0.966491
2178.000000	0.966455
2177.000000	0.966424
2176.000000	0.966398
2175.000000	0.966376
2174.000000	0.966358
2173.000000	0.966342
2172.000000	0.966324
2171.000000	0.966306
2170.000000	0.966287
2169.000000	0.966267
2168.000000	0.966239
2167.000000	0.966203
2166.000000	0.966159
2165.000000	0.966110
2164.000000	0.966058
2163.000000	0.966006
2162.000000	0.965958
2161.000000	0.965917
2160.000000	0.965883
2159.000000	0.965856
2158.000000	0.965832
2157.000000	0.965804
2156.000000	0.965762
2155.000000	0.965707
2154.000000	0.965644
2153.000000	0.965581
2152.000000	0.965525
2151.000000	0.965480
2150.000000	0.965447
2149.000000	0.965421
2148.000000	0.965391
2147.000000	0.965355
2146.000000	0.965321
2145.000000	0.965291
2144.000000	0.965258
2143.000000	0.965215
2142.000000	0.965161
2141.000000	0.965100
2140.000000	0.965037
2139.000000	0.964975
2138.000000	0.964922
2137.000000	0.964884
2136.000000	0.964857
2135.000000	0.964827
2134.000000	0.964786
2133.000000	0.964733
2132.000000	0.964673
2131.000000	0.964604
2130.000000	0.964528
2129.000000	0.964450
2128.000000	0.964376
2127.000000	0.964305
2126.000000	0.964234
2125.000000	0.964161
2124.000000	0.964090
2123.000000	0.964026
2122.000000	0.963973
2121.000000	0.963926
2120.000000	0.963875
2119.000000	0.963816
2118.000000	0.963756
2117.000000	0.963703
2116.000000	0.963653
2115.000000	0.963592
2114.000000	0.963509
2113.000000	0.963409
2112.000000	0.963308
2111.000000	0.963208
2110.000000	0.963108
2109.000000	0.963012
2108.000000	0.962935
2107.000000	0.962887
2106.000000	0.962853
2105.000000	0.962806
2104.000000	0.962727
2103.000000	0.962627
2102.000000	0.962528
2101.000000	0.962443
2100.000000	0.962368
2099.000000	0.962293
2098.000000	0.962210
2097.000000	0.962121
2096.000000	0.962031
2095.000000	0.961951
2094.000000	0.961890
2093.000000	0.961841
2092.000000	0.961781
2091.000000	0.961698
2090.000000	0.961600
2089.000000	0.961507
2088.000000	0.961425
2087.000000	0.961344
2086.000000	0.961255
2085.000000	0.961160
2084.000000	0.961066
2083.000000	0.960978
2082.000000	0.960889
2081.000000	0.960793
2080.000000	0.960692
2079.000000	0.960590
2078.000000	0.960493
2077.000000	0.960404
2076.000000	0.960320
2075.000000	0.960236
2074.000000	0.960145
2073.000000	0.960038
2072.000000	0.959918
2071.000000	0.959797
2070.000000	0.959694
2069.000000	0.959614
2068.000000	0.959545
2067.000000	0.959472
2066.000000	0.959390
2065.000000	0.959306
2064.000000	0.959227
2063.000000	0.959148
2062.000000	0.959065
2061.000000	0.958978
2060.000000	0.958890
2059.000000	0.958803
2058.000000	0.958717
2057.000000	0.958627
2056.000000	0.958529
2055.000000	0.958425
2054.000000	0.958319
2053.000000	0.958217
2052.000000	0.958117
2051.000000	0.958016
2050.000000	0.957912
2049.000000	0.957807
2048.000000	0.957709
2047.000000	0.957624
2046.000000	0.957559
2045.000000	0.957509
2044.000000	0.957455
2043.000000	0.957380
2042.000000	0.957285
2041.000000	0.957190
2040.000000	0.957108
2039.000000	0.957037
2038.000000	0.956966
2037.000000	0.956886
2036.000000	0.956799
2035.000000	0.956707
2034.000000	0.956609
2033.000000	0.956511
2032.000000	0.956418
2031.000000	0.956336
2030.000000	0.956264
2029.000000	0.956195
2028.000000	0.956117
2027.000000	0.956026
2026.000000	0.955931
2025.000000	0.955839
2024.000000	0.955746
2023.000000	0.955648
2022.000000	0.955550
2021.000000	0.955467
2020.000000	0.955406
2019.000000	0.955356
2018.000000	0.955303
2017.000000	0.955241
2016.000000	0.955174
2015.000000	0.955109
2014.000000	0.955047
2013.000000	0.954988
2012.000000	0.954922
2011.000000	0.954844
2010.000000	0.954755
2009.000000	0.954668
2008.000000	0.954594
2007.000000	0.954532
2006.000000	0.954471
2005.000000	0.954410
2004.000000	0.954351
2003.000000	0.954296
2002.000000	0.954239
2001.000000	0.954178
2000.000000	0.954118
1999.000000	0.954065
1998.000000	0.954017
1997.000000	0.953965
1996.000000	0.953906
1995.000000	0.953847
1994.000000	0.953791
1993.000000	0.953739
1992.000000	0.953684
1991.000000	0.953627
1990.000000	0.953575
1989.000000	0.953530
1988.000000	0.953488
1987.000000	0.953441
1986.000000	0.953387
1985.000000	0.953328
1984.000000	0.953270
1983.000000	0.953223
1982.000000	0.953186
1981.000000	0.953154
1980.000000	0.953116
1979.000000	0.953069
1978.000000	0.953018
1977.000000	0.952966
1976.000000	0.952914
1975.000000	0.952862
1974.000000	0.952820
1973.000000	0.952799
1972.000000	0.952794
1971.000000	0.952787
1970.000000	0.952762
1969.000000	0.952713
1968.000000	0.952654
1967.000000	0.952601
1966.000000	0.952564
1965.000000	0.952540
1964.000000	0.952524
1963.000000	0.952516
1962.000000	0.952513
1961.000000	0.952502
1960.000000	0.952465
1959.000000	0.952405
1958.000000	0.952346
1957.000000	0.952312
1956.000000	0.952302
1955.000000	0.952292
1954.000000	0.952269
1953.000000	0.952236
1952.000000	0.952206
1951.000000	0.952186
1950.000000	0.952173
1949.000000	0.952161
1948.000000	0.952142
1947.000000	0.952122
1946.000000	0.952107
1945.000000	0.952094
1944.000000	0.952070
1943.000000	0.952032
1942.000000	0.951998
1941.000000	0.951990
1940.000000	0.952010
1939.000000	0.952036
1938.000000	0.952045
1937.000000	0.952031
1936.000000	0.952002
1935.000000	0.951971
1934.000000	0.951947
1933.000000	0.951932
1932.000000	0.951921
1931.000000	0.951915
1930.000000	0.951923
1929.000000	0.951947
1928.000000	0.951976
1927.000000	0.951996
1926.000000	0.951997
1925.000000	0.951980
1924.000000	0.951951
1923.000000	0.951920
1922.000000	0.951902
1921.000000	0.951899
1920.000000	0.951893
1919.000000	0.951870
1918.000000	0.951843
1917.000000	0.951840
1916.000000	0.951865
1915.000000	0.951897
1914.000000	0.951921
1913.000000	0.951946
1912.000000	0.951985
1911.000000	0.952030
1910.000000	0.952063
1909.000000	0.952077
1908.000000	0.952076
1907.000000	0.952064
1906.000000	0.952048
1905.000000	0.952036
1904.000000	0.952038
1903.000000	0.952053
1902.000000	0.952074
1901.000000	0.952099
1900.000000	0.952128
1899.000000	0.952157
1898.000000	0.952181
1897.000000	0.952194
1896.000000	0.952195
1895.000000	0.952189
1894.000000	0.952184
1893.000000	0.952184
1892.000000	0.952181
1891.000000	0.952175
1890.000000	0.952178
1889.000000	0.952203
1888.000000	0.952247
1887.000000	0.952288
1886.000000	0.952318
1885.000000	0.952343
1884.000000	0.952370
1883.000000	0.952389
1882.000000	0.952389
1881.000000	0.952376
1880.000000	0.952368
1879.000000	0.952378
1878.000000	0.952405
1877.000000	0.952439
1876.000000	0.952472
1875.000000	0.952499
1874.000000	0.952528
1873.000000	0.952563
1872.000000	0.952592
1871.000000	0.952602
1870.000000	0.952593
1869.000000	0.952588
1868.000000	0.952599
1867.000000	0.952621
1866.000000	0.952646
1865.000000	0.952678
1864.000000	0.952722
1863.000000	0.952774
1862.000000	0.952820
1861.000000	0.952856
1860.000000	0.952889
1859.000000	0.952924
1858.000000	0.952965
1857.000000	0.953010
1856.000000	0.953056
1855.000000	0.953096
1854.000000	0.953127
1853.000000	0.953157
1852.000000	0.953191
1851.000000	0.953219
1850.000000	0.953235
1849.000000	0.953251
1848.000000	0.953284
1847.000000	0.953324
1846.000000	0.953343
1845.000000	0.953337
1844.000000	0.953342
1843.000000	0.953395
1842.000000	0.953492
1841.000000	0.953592
1840.000000	0.953659
1839.000000	0.953694
1838.000000	0.953723
1837.000000	0.953764
1836.000000	0.953817
1835.000000	0.953875
1834.000000	0.953934
1833.000000	0.953983
1832.000000	0.954007
1831.000000	0.954012
1830.000000	0.954030
1829.000000	0.954095
1828.000000	0.954197
1827.000000	0.954300
1826.000000	0.954382
1825.000000	0.954455
1824.000000	0.954537
1823.000000	0.954621
1822.000000	0.954696
1821.000000	0.954760
1820.000000	0.954821
1819.000000	0.954878
1818.000000	0.954927
1817.000000	0.954976
1816.000000	0.955041
1815.000000	0.955120
1814.000000	0.955197
1813.000000	0.955259
1812.000000	0.955311
1811.000000	0.955363
1810.000000	0.955426
1809.000000	0.955504
1808.000000	0.955584
1807.000000	0.955652
1806.000000	0.955703
1805.000000	0.955755
1804.000000	0.955819
1803.000000	0.955887
1802.000000	0.955947
1801.000000	0.955999
1800.000000	0.956055
1799.000000	0.956118
1798.000000	0.956187
1797.000000	0.956267
1796.000000	0.956357
1795.000000	0.956436
1794.000000	0.956480
1793.000000	0.956500
1792.000000	0.956535
1791.000000	0.956617
1790.000000	0.956735
1789.000000	0.956857
1788.000000	0.956961
1787.000000	0.957041
1786.000000	0.957105
1785.000000	0.957174
1784.000000	0.957262
1783.000000	0.957365
1782.000000	0.957472
1781.000000	0.957576
1780.000000	0.957683
1779.000000	0.957793
1778.000000	0.957902
1777.000000	0.958002
1776.000000	0.958085
1775.000000	0.958133
1774.000000	0.958139
1773.000000	0.958135
1772.000000	0.958183
1771.000000	0.958309
1770.000000	0.958470
1769.000000	0.958608
1768.000000	0.958719
1767.000000	0.958841
1766.000000	0.958997
1765.000000	0.959151
1764.000000	0.959255
1763.000000	0.959297
1762.000000	0.959320
1761.000000	0.959375
1760.000000	0.959481
1759.000000	0.959614
1758.000000	0.959742
1757.000000	0.959855
1756.000000	0.959971
1755.000000	0.960094
1754.000000	0.960200
1753.000000	0.960257
1752.000000	0.960276
1751.000000	0.960306
1750.000000	0.960386
1749.000000	0.960506
1748.000000	0.960630
1747.000000	0.960743
1746.000000	0.960854
1745.000000	0.960969
1744.000000	0.961080
1743.000000	0.961173
1742.000000	0.961240
1741.000000	0.961286
1740.000000	0.961332
1739.000000	0.961414
1738.000000	0.961536
1737.000000	0.961640
1736.000000	0.961645
1735.000000	0.961551
1734.000000	0.961474
1733.000000	0.961533
1732.000000	0.961728
1731.000000	0.961959
1730.000000	0.962142
1729.000000	0.962270
1728.000000	0.962368
1727.000000	0.962437
1726.000000	0.962476
1725.000000	0.962506
1724.000000	0.962554
1723.000000	0.962622
1722.000000	0.962689
1721.000000	0.962728
1720.000000	0.962707
1719.000000	0.962615
1718.000000	0.962495
1717.000000	0.962436
1716.000000	0.962491
1715.000000	0.962628
1714.000000	0.962778
1713.000000	0.962907
1712.000000	0.963009
1711.000000	0.963080
1710.000000	0.963120
1709.000000	0.963157
1708.000000	0.963201
1707.000000	0.963229
1706.000000	0.963223
1705.000000	0.963228
1704.000000	0.963278
1703.000000	0.963309
1702.000000	0.963216
1701.000000	0.963023
1700.000000	0.962889
1699.000000	0.962910
1698.000000	0.962998
1697.000000	0.963011
1696.000000	0.962960
1695.000000	0.962978
1694.000000	0.963136
1693.000000	0.963351
1692.000000	0.963498
1691.000000	0.963541
1690.000000	0.963538
1689.000000	0.963541
1688.000000	0.963537
1687.000000	0.963464
1686.000000	0.963290
1685.000000	0.963089
1684.000000	0.962998
1683.000000	0.963092
1682.000000	0.963296
1681.000000	0.963476
1680.000000	0.963567
1679.000000	0.963602
1678.000000	0.963617
1677.000000	0.963603
1676.000000	0.963558
1675.000000	0.963530
1674.000000	0.963560
1673.000000	0.963617
1672.000000	0.963629
1671.000000	0.963580
1670.000000	0.963532
1669.000000	0.963553
1668.000000	0.963650
1667.000000	0.963769
1666.000000	0.963845
1665.000000	0.963845
1664.000000	0.963786
1663.000000	0.963722
1662.000000	0.963706
1661.000000	0.963744
1660.000000	0.963805
1659.000000	0.963864
1658.000000	0.963921
1657.000000	0.963957
1656.000000	0.963901
1655.000000	0.963688
1654.000000	0.963372
1653.000000	0.963147
1652.000000	0.963182
1651.000000	0.963451
1650.000000	0.963754
1649.000000	0.963906
1648.000000	0.963879
1647.000000	0.963775
1646.000000	0.963712
1645.000000	0.963739
1644.000000	0.963835
1643.000000	0.963943
1642.000000	0.964015
1641.000000	0.964046
1640.000000	0.964060
1639.000000	0.964066
1638.000000	0.964031
1637.000000	0.963933
1636.000000	0.963821
1635.000000	0.963783
1634.000000	0.963852
1633.000000	0.963981
1632.000000	0.964096
1631.000000	0.964159
1630.000000	0.964172
1629.000000	0.964159
1628.000000	0.964150
1627.000000	0.964162
1626.000000	0.964183
1625.000000	0.964179
1624.000000	0.964141
1623.000000	0.964099
1622.000000	0.964090
1621.000000	0.964108
1620.000000	0.964105
1619.000000	0.964036
1618.000000	0.963911
1617.000000	0.963799
1616.000000	0.963785
1615.000000	0.963895
1614.000000	0.964073
1613.000000	0.964226
1612.000000	0.964308
1611.000000	0.964332
1610.000000	0.964332
1609.000000	0.964321
1608.000000	0.964305
1607.000000	0.964298
1606.000000	0.964307
1605.000000	0.964316
1604.000000	0.964304
1603.000000	0.964272
1602.000000	0.964243
1601.000000	0.964232
1600.000000	0.964245
1599.000000	0.964281
1598.000000	0.964328
1597.000000	0.964363
1596.000000	0.964369
1595.000000	0.964353
1594.000000	0.964336
1593.000000	0.964331
1592.000000	0.964335
1591.000000	0.964345
1590.000000	0.964360
1589.000000	0.964375
1588.000000	0.964378
1587.000000	0.964364
1586.000000	0.964349
1585.000000	0.964352
1584.000000	0.964375
1583.000000	0.964398
1582.000000	0.964404
1581.000000	0.964404
1580.000000	0.964413
1579.000000	0.964408
1578.000000	0.964337
1577.000000	0.964198
1576.000000	0.964078
1575.000000	0.964081
1574.000000	0.964212
1573.000000	0.964360
1572.000000	0.964419
1571.000000	0.964380
1570.000000	0.964316
1569.000000	0.964291
1568.000000	0.964316
1567.000000	0.964360
1566.000000	0.964388
1565.000000	0.964390
1564.000000	0.964381
1563.000000	0.964370
1562.000000	0.964312
1561.000000	0.964145
1560.000000	0.963894
1559.000000	0.963706
1558.000000	0.963722
1557.000000	0.963919
1556.000000	0.964140
1555.000000	0.964270
1554.000000	0.964322
1553.000000	0.964356
1552.000000	0.964383
1551.000000	0.964387
1550.000000	0.964377
1549.000000	0.964384
1548.000000	0.964411
1547.000000	0.964422
1546.000000	0.964397
1545.000000	0.964349
1544.000000	0.964299
1543.000000	0.964238
1542.000000	0.964137
1541.000000	0.963988
1540.000000	0.963846
1539.000000	0.963803
1538.000000	0.963911
1537.000000	0.964111
1536.000000	0.964276
1535.000000	0.964329
1534.000000	0.964303
1533.000000	0.964285
1532.000000	0.964314
1531.000000	0.964367
1530.000000	0.964411
1529.000000	0.964431
1528.000000	0.964418
1527.000000	0.964372
1526.000000	0.964321
1525.000000	0.964291
1524.000000	0.964262
1523.000000	0.964190
1522.000000	0.964090
1521.000000	0.964045
1520.000000	0.964115
1519.000000	0.964251
1518.000000	0.964356
1517.000000	0.964389
1516.000000	0.964388
1515.000000	0.964394
1514.000000	0.964410
1513.000000	0.964423
1512.000000	0.964437
1511.000000	0.964453
1510.000000	0.964445
1509.000000	0.964370
1508.000000	0.964224
1507.000000	0.964073
1506.000000	0.964019
1505.000000	0.964123
1504.000000	0.964341
1503.000000	0.964566
1502.000000	0.964719
1501.000000	0.964798
1500.000000	0.964837
