PE IR       SUBTECH     SPECTRUM    ASCII       PEDS        4.00        
   -1
TE108B1_031.ASC
20/02/21
16:10:04.00
20/02/21
16:10:04.00
Administrator
Sample 031 By Administrator Date Friday, February 21 2020
1500.000000
#HDR
-1
-1
#GR
cm-1
A
1.0
0.0
4000.000000
-1.000000
2501
8
0.907348
0.873076
#DATA
4000.000000	0.881845
3999.000000	0.881827
3998.000000	0.881796
3997.000000	0.881776
3996.000000	0.881776
3995.000000	0.881790
3994.000000	0.881796
3993.000000	0.881777
3992.000000	0.881732
3991.000000	0.881681
3990.000000	0.881650
3989.000000	0.881648
3988.000000	0.881667
3987.000000	0.881688
3986.000000	0.881698
3985.000000	0.881690
3984.000000	0.881670
3983.000000	0.881646
3982.000000	0.881625
3981.000000	0.881611
3980.000000	0.881602
3979.000000	0.881595
3978.000000	0.881579
3977.000000	0.881551
3976.000000	0.881521
3975.000000	0.881499
3974.000000	0.881488
3973.000000	0.881472
3972.000000	0.881434
3971.000000	0.881371
3970.000000	0.881301
3969.000000	0.881251
3968.000000	0.881233
3967.000000	0.881237
3966.000000	0.881240
3965.000000	0.881224
3964.000000	0.881182
3963.000000	0.881125
3962.000000	0.881063
3961.000000	0.881003
3960.000000	0.880953
3959.000000	0.880918
3958.000000	0.880899
3957.000000	0.880890
3956.000000	0.880881
3955.000000	0.880862
3954.000000	0.880834
3953.000000	0.880799
3952.000000	0.880763
3951.000000	0.880723
3950.000000	0.880677
3949.000000	0.880629
3948.000000	0.880585
3947.000000	0.880551
3946.000000	0.880524
3945.000000	0.880496
3944.000000	0.880465
3943.000000	0.880440
3942.000000	0.880435
3941.000000	0.880452
3940.000000	0.880477
3939.000000	0.880489
3938.000000	0.880476
3937.000000	0.880436
3936.000000	0.880374
3935.000000	0.880294
3934.000000	0.880205
3933.000000	0.880125
3932.000000	0.880067
3931.000000	0.880033
3930.000000	0.880008
3929.000000	0.879970
3928.000000	0.879914
3927.000000	0.879852
3926.000000	0.879802
3925.000000	0.879772
3924.000000	0.879752
3923.000000	0.879730
3922.000000	0.879700
3921.000000	0.879664
3920.000000	0.879623
3919.000000	0.879578
3918.000000	0.879528
3917.000000	0.879481
3916.000000	0.879452
3915.000000	0.879448
3914.000000	0.879460
3913.000000	0.879467
3912.000000	0.879450
3911.000000	0.879410
3910.000000	0.879361
3909.000000	0.879314
3908.000000	0.879267
3907.000000	0.879207
3906.000000	0.879124
3905.000000	0.879023
3904.000000	0.878921
3903.000000	0.878833
3902.000000	0.878761
3901.000000	0.878703
3900.000000	0.878664
3899.000000	0.878658
3898.000000	0.878691
3897.000000	0.878751
3896.000000	0.878810
3895.000000	0.878837
3894.000000	0.878810
3893.000000	0.878729
3892.000000	0.878621
3891.000000	0.878536
3890.000000	0.878507
3889.000000	0.878518
3888.000000	0.878506
3887.000000	0.878422
3886.000000	0.878284
3885.000000	0.878167
3884.000000	0.878137
3883.000000	0.878185
3882.000000	0.878242
3881.000000	0.878249
3880.000000	0.878214
3879.000000	0.878192
3878.000000	0.878209
3877.000000	0.878237
3876.000000	0.878223
3875.000000	0.878152
3874.000000	0.878055
3873.000000	0.877964
3872.000000	0.877879
3871.000000	0.877783
3870.000000	0.877681
3869.000000	0.877608
3868.000000	0.877591
3867.000000	0.877606
3866.000000	0.877599
3865.000000	0.877542
3864.000000	0.877460
3863.000000	0.877410
3862.000000	0.877420
3861.000000	0.877471
3860.000000	0.877522
3859.000000	0.877544
3858.000000	0.877507
3857.000000	0.877368
3856.000000	0.877087
3855.000000	0.876684
3854.000000	0.876271
3853.000000	0.876006
3852.000000	0.875992
3851.000000	0.876204
3850.000000	0.876519
3849.000000	0.876800
3848.000000	0.876973
3847.000000	0.877039
3846.000000	0.877029
3845.000000	0.876973
3844.000000	0.876895
3843.000000	0.876821
3842.000000	0.876765
3841.000000	0.876702
3840.000000	0.876585
3839.000000	0.876393
3838.000000	0.876175
3837.000000	0.876022
3836.000000	0.876000
3835.000000	0.876094
3834.000000	0.876225
3833.000000	0.876313
3832.000000	0.876332
3831.000000	0.876312
3830.000000	0.876296
3829.000000	0.876300
3828.000000	0.876309
3827.000000	0.876306
3826.000000	0.876287
3825.000000	0.876247
3824.000000	0.876157
3823.000000	0.875991
3822.000000	0.875772
3821.000000	0.875584
3820.000000	0.875503
3819.000000	0.875522
3818.000000	0.875545
3817.000000	0.875489
3816.000000	0.875372
3815.000000	0.875295
3814.000000	0.875337
3813.000000	0.875480
3812.000000	0.875635
3811.000000	0.875725
3810.000000	0.875719
3809.000000	0.875618
3808.000000	0.875450
3807.000000	0.875278
3806.000000	0.875177
3805.000000	0.875165
3804.000000	0.875172
3803.000000	0.875105
3802.000000	0.874949
3801.000000	0.874800
3800.000000	0.874759
3799.000000	0.874840
3798.000000	0.874957
3797.000000	0.875028
3796.000000	0.875043
3795.000000	0.875051
3794.000000	0.875082
3793.000000	0.875124
3792.000000	0.875143
3791.000000	0.875129
3790.000000	0.875102
3789.000000	0.875079
3788.000000	0.875057
3787.000000	0.875027
3786.000000	0.874989
3785.000000	0.874954
3784.000000	0.874927
3783.000000	0.874898
3782.000000	0.874850
3781.000000	0.874780
3780.000000	0.874706
3779.000000	0.874655
3778.000000	0.874644
3777.000000	0.874661
3776.000000	0.874683
3775.000000	0.874687
3774.000000	0.874669
3773.000000	0.874625
3772.000000	0.874556
3771.000000	0.874471
3770.000000	0.874396
3769.000000	0.874353
3768.000000	0.874341
3767.000000	0.874334
3766.000000	0.874314
3765.000000	0.874292
3764.000000	0.874290
3763.000000	0.874317
3762.000000	0.874347
3761.000000	0.874347
3760.000000	0.874304
3759.000000	0.874243
3758.000000	0.874201
3757.000000	0.874200
3756.000000	0.874215
3755.000000	0.874187
3754.000000	0.874064
3753.000000	0.873843
3752.000000	0.873574
3751.000000	0.873342
3750.000000	0.873231
3749.000000	0.873272
3748.000000	0.873415
3747.000000	0.873527
3746.000000	0.873484
3745.000000	0.873287
3744.000000	0.873090
3743.000000	0.873076
3742.000000	0.873293
3741.000000	0.873616
3740.000000	0.873860
3739.000000	0.873924
3738.000000	0.873835
3737.000000	0.873689
3736.000000	0.873566
3735.000000	0.873502
3734.000000	0.873491
3733.000000	0.873516
3732.000000	0.873572
3731.000000	0.873669
3730.000000	0.873804
3729.000000	0.873938
3728.000000	0.874010
3727.000000	0.873998
3726.000000	0.873938
3725.000000	0.873893
3724.000000	0.873892
3723.000000	0.873923
3722.000000	0.873962
3721.000000	0.874000
3720.000000	0.874040
3719.000000	0.874080
3718.000000	0.874120
3717.000000	0.874163
3716.000000	0.874202
3715.000000	0.874213
3714.000000	0.874165
3713.000000	0.874060
3712.000000	0.873947
3711.000000	0.873895
3710.000000	0.873943
3709.000000	0.874077
3708.000000	0.874245
3707.000000	0.874400
3706.000000	0.874519
3705.000000	0.874595
3704.000000	0.874633
3703.000000	0.874643
3702.000000	0.874648
3701.000000	0.874681
3700.000000	0.874756
3699.000000	0.874863
3698.000000	0.874974
3697.000000	0.875073
3696.000000	0.875160
3695.000000	0.875241
3694.000000	0.875311
3693.000000	0.875354
3692.000000	0.875348
3691.000000	0.875276
3690.000000	0.875148
3689.000000	0.875019
3688.000000	0.874977
3687.000000	0.875086
3686.000000	0.875325
3685.000000	0.875601
3684.000000	0.875819
3683.000000	0.875951
3682.000000	0.876030
3681.000000	0.876104
3680.000000	0.876189
3679.000000	0.876258
3678.000000	0.876265
3677.000000	0.876189
3676.000000	0.876078
3675.000000	0.876031
3674.000000	0.876118
3673.000000	0.876302
3672.000000	0.876472
3671.000000	0.876560
3670.000000	0.876611
3669.000000	0.876730
3668.000000	0.876964
3667.000000	0.877263
3666.000000	0.877542
3665.000000	0.877755
3664.000000	0.877917
3663.000000	0.878066
3662.000000	0.878221
3661.000000	0.878374
3660.000000	0.878506
3659.000000	0.878597
3658.000000	0.878648
3657.000000	0.878684
3656.000000	0.878751
3655.000000	0.878881
3654.000000	0.879066
3653.000000	0.879247
3652.000000	0.879355
3651.000000	0.879364
3650.000000	0.879322
3649.000000	0.879327
3648.000000	0.879457
3647.000000	0.879718
3646.000000	0.880049
3645.000000	0.880373
3644.000000	0.880639
3643.000000	0.880846
3642.000000	0.881021
3641.000000	0.881192
3640.000000	0.881367
3639.000000	0.881542
3638.000000	0.881708
3637.000000	0.881863
3636.000000	0.882010
3635.000000	0.882156
3634.000000	0.882309
3633.000000	0.882462
3632.000000	0.882580
3631.000000	0.882625
3630.000000	0.882596
3629.000000	0.882569
3628.000000	0.882649
3627.000000	0.882887
3626.000000	0.883234
3625.000000	0.883586
3624.000000	0.883863
3623.000000	0.884046
3622.000000	0.884157
3621.000000	0.884222
3620.000000	0.884268
3619.000000	0.884333
3618.000000	0.884457
3617.000000	0.884653
3616.000000	0.884893
3615.000000	0.885127
3614.000000	0.885317
3613.000000	0.885458
3612.000000	0.885567
3611.000000	0.885658
3610.000000	0.885742
3609.000000	0.885831
3608.000000	0.885947
3607.000000	0.886113
3606.000000	0.886329
3605.000000	0.886569
3604.000000	0.886790
3603.000000	0.886966
3602.000000	0.887092
3601.000000	0.887191
3600.000000	0.887291
3599.000000	0.887412
3598.000000	0.887553
3597.000000	0.887688
3596.000000	0.887792
3595.000000	0.887864
3594.000000	0.887924
3593.000000	0.888002
3592.000000	0.888104
3591.000000	0.888213
3590.000000	0.888301
3589.000000	0.888358
3588.000000	0.888398
3587.000000	0.888455
3586.000000	0.888549
3585.000000	0.888674
3584.000000	0.888809
3583.000000	0.888933
3582.000000	0.889041
3581.000000	0.889137
3580.000000	0.889219
3579.000000	0.889282
3578.000000	0.889327
3577.000000	0.889364
3576.000000	0.889405
3575.000000	0.889455
3574.000000	0.889512
3573.000000	0.889571
3572.000000	0.889620
3571.000000	0.889649
3570.000000	0.889651
3569.000000	0.889630
3568.000000	0.889606
3567.000000	0.889604
3566.000000	0.889639
3565.000000	0.889707
3564.000000	0.889789
3563.000000	0.889863
3562.000000	0.889917
3561.000000	0.889953
3560.000000	0.889980
3559.000000	0.890006
3558.000000	0.890042
3557.000000	0.890089
3556.000000	0.890146
3555.000000	0.890203
3554.000000	0.890252
3553.000000	0.890290
3552.000000	0.890322
3551.000000	0.890351
3550.000000	0.890375
3549.000000	0.890383
3548.000000	0.890372
3547.000000	0.890347
3546.000000	0.890328
3545.000000	0.890333
3544.000000	0.890366
3543.000000	0.890419
3542.000000	0.890475
3541.000000	0.890524
3540.000000	0.890562
3539.000000	0.890590
3538.000000	0.890613
3537.000000	0.890636
3536.000000	0.890664
3535.000000	0.890701
3534.000000	0.890751
3533.000000	0.890811
3532.000000	0.890869
3531.000000	0.890914
3530.000000	0.890939
3529.000000	0.890948
3528.000000	0.890952
3527.000000	0.890960
3526.000000	0.890979
3525.000000	0.891017
3524.000000	0.891076
3523.000000	0.891150
3522.000000	0.891221
3521.000000	0.891270
3520.000000	0.891293
3519.000000	0.891305
3518.000000	0.891330
3517.000000	0.891384
3516.000000	0.891469
3515.000000	0.891573
3514.000000	0.891679
3513.000000	0.891771
3512.000000	0.891843
3511.000000	0.891898
3510.000000	0.891946
3509.000000	0.891996
3508.000000	0.892054
3507.000000	0.892127
3506.000000	0.892216
3505.000000	0.892313
3504.000000	0.892405
3503.000000	0.892493
3502.000000	0.892586
3501.000000	0.892694
3500.000000	0.892809
3499.000000	0.892917
3498.000000	0.893011
3497.000000	0.893102
3496.000000	0.893200
3495.000000	0.893307
3494.000000	0.893412
3493.000000	0.893507
3492.000000	0.893599
3491.000000	0.893698
3490.000000	0.893804
3489.000000	0.893908
3488.000000	0.894002
3487.000000	0.894089
3486.000000	0.894179
3485.000000	0.894276
3484.000000	0.894378
3483.000000	0.894480
3482.000000	0.894583
3481.000000	0.894696
3480.000000	0.894823
3479.000000	0.894961
3478.000000	0.895097
3477.000000	0.895215
3476.000000	0.895312
3475.000000	0.895399
3474.000000	0.895498
3473.000000	0.895617
3472.000000	0.895745
3471.000000	0.895874
3470.000000	0.896007
3469.000000	0.896152
3468.000000	0.896302
3467.000000	0.896437
3466.000000	0.896548
3465.000000	0.896645
3464.000000	0.896749
3463.000000	0.896870
3462.000000	0.897007
3461.000000	0.897153
3460.000000	0.897297
3459.000000	0.897425
3458.000000	0.897524
3457.000000	0.897595
3456.000000	0.897658
3455.000000	0.897741
3454.000000	0.897857
3453.000000	0.898002
3452.000000	0.898158
3451.000000	0.898308
3450.000000	0.898442
3449.000000	0.898554
3448.000000	0.898645
3447.000000	0.898726
3446.000000	0.898814
3445.000000	0.898918
3444.000000	0.899038
3443.000000	0.899163
3442.000000	0.899285
3441.000000	0.899400
3440.000000	0.899508
3439.000000	0.899608
3438.000000	0.899700
3437.000000	0.899787
3436.000000	0.899874
3435.000000	0.899964
3434.000000	0.900052
3433.000000	0.900132
3432.000000	0.900202
3431.000000	0.900277
3430.000000	0.900372
3429.000000	0.900492
3428.000000	0.900625
3427.000000	0.900756
3426.000000	0.900882
3425.000000	0.901006
3424.000000	0.901122
3423.000000	0.901216
3422.000000	0.901285
3421.000000	0.901342
3420.000000	0.901403
3419.000000	0.901477
3418.000000	0.901563
3417.000000	0.901658
3416.000000	0.901761
3415.000000	0.901869
3414.000000	0.901978
3413.000000	0.902082
3412.000000	0.902169
3411.000000	0.902234
3410.000000	0.902286
3409.000000	0.902340
3408.000000	0.902403
3407.000000	0.902471
3406.000000	0.902534
3405.000000	0.902586
3404.000000	0.902632
3403.000000	0.902672
3402.000000	0.902707
3401.000000	0.902740
3400.000000	0.902777
3399.000000	0.902827
3398.000000	0.902887
3397.000000	0.902943
3396.000000	0.902985
3395.000000	0.903013
3394.000000	0.903043
3393.000000	0.903088
3392.000000	0.903148
3391.000000	0.903213
3390.000000	0.903271
3389.000000	0.903315
3388.000000	0.903347
3387.000000	0.903370
3386.000000	0.903395
3385.000000	0.903429
3384.000000	0.903468
3383.000000	0.903501
3382.000000	0.903526
3381.000000	0.903549
3380.000000	0.903575
3379.000000	0.903596
3378.000000	0.903605
3377.000000	0.903607
3376.000000	0.903618
3375.000000	0.903652
3374.000000	0.903706
3373.000000	0.903769
3372.000000	0.903825
3371.000000	0.903860
3370.000000	0.903872
3369.000000	0.903867
3368.000000	0.903858
3367.000000	0.903856
3366.000000	0.903867
3365.000000	0.903893
3364.000000	0.903932
3363.000000	0.903976
3362.000000	0.904015
3361.000000	0.904041
3360.000000	0.904055
3359.000000	0.904062
3358.000000	0.904066
3357.000000	0.904069
3356.000000	0.904074
3355.000000	0.904083
3354.000000	0.904099
3353.000000	0.904120
3352.000000	0.904144
3351.000000	0.904169
3350.000000	0.904196
3349.000000	0.904223
3348.000000	0.904244
3347.000000	0.904254
3346.000000	0.904254
3345.000000	0.904249
3344.000000	0.904243
3343.000000	0.904238
3342.000000	0.904233
3341.000000	0.904233
3340.000000	0.904243
3339.000000	0.904260
3338.000000	0.904277
3337.000000	0.904288
3336.000000	0.904294
3335.000000	0.904302
3334.000000	0.904315
3333.000000	0.904332
3332.000000	0.904351
3331.000000	0.904372
3330.000000	0.904395
3329.000000	0.904412
3328.000000	0.904418
3327.000000	0.904412
3326.000000	0.904407
3325.000000	0.904419
3324.000000	0.904452
3323.000000	0.904498
3322.000000	0.904540
3321.000000	0.904571
3320.000000	0.904597
3319.000000	0.904628
3318.000000	0.904661
3317.000000	0.904689
3316.000000	0.904704
3315.000000	0.904709
3314.000000	0.904715
3313.000000	0.904731
3312.000000	0.904760
3311.000000	0.904793
3310.000000	0.904819
3309.000000	0.904834
3308.000000	0.904839
3307.000000	0.904845
3306.000000	0.904864
3305.000000	0.904900
3304.000000	0.904943
3303.000000	0.904976
3302.000000	0.904995
3301.000000	0.905012
3300.000000	0.905039
3299.000000	0.905070
3298.000000	0.905094
3297.000000	0.905110
3296.000000	0.905128
3295.000000	0.905159
3294.000000	0.905194
3293.000000	0.905218
3292.000000	0.905226
3291.000000	0.905226
3290.000000	0.905233
3289.000000	0.905254
3288.000000	0.905286
3287.000000	0.905313
3286.000000	0.905325
3285.000000	0.905323
3284.000000	0.905325
3283.000000	0.905348
3282.000000	0.905393
3281.000000	0.905446
3280.000000	0.905492
3279.000000	0.905524
3278.000000	0.905544
3277.000000	0.905557
3276.000000	0.905565
3275.000000	0.905569
3274.000000	0.905565
3273.000000	0.905552
3272.000000	0.905541
3271.000000	0.905556
3270.000000	0.905612
3269.000000	0.905697
3268.000000	0.905780
3267.000000	0.905835
3266.000000	0.905858
3265.000000	0.905868
3264.000000	0.905881
3263.000000	0.905900
3262.000000	0.905918
3261.000000	0.905928
3260.000000	0.905928
3259.000000	0.905920
3258.000000	0.905909
3257.000000	0.905902
3256.000000	0.905903
3255.000000	0.905918
3254.000000	0.905949
3253.000000	0.905997
3252.000000	0.906054
3251.000000	0.906105
3250.000000	0.906136
3249.000000	0.906140
3248.000000	0.906121
3247.000000	0.906093
3246.000000	0.906077
3245.000000	0.906092
3244.000000	0.906137
3243.000000	0.906195
3242.000000	0.906242
3241.000000	0.906270
3240.000000	0.906287
3239.000000	0.906307
3238.000000	0.906335
3237.000000	0.906369
3236.000000	0.906396
3235.000000	0.906406
3234.000000	0.906399
3233.000000	0.906392
3232.000000	0.906400
3231.000000	0.906428
3230.000000	0.906466
3229.000000	0.906502
3228.000000	0.906535
3227.000000	0.906567
3226.000000	0.906599
3225.000000	0.906623
3224.000000	0.906635
3223.000000	0.906634
3222.000000	0.906627
3221.000000	0.906619
3220.000000	0.906618
3219.000000	0.906629
3218.000000	0.906655
3217.000000	0.906688
3216.000000	0.906711
3215.000000	0.906713
3214.000000	0.906695
3213.000000	0.906677
3212.000000	0.906675
3211.000000	0.906693
3210.000000	0.906722
3209.000000	0.906751
3208.000000	0.906773
3207.000000	0.906781
3206.000000	0.906776
3205.000000	0.906764
3204.000000	0.906758
3203.000000	0.906761
3202.000000	0.906768
3201.000000	0.906773
3200.000000	0.906775
3199.000000	0.906783
3198.000000	0.906796
3197.000000	0.906810
3196.000000	0.906819
3195.000000	0.906824
3194.000000	0.906831
3193.000000	0.906847
3192.000000	0.906865
3191.000000	0.906873
3190.000000	0.906861
3189.000000	0.906833
3188.000000	0.906803
3187.000000	0.906788
3186.000000	0.906791
3185.000000	0.906802
3184.000000	0.906813
3183.000000	0.906819
3182.000000	0.906825
3181.000000	0.906835
3180.000000	0.906845
3179.000000	0.906850
3178.000000	0.906846
3177.000000	0.906833
3176.000000	0.906816
3175.000000	0.906803
3174.000000	0.906802
3173.000000	0.906814
3172.000000	0.906833
3171.000000	0.906850
3170.000000	0.906869
3169.000000	0.906902
3168.000000	0.906951
3167.000000	0.907002
3166.000000	0.907033
3165.000000	0.907037
3164.000000	0.907022
3163.000000	0.907002
3162.000000	0.906983
3161.000000	0.906969
3160.000000	0.906965
3159.000000	0.906976
3158.000000	0.906999
3157.000000	0.907022
3156.000000	0.907031
3155.000000	0.907020
3154.000000	0.907001
3153.000000	0.906993
3152.000000	0.907008
3151.000000	0.907039
3150.000000	0.907071
3149.000000	0.907095
3148.000000	0.907110
3147.000000	0.907119
3146.000000	0.907125
3145.000000	0.907127
3144.000000	0.907125
3143.000000	0.907116
3142.000000	0.907105
3141.000000	0.907102
3140.000000	0.907118
3139.000000	0.907146
3138.000000	0.907174
3137.000000	0.907189
3136.000000	0.907188
3135.000000	0.907174
3134.000000	0.907152
3133.000000	0.907135
3132.000000	0.907133
3131.000000	0.907152
3130.000000	0.907182
3129.000000	0.907214
3128.000000	0.907244
3127.000000	0.907269
3126.000000	0.907288
3125.000000	0.907297
3124.000000	0.907300
3123.000000	0.907299
3122.000000	0.907294
3121.000000	0.907284
3120.000000	0.907272
3119.000000	0.907263
3118.000000	0.907262
3117.000000	0.907269
3116.000000	0.907285
3115.000000	0.907310
3114.000000	0.907335
3113.000000	0.907348
3112.000000	0.907345
3111.000000	0.907332
3110.000000	0.907320
3109.000000	0.907313
3108.000000	0.907308
3107.000000	0.907300
3106.000000	0.907286
3105.000000	0.907270
3104.000000	0.907259
3103.000000	0.907255
3102.000000	0.907251
3101.000000	0.907238
3100.000000	0.907213
3099.000000	0.907185
3098.000000	0.907162
3097.000000	0.907149
3096.000000	0.907148
3095.000000	0.907154
3094.000000	0.907162
3093.000000	0.907161
3092.000000	0.907144
3091.000000	0.907108
3090.000000	0.907058
3089.000000	0.907007
3088.000000	0.906972
3087.000000	0.906958
3086.000000	0.906955
3085.000000	0.906945
3084.000000	0.906917
3083.000000	0.906872
3082.000000	0.906814
3081.000000	0.906752
3080.000000	0.906696
3079.000000	0.906660
3078.000000	0.906645
3077.000000	0.906643
3076.000000	0.906639
3075.000000	0.906628
3074.000000	0.906613
3073.000000	0.906595
3072.000000	0.906571
3071.000000	0.906537
3070.000000	0.906497
3069.000000	0.906458
3068.000000	0.906428
3067.000000	0.906409
3066.000000	0.906401
3065.000000	0.906395
3064.000000	0.906380
3063.000000	0.906349
3062.000000	0.906303
3061.000000	0.906255
3060.000000	0.906217
3059.000000	0.906193
3058.000000	0.906177
3057.000000	0.906161
3056.000000	0.906146
3055.000000	0.906130
3054.000000	0.906109
3053.000000	0.906076
3052.000000	0.906032
3051.000000	0.905988
3050.000000	0.905954
3049.000000	0.905928
3048.000000	0.905901
3047.000000	0.905867
3046.000000	0.905830
3045.000000	0.905797
3044.000000	0.905770
3043.000000	0.905744
3042.000000	0.905714
3041.000000	0.905682
3040.000000	0.905656
3039.000000	0.905642
3038.000000	0.905639
3037.000000	0.905633
3036.000000	0.905610
3035.000000	0.905567
3034.000000	0.905513
3033.000000	0.905471
3032.000000	0.905455
3031.000000	0.905462
3030.000000	0.905477
3029.000000	0.905484
3028.000000	0.905474
3027.000000	0.905449
3026.000000	0.905416
3025.000000	0.905381
3024.000000	0.905347
3023.000000	0.905316
3022.000000	0.905288
3021.000000	0.905262
3020.000000	0.905228
3019.000000	0.905182
3018.000000	0.905120
3017.000000	0.905053
3016.000000	0.904996
3015.000000	0.904963
3014.000000	0.904952
3013.000000	0.904948
3012.000000	0.904937
3011.000000	0.904919
3010.000000	0.904903
3009.000000	0.904897
3008.000000	0.904898
3007.000000	0.904893
3006.000000	0.904878
3005.000000	0.904856
3004.000000	0.904835
3003.000000	0.904814
3002.000000	0.904783
3001.000000	0.904739
3000.000000	0.904688
2999.000000	0.904643
2998.000000	0.904610
2997.000000	0.904590
2996.000000	0.904577
2995.000000	0.904568
2994.000000	0.904556
2993.000000	0.904535
2992.000000	0.904503
2991.000000	0.904467
2990.000000	0.904433
2989.000000	0.904400
2988.000000	0.904371
2987.000000	0.904346
2986.000000	0.904325
2985.000000	0.904305
2984.000000	0.904286
2983.000000	0.904268
2982.000000	0.904252
2981.000000	0.904234
2980.000000	0.904213
2979.000000	0.904194
2978.000000	0.904184
2977.000000	0.904178
2976.000000	0.904172
2975.000000	0.904166
2974.000000	0.904167
2973.000000	0.904177
2972.000000	0.904187
2971.000000	0.904184
2970.000000	0.904165
2969.000000	0.904136
2968.000000	0.904101
2967.000000	0.904063
2966.000000	0.904027
2965.000000	0.903997
2964.000000	0.903974
2963.000000	0.903952
2962.000000	0.903921
2961.000000	0.903876
2960.000000	0.903819
2959.000000	0.903760
2958.000000	0.903704
2957.000000	0.903654
2956.000000	0.903608
2955.000000	0.903562
2954.000000	0.903516
2953.000000	0.903469
2952.000000	0.903423
2951.000000	0.903377
2950.000000	0.903334
2949.000000	0.903296
2948.000000	0.903268
2947.000000	0.903250
2946.000000	0.903240
2945.000000	0.903233
2944.000000	0.903229
2943.000000	0.903229
2942.000000	0.903230
2941.000000	0.903222
2940.000000	0.903198
2939.000000	0.903160
2938.000000	0.903121
2937.000000	0.903093
2936.000000	0.903070
2935.000000	0.903042
2934.000000	0.903001
2933.000000	0.902954
2932.000000	0.902913
2931.000000	0.902890
2930.000000	0.902880
2929.000000	0.902867
2928.000000	0.902834
2927.000000	0.902779
2926.000000	0.902708
2925.000000	0.902630
2924.000000	0.902546
2923.000000	0.902454
2922.000000	0.902353
2921.000000	0.902254
2920.000000	0.902170
2919.000000	0.902115
2918.000000	0.902083
2917.000000	0.902058
2916.000000	0.902020
2915.000000	0.901967
2914.000000	0.901919
2913.000000	0.901896
2912.000000	0.901897
2911.000000	0.901899
2910.000000	0.901880
2909.000000	0.901846
2908.000000	0.901818
2907.000000	0.901806
2906.000000	0.901796
2905.000000	0.901770
2904.000000	0.901726
2903.000000	0.901677
2902.000000	0.901629
2901.000000	0.901580
2900.000000	0.901528
2899.000000	0.901483
2898.000000	0.901454
2897.000000	0.901443
2896.000000	0.901438
2895.000000	0.901424
2894.000000	0.901393
2893.000000	0.901345
2892.000000	0.901288
2891.000000	0.901233
2890.000000	0.901187
2889.000000	0.901149
2888.000000	0.901110
2887.000000	0.901061
2886.000000	0.901002
2885.000000	0.900938
2884.000000	0.900881
2883.000000	0.900839
2882.000000	0.900816
2881.000000	0.900802
2880.000000	0.900782
2879.000000	0.900741
2878.000000	0.900681
2877.000000	0.900612
2876.000000	0.900548
2875.000000	0.900496
2874.000000	0.900462
2873.000000	0.900445
2872.000000	0.900437
2871.000000	0.900427
2870.000000	0.900407
2869.000000	0.900381
2868.000000	0.900354
2867.000000	0.900323
2866.000000	0.900278
2865.000000	0.900212
2864.000000	0.900128
2863.000000	0.900031
2862.000000	0.899929
2861.000000	0.899826
2860.000000	0.899730
2859.000000	0.899646
2858.000000	0.899578
2857.000000	0.899531
2856.000000	0.899500
2855.000000	0.899475
2854.000000	0.899440
2853.000000	0.899389
2852.000000	0.899330
2851.000000	0.899280
2850.000000	0.899245
2849.000000	0.899220
2848.000000	0.899193
2847.000000	0.899158
2846.000000	0.899121
2845.000000	0.899086
2844.000000	0.899053
2843.000000	0.899022
2842.000000	0.898998
2841.000000	0.898985
2840.000000	0.898980
2839.000000	0.898979
2838.000000	0.898974
2837.000000	0.898964
2836.000000	0.898944
2835.000000	0.898913
2834.000000	0.898873
2833.000000	0.898833
2832.000000	0.898798
2831.000000	0.898767
2830.000000	0.898732
2829.000000	0.898690
2828.000000	0.898644
2827.000000	0.898603
2826.000000	0.898571
2825.000000	0.898546
2824.000000	0.898524
2823.000000	0.898499
2822.000000	0.898470
2821.000000	0.898437
2820.000000	0.898405
2819.000000	0.898380
2818.000000	0.898362
2817.000000	0.898344
2816.000000	0.898317
2815.000000	0.898276
2814.000000	0.898230
2813.000000	0.898191
2812.000000	0.898159
2811.000000	0.898127
2810.000000	0.898086
2809.000000	0.898040
2808.000000	0.897992
2807.000000	0.897948
2806.000000	0.897915
2805.000000	0.897898
2804.000000	0.897893
2803.000000	0.897883
2802.000000	0.897856
2801.000000	0.897810
2800.000000	0.897759
2799.000000	0.897716
2798.000000	0.897686
2797.000000	0.897665
2796.000000	0.897646
2795.000000	0.897620
2794.000000	0.897588
2793.000000	0.897558
2792.000000	0.897541
2791.000000	0.897531
2790.000000	0.897515
2789.000000	0.897484
2788.000000	0.897448
2787.000000	0.897425
2786.000000	0.897414
2785.000000	0.897401
2784.000000	0.897369
2783.000000	0.897322
2782.000000	0.897279
2781.000000	0.897256
2780.000000	0.897255
2779.000000	0.897258
2778.000000	0.897251
2777.000000	0.897231
2776.000000	0.897202
2775.000000	0.897174
2774.000000	0.897151
2773.000000	0.897136
2772.000000	0.897124
2771.000000	0.897108
2770.000000	0.897081
2769.000000	0.897048
2768.000000	0.897019
2767.000000	0.896996
2766.000000	0.896977
2765.000000	0.896958
2764.000000	0.896939
2763.000000	0.896922
2762.000000	0.896903
2761.000000	0.896883
2760.000000	0.896862
2759.000000	0.896846
2758.000000	0.896838
2757.000000	0.896835
2756.000000	0.896828
2755.000000	0.896813
2754.000000	0.896794
2753.000000	0.896780
2752.000000	0.896775
2751.000000	0.896771
2750.000000	0.896759
2749.000000	0.896741
2748.000000	0.896729
2747.000000	0.896725
2746.000000	0.896724
2745.000000	0.896718
2744.000000	0.896710
2743.000000	0.896706
2742.000000	0.896706
2741.000000	0.896705
2740.000000	0.896701
2739.000000	0.896689
2738.000000	0.896667
2737.000000	0.896641
2736.000000	0.896625
2735.000000	0.896630
2734.000000	0.896651
2733.000000	0.896670
2732.000000	0.896668
2731.000000	0.896644
2730.000000	0.896604
2729.000000	0.896558
2728.000000	0.896521
2727.000000	0.896506
2726.000000	0.896515
2725.000000	0.896540
2724.000000	0.896567
2723.000000	0.896587
2722.000000	0.896599
2721.000000	0.896604
2720.000000	0.896604
2719.000000	0.896601
2718.000000	0.896594
2717.000000	0.896585
2716.000000	0.896576
2715.000000	0.896571
2714.000000	0.896575
2713.000000	0.896583
2712.000000	0.896590
2711.000000	0.896592
2710.000000	0.896589
2709.000000	0.896585
2708.000000	0.896584
2707.000000	0.896590
2706.000000	0.896602
2705.000000	0.896613
2704.000000	0.896616
2703.000000	0.896610
2702.000000	0.896603
2701.000000	0.896600
2700.000000	0.896599
2699.000000	0.896598
2698.000000	0.896601
2697.000000	0.896611
2696.000000	0.896622
2695.000000	0.896626
2694.000000	0.896622
2693.000000	0.896622
2692.000000	0.896632
2691.000000	0.896645
2690.000000	0.896650
2689.000000	0.896644
2688.000000	0.896639
2687.000000	0.896642
2686.000000	0.896654
2685.000000	0.896671
2684.000000	0.896686
2683.000000	0.896694
2682.000000	0.896694
2681.000000	0.896693
2680.000000	0.896702
2679.000000	0.896723
2678.000000	0.896751
2677.000000	0.896777
2676.000000	0.896796
2675.000000	0.896808
2674.000000	0.896816
2673.000000	0.896825
2672.000000	0.896839
2671.000000	0.896857
2670.000000	0.896873
2669.000000	0.896882
2668.000000	0.896883
2667.000000	0.896881
2666.000000	0.896883
2665.000000	0.896892
2664.000000	0.896905
2663.000000	0.896916
2662.000000	0.896926
2661.000000	0.896938
2660.000000	0.896956
2659.000000	0.896978
2658.000000	0.897007
2657.000000	0.897046
2656.000000	0.897093
2655.000000	0.897138
2654.000000	0.897167
2653.000000	0.897178
2652.000000	0.897182
2651.000000	0.897193
2650.000000	0.897216
2649.000000	0.897246
2648.000000	0.897277
2647.000000	0.897307
2646.000000	0.897334
2645.000000	0.897355
2644.000000	0.897371
2643.000000	0.897385
2642.000000	0.897401
2641.000000	0.897423
2640.000000	0.897446
2639.000000	0.897468
2638.000000	0.897483
2637.000000	0.897494
2636.000000	0.897504
2635.000000	0.897517
2634.000000	0.897529
2633.000000	0.897533
2632.000000	0.897532
2631.000000	0.897535
2630.000000	0.897553
2629.000000	0.897589
2628.000000	0.897630
2627.000000	0.897670
2626.000000	0.897703
2625.000000	0.897731
2624.000000	0.897752
2623.000000	0.897770
2622.000000	0.897783
2621.000000	0.897790
2620.000000	0.897792
2619.000000	0.897791
2618.000000	0.897794
2617.000000	0.897804
2616.000000	0.897825
2615.000000	0.897857
2614.000000	0.897895
2613.000000	0.897933
2612.000000	0.897962
2611.000000	0.897975
2610.000000	0.897979
2609.000000	0.897980
2608.000000	0.897983
2607.000000	0.897990
2606.000000	0.898005
2605.000000	0.898032
2604.000000	0.898070
2603.000000	0.898113
2602.000000	0.898157
2601.000000	0.898202
2600.000000	0.898246
2599.000000	0.898281
2598.000000	0.898302
2597.000000	0.898304
2596.000000	0.898293
2595.000000	0.898276
2594.000000	0.898265
2593.000000	0.898270
2592.000000	0.898290
2591.000000	0.898318
2590.000000	0.898344
2589.000000	0.898365
2588.000000	0.898382
2587.000000	0.898398
2586.000000	0.898415
2585.000000	0.898440
2584.000000	0.898474
2583.000000	0.898506
2582.000000	0.898527
2581.000000	0.898539
2580.000000	0.898551
2579.000000	0.898569
2578.000000	0.898591
2577.000000	0.898613
2576.000000	0.898629
2575.000000	0.898636
2574.000000	0.898636
2573.000000	0.898641
2572.000000	0.898658
2571.000000	0.898683
2570.000000	0.898703
2569.000000	0.898711
2568.000000	0.898717
2567.000000	0.898731
2566.000000	0.898753
2565.000000	0.898777
2564.000000	0.898799
2563.000000	0.898820
2562.000000	0.898841
2561.000000	0.898861
2560.000000	0.898883
2559.000000	0.898908
2558.000000	0.898932
2557.000000	0.898953
2556.000000	0.898972
2555.000000	0.898994
2554.000000	0.899021
2553.000000	0.899048
2552.000000	0.899070
2551.000000	0.899089
2550.000000	0.899111
2549.000000	0.899135
2548.000000	0.899155
2547.000000	0.899165
2546.000000	0.899162
2545.000000	0.899154
2544.000000	0.899152
2543.000000	0.899162
2542.000000	0.899185
2541.000000	0.899215
2540.000000	0.899248
2539.000000	0.899281
2538.000000	0.899310
2537.000000	0.899333
2536.000000	0.899351
2535.000000	0.899366
2534.000000	0.899378
2533.000000	0.899388
2532.000000	0.899395
2531.000000	0.899406
2530.000000	0.899425
2529.000000	0.899448
2528.000000	0.899466
2527.000000	0.899473
2526.000000	0.899471
2525.000000	0.899467
2524.000000	0.899468
2523.000000	0.899478
2522.000000	0.899496
2521.000000	0.899516
2520.000000	0.899536
2519.000000	0.899560
2518.000000	0.899593
2517.000000	0.899631
2516.000000	0.899662
2515.000000	0.899678
2514.000000	0.899678
2513.000000	0.899678
2512.000000	0.899688
2511.000000	0.899709
2510.000000	0.899730
2509.000000	0.899743
2508.000000	0.899751
2507.000000	0.899761
2506.000000	0.899779
2505.000000	0.899802
2504.000000	0.899825
2503.000000	0.899845
2502.000000	0.899865
2501.000000	0.899891
2500.000000	0.899924
2499.000000	0.899955
2498.000000	0.899976
2497.000000	0.899986
2496.000000	0.899996
2495.000000	0.900016
2494.000000	0.900045
2493.000000	0.900076
2492.000000	0.900105
2491.000000	0.900133
2490.000000	0.900163
2489.000000	0.900196
2488.000000	0.900226
2487.000000	0.900250
2486.000000	0.900261
2485.000000	0.900258
2484.000000	0.900248
2483.000000	0.900243
2482.000000	0.900253
2481.000000	0.900285
2480.000000	0.900337
2479.000000	0.900396
2478.000000	0.900447
2477.000000	0.900481
2476.000000	0.900504
2475.000000	0.900528
2474.000000	0.900560
2473.000000	0.900599
2472.000000	0.900641
2471.000000	0.900683
2470.000000	0.900718
2469.000000	0.900743
2468.000000	0.900761
2467.000000	0.900783
2466.000000	0.900817
2465.000000	0.900864
2464.000000	0.900915
2463.000000	0.900961
2462.000000	0.900998
2461.000000	0.901029
2460.000000	0.901061
2459.000000	0.901099
2458.000000	0.901140
2457.000000	0.901175
2456.000000	0.901203
2455.000000	0.901227
2454.000000	0.901253
2453.000000	0.901279
2452.000000	0.901303
2451.000000	0.901327
2450.000000	0.901352
2449.000000	0.901376
2448.000000	0.901395
2447.000000	0.901411
2446.000000	0.901429
2445.000000	0.901450
2444.000000	0.901474
2443.000000	0.901497
2442.000000	0.901516
2441.000000	0.901529
2440.000000	0.901536
2439.000000	0.901548
2438.000000	0.901575
2437.000000	0.901613
2436.000000	0.901650
2435.000000	0.901675
2434.000000	0.901689
2433.000000	0.901698
2432.000000	0.901706
2431.000000	0.901710
2430.000000	0.901712
2429.000000	0.901714
2428.000000	0.901715
2427.000000	0.901708
2426.000000	0.901685
2425.000000	0.901646
2424.000000	0.901604
2423.000000	0.901574
2422.000000	0.901562
2421.000000	0.901557
2420.000000	0.901546
2419.000000	0.901526
2418.000000	0.901508
2417.000000	0.901496
2416.000000	0.901477
2415.000000	0.901439
2414.000000	0.901388
2413.000000	0.901344
2412.000000	0.901318
2411.000000	0.901302
2410.000000	0.901279
2409.000000	0.901244
2408.000000	0.901205
2407.000000	0.901177
2406.000000	0.901162
2405.000000	0.901148
2404.000000	0.901121
2403.000000	0.901082
2402.000000	0.901040
2401.000000	0.901011
2400.000000	0.901000
2399.000000	0.901002
2398.000000	0.901005
2397.000000	0.901003
2396.000000	0.900994
2395.000000	0.900978
2394.000000	0.900961
2393.000000	0.900944
2392.000000	0.900927
2391.000000	0.900908
2390.000000	0.900885
2389.000000	0.900859
2388.000000	0.900837
2387.000000	0.900823
2386.000000	0.900818
2385.000000	0.900812
2384.000000	0.900797
2383.000000	0.900768
2382.000000	0.900729
2381.000000	0.900687
2380.000000	0.900647
2379.000000	0.900609
2378.000000	0.900573
2377.000000	0.900529
2376.000000	0.900467
2375.000000	0.900388
2374.000000	0.900299
2373.000000	0.900208
2372.000000	0.900113
2371.000000	0.900003
2370.000000	0.899880
2369.000000	0.899761
2368.000000	0.899659
2367.000000	0.899578
2366.000000	0.899503
2365.000000	0.899424
2364.000000	0.899349
2363.000000	0.899294
2362.000000	0.899272
2361.000000	0.899282
2360.000000	0.899315
2359.000000	0.899364
2358.000000	0.899420
2357.000000	0.899481
2356.000000	0.899550
2355.000000	0.899644
2354.000000	0.899776
2353.000000	0.899948
2352.000000	0.900145
2351.000000	0.900341
2350.000000	0.900512
2349.000000	0.900639
2348.000000	0.900726
2347.000000	0.900810
2346.000000	0.900942
2345.000000	0.901154
2344.000000	0.901442
2343.000000	0.901762
2342.000000	0.902051
2341.000000	0.902228
2340.000000	0.902227
2339.000000	0.902029
2338.000000	0.901683
2337.000000	0.901283
2336.000000	0.900919
2335.000000	0.900644
2334.000000	0.900468
2333.000000	0.900377
2332.000000	0.900344
2331.000000	0.900342
2330.000000	0.900355
2329.000000	0.900379
2328.000000	0.900413
2327.000000	0.900453
2326.000000	0.900497
2325.000000	0.900546
2324.000000	0.900604
2323.000000	0.900672
2322.000000	0.900748
2321.000000	0.900818
2320.000000	0.900872
2319.000000	0.900909
2318.000000	0.900939
2317.000000	0.900974
2316.000000	0.901016
2315.000000	0.901058
2314.000000	0.901099
2313.000000	0.901140
2312.000000	0.901181
2311.000000	0.901220
2310.000000	0.901251
2309.000000	0.901272
2308.000000	0.901283
2307.000000	0.901288
2306.000000	0.901301
2305.000000	0.901333
2304.000000	0.901386
2303.000000	0.901447
2302.000000	0.901499
2301.000000	0.901533
2300.000000	0.901550
2299.000000	0.901556
2298.000000	0.901557
2297.000000	0.901554
2296.000000	0.901553
2295.000000	0.901564
2294.000000	0.901592
2293.000000	0.901628
2292.000000	0.901654
2291.000000	0.901656
2290.000000	0.901639
2289.000000	0.901621
2288.000000	0.901616
2287.000000	0.901629
2286.000000	0.901655
2285.000000	0.901683
2284.000000	0.901704
2283.000000	0.901716
2282.000000	0.901721
2281.000000	0.901725
2280.000000	0.901732
2279.000000	0.901745
2278.000000	0.901766
2277.000000	0.901790
2276.000000	0.901809
2275.000000	0.901819
2274.000000	0.901827
2273.000000	0.901840
2272.000000	0.901855
2271.000000	0.901863
2270.000000	0.901862
2269.000000	0.901857
2268.000000	0.901848
2267.000000	0.901831
2266.000000	0.901809
2265.000000	0.901799
2264.000000	0.901809
2263.000000	0.901833
2262.000000	0.901856
2261.000000	0.901871
2260.000000	0.901878
2259.000000	0.901885
2258.000000	0.901895
2257.000000	0.901914
2256.000000	0.901935
2255.000000	0.901946
2254.000000	0.901941
2253.000000	0.901931
2252.000000	0.901929
2251.000000	0.901941
2250.000000	0.901956
2249.000000	0.901962
2248.000000	0.901961
2247.000000	0.901957
2246.000000	0.901953
2245.000000	0.901947
2244.000000	0.901934
2243.000000	0.901918
2242.000000	0.901903
2241.000000	0.901899
2240.000000	0.901911
2239.000000	0.901930
2238.000000	0.901946
2237.000000	0.901956
2236.000000	0.901966
2235.000000	0.901981
2234.000000	0.901995
2233.000000	0.902000
2232.000000	0.901998
2231.000000	0.901996
2230.000000	0.901991
2229.000000	0.901978
2228.000000	0.901956
2227.000000	0.901939
2226.000000	0.901941
2225.000000	0.901954
2224.000000	0.901965
2223.000000	0.901964
2222.000000	0.901957
2221.000000	0.901952
2220.000000	0.901945
2219.000000	0.901928
2218.000000	0.901899
2217.000000	0.901865
2216.000000	0.901838
2215.000000	0.901825
2214.000000	0.901827
2213.000000	0.901835
2212.000000	0.901841
2211.000000	0.901842
2210.000000	0.901842
2209.000000	0.901841
2208.000000	0.901827
2207.000000	0.901792
2206.000000	0.901747
2205.000000	0.901717
2204.000000	0.901715
2203.000000	0.901727
2202.000000	0.901730
2201.000000	0.901718
2200.000000	0.901701
2199.000000	0.901690
2198.000000	0.901685
2197.000000	0.901679
2196.000000	0.901665
2195.000000	0.901641
2194.000000	0.901610
2193.000000	0.901581
2192.000000	0.901561
2191.000000	0.901553
2190.000000	0.901550
2189.000000	0.901541
2188.000000	0.901522
2187.000000	0.901503
2186.000000	0.901501
2185.000000	0.901521
2184.000000	0.901542
2183.000000	0.901539
2182.000000	0.901505
2181.000000	0.901458
2180.000000	0.901415
2179.000000	0.901378
2178.000000	0.901340
2177.000000	0.901299
2176.000000	0.901262
2175.000000	0.901232
2174.000000	0.901208
2173.000000	0.901187
2172.000000	0.901172
2171.000000	0.901162
2170.000000	0.901152
2169.000000	0.901136
2168.000000	0.901112
2167.000000	0.901087
2166.000000	0.901068
2165.000000	0.901053
2164.000000	0.901036
2163.000000	0.901011
2162.000000	0.900983
2161.000000	0.900955
2160.000000	0.900928
2159.000000	0.900893
2158.000000	0.900847
2157.000000	0.900794
2156.000000	0.900746
2155.000000	0.900708
2154.000000	0.900685
2153.000000	0.900674
2152.000000	0.900665
2151.000000	0.900647
2150.000000	0.900613
2149.000000	0.900569
2148.000000	0.900529
2147.000000	0.900497
2146.000000	0.900474
2145.000000	0.900454
2144.000000	0.900428
2143.000000	0.900389
2142.000000	0.900338
2141.000000	0.900291
2140.000000	0.900266
2139.000000	0.900263
2138.000000	0.900262
2137.000000	0.900237
2136.000000	0.900187
2135.000000	0.900127
2134.000000	0.900074
2133.000000	0.900029
2132.000000	0.899989
2131.000000	0.899952
2130.000000	0.899917
2129.000000	0.899883
2128.000000	0.899849
2127.000000	0.899815
2126.000000	0.899788
2125.000000	0.899769
2124.000000	0.899750
2123.000000	0.899723
2122.000000	0.899686
2121.000000	0.899644
2120.000000	0.899602
2119.000000	0.899564
2118.000000	0.899532
2117.000000	0.899505
2116.000000	0.899479
2115.000000	0.899454
2114.000000	0.899428
2113.000000	0.899398
2112.000000	0.899360
2111.000000	0.899316
2110.000000	0.899274
2109.000000	0.899240
2108.000000	0.899209
2107.000000	0.899175
2106.000000	0.899131
2105.000000	0.899079
2104.000000	0.899021
2103.000000	0.898966
2102.000000	0.898922
2101.000000	0.898894
2100.000000	0.898875
2099.000000	0.898849
2098.000000	0.898812
2097.000000	0.898773
2096.000000	0.898741
2095.000000	0.898719
2094.000000	0.898702
2093.000000	0.898683
2092.000000	0.898656
2091.000000	0.898617
2090.000000	0.898564
2089.000000	0.898504
2088.000000	0.898448
2087.000000	0.898405
2086.000000	0.898370
2085.000000	0.898334
2084.000000	0.898287
2083.000000	0.898236
2082.000000	0.898191
2081.000000	0.898162
2080.000000	0.898137
2079.000000	0.898102
2078.000000	0.898058
2077.000000	0.898014
2076.000000	0.897979
2075.000000	0.897944
2074.000000	0.897906
2073.000000	0.897869
2072.000000	0.897843
2071.000000	0.897826
2070.000000	0.897800
2069.000000	0.897755
2068.000000	0.897693
2067.000000	0.897631
2066.000000	0.897591
2065.000000	0.897577
2064.000000	0.897577
2063.000000	0.897569
2062.000000	0.897542
2061.000000	0.897499
2060.000000	0.897452
2059.000000	0.897412
2058.000000	0.897381
2057.000000	0.897357
2056.000000	0.897338
2055.000000	0.897317
2054.000000	0.897289
2053.000000	0.897251
2052.000000	0.897199
2051.000000	0.897137
2050.000000	0.897075
2049.000000	0.897024
2048.000000	0.896984
2047.000000	0.896944
2046.000000	0.896900
2045.000000	0.896861
2044.000000	0.896833
2043.000000	0.896808
2042.000000	0.896775
2041.000000	0.896733
2040.000000	0.896693
2039.000000	0.896664
2038.000000	0.896646
2037.000000	0.896632
2036.000000	0.896617
2035.000000	0.896596
2034.000000	0.896569
2033.000000	0.896534
2032.000000	0.896491
2031.000000	0.896441
2030.000000	0.896383
2029.000000	0.896325
2028.000000	0.896278
2027.000000	0.896249
2026.000000	0.896237
2025.000000	0.896226
2024.000000	0.896199
2023.000000	0.896157
2022.000000	0.896114
2021.000000	0.896082
2020.000000	0.896055
2019.000000	0.896017
2018.000000	0.895966
2017.000000	0.895918
2016.000000	0.895885
2015.000000	0.895863
2014.000000	0.895841
2013.000000	0.895814
2012.000000	0.895783
2011.000000	0.895748
2010.000000	0.895708
2009.000000	0.895669
2008.000000	0.895639
2007.000000	0.895619
2006.000000	0.895603
2005.000000	0.895585
2004.000000	0.895568
2003.000000	0.895554
2002.000000	0.895544
2001.000000	0.895535
2000.000000	0.895524
1999.000000	0.895510
1998.000000	0.895499
1997.000000	0.895490
1996.000000	0.895474
1995.000000	0.895436
1994.000000	0.895380
1993.000000	0.895325
1992.000000	0.895292
1991.000000	0.895282
1990.000000	0.895280
1989.000000	0.895271
1988.000000	0.895254
1987.000000	0.895235
1986.000000	0.895219
1985.000000	0.895205
1984.000000	0.895188
1983.000000	0.895165
1982.000000	0.895139
1981.000000	0.895117
1980.000000	0.895107
1979.000000	0.895103
1978.000000	0.895092
1977.000000	0.895063
1976.000000	0.895024
1975.000000	0.894987
1974.000000	0.894961
1973.000000	0.894947
1972.000000	0.894940
1971.000000	0.894935
1970.000000	0.894926
1969.000000	0.894904
1968.000000	0.894873
1967.000000	0.894845
1966.000000	0.894832
1965.000000	0.894836
1964.000000	0.894846
1963.000000	0.894849
1962.000000	0.894844
1961.000000	0.894834
1960.000000	0.894814
1959.000000	0.894777
1958.000000	0.894733
1957.000000	0.894702
1956.000000	0.894693
1955.000000	0.894697
1954.000000	0.894703
1953.000000	0.894715
1952.000000	0.894739
1951.000000	0.894760
1950.000000	0.894755
1949.000000	0.894716
1948.000000	0.894663
1947.000000	0.894624
1946.000000	0.894607
1945.000000	0.894596
1944.000000	0.894576
1943.000000	0.894552
1942.000000	0.894541
1941.000000	0.894552
1940.000000	0.894575
1939.000000	0.894589
1938.000000	0.894588
1937.000000	0.894580
1936.000000	0.894579
1935.000000	0.894588
1934.000000	0.894604
1933.000000	0.894617
1932.000000	0.894622
1931.000000	0.894617
1930.000000	0.894612
1929.000000	0.894614
1928.000000	0.894617
1927.000000	0.894610
1926.000000	0.894585
1925.000000	0.894550
1924.000000	0.894520
1923.000000	0.894510
1922.000000	0.894525
1921.000000	0.894552
1920.000000	0.894560
1919.000000	0.894538
1918.000000	0.894507
1917.000000	0.894504
1916.000000	0.894537
1915.000000	0.894579
1914.000000	0.894603
1913.000000	0.894613
1912.000000	0.894623
1911.000000	0.894638
1910.000000	0.894654
1909.000000	0.894673
1908.000000	0.894694
1907.000000	0.894714
1906.000000	0.894726
1905.000000	0.894733
1904.000000	0.894743
1903.000000	0.894755
1902.000000	0.894762
1901.000000	0.894764
1900.000000	0.894765
1899.000000	0.894771
1898.000000	0.894779
1897.000000	0.894782
1896.000000	0.894774
1895.000000	0.894759
1894.000000	0.894747
1893.000000	0.894744
1892.000000	0.894742
1891.000000	0.894729
1890.000000	0.894710
1889.000000	0.894705
1888.000000	0.894721
1887.000000	0.894741
1886.000000	0.894752
1885.000000	0.894759
1884.000000	0.894775
1883.000000	0.894799
1882.000000	0.894815
1881.000000	0.894819
1880.000000	0.894818
1879.000000	0.894823
1878.000000	0.894841
1877.000000	0.894874
1876.000000	0.894914
1875.000000	0.894944
1874.000000	0.894958
1873.000000	0.894954
1872.000000	0.894933
1871.000000	0.894891
1870.000000	0.894837
1869.000000	0.894799
1868.000000	0.894802
1867.000000	0.894841
1866.000000	0.894892
1865.000000	0.894936
1864.000000	0.894967
1863.000000	0.894984
1862.000000	0.894988
1861.000000	0.894986
1860.000000	0.894995
1859.000000	0.895014
1858.000000	0.895034
1857.000000	0.895045
1856.000000	0.895047
1855.000000	0.895048
1854.000000	0.895053
1853.000000	0.895064
1852.000000	0.895073
1851.000000	0.895072
1850.000000	0.895061
1849.000000	0.895055
1848.000000	0.895059
1847.000000	0.895049
1846.000000	0.894999
1845.000000	0.894920
1844.000000	0.894867
1843.000000	0.894885
1842.000000	0.894966
1841.000000	0.895058
1840.000000	0.895117
1839.000000	0.895142
1838.000000	0.895155
1837.000000	0.895172
1836.000000	0.895188
1835.000000	0.895196
1834.000000	0.895198
1833.000000	0.895196
1832.000000	0.895185
1831.000000	0.895164
1830.000000	0.895152
1829.000000	0.895176
1828.000000	0.895229
1827.000000	0.895264
1826.000000	0.895255
1825.000000	0.895226
1824.000000	0.895229
1823.000000	0.895284
1822.000000	0.895364
1821.000000	0.895434
1820.000000	0.895475
1819.000000	0.895489
1818.000000	0.895484
1817.000000	0.895481
1816.000000	0.895490
1815.000000	0.895507
1814.000000	0.895515
1813.000000	0.895509
1812.000000	0.895504
1811.000000	0.895513
1810.000000	0.895537
1809.000000	0.895571
1808.000000	0.895609
1807.000000	0.895645
1806.000000	0.895674
1805.000000	0.895691
1804.000000	0.895690
1803.000000	0.895669
1802.000000	0.895634
1801.000000	0.895604
1800.000000	0.895594
1799.000000	0.895600
1798.000000	0.895618
1797.000000	0.895645
1796.000000	0.895668
1795.000000	0.895651
1794.000000	0.895571
1793.000000	0.895467
1792.000000	0.895412
1791.000000	0.895453
1790.000000	0.895563
1789.000000	0.895678
1788.000000	0.895750
1787.000000	0.895767
1786.000000	0.895755
1785.000000	0.895752
1784.000000	0.895782
1783.000000	0.895836
1782.000000	0.895886
1781.000000	0.895921
1780.000000	0.895949
1779.000000	0.895978
1778.000000	0.896005
1777.000000	0.896018
1776.000000	0.896001
1775.000000	0.895935
1774.000000	0.895815
1773.000000	0.895693
1772.000000	0.895652
1771.000000	0.895726
1770.000000	0.895862
1769.000000	0.895982
1768.000000	0.896064
1767.000000	0.896144
1766.000000	0.896239
1765.000000	0.896312
1764.000000	0.896317
1763.000000	0.896260
1762.000000	0.896205
1761.000000	0.896212
1760.000000	0.896282
1759.000000	0.896361
1758.000000	0.896404
1757.000000	0.896425
1756.000000	0.896468
1755.000000	0.896536
1754.000000	0.896569
1753.000000	0.896509
1752.000000	0.896384
1751.000000	0.896287
1750.000000	0.896290
1749.000000	0.896381
1748.000000	0.896501
1747.000000	0.896607
1746.000000	0.896686
1745.000000	0.896741
1744.000000	0.896774
1743.000000	0.896794
1742.000000	0.896804
1741.000000	0.896802
1740.000000	0.896804
1739.000000	0.896844
1738.000000	0.896919
1737.000000	0.896945
1736.000000	0.896828
1735.000000	0.896595
1734.000000	0.896418
1733.000000	0.896454
1732.000000	0.896690
1731.000000	0.896969
1730.000000	0.897168
1729.000000	0.897281
1728.000000	0.897356
1727.000000	0.897415
1726.000000	0.897449
1725.000000	0.897460
1724.000000	0.897463
1723.000000	0.897466
1722.000000	0.897465
1721.000000	0.897433
1720.000000	0.897323
1719.000000	0.897127
1718.000000	0.896930
1717.000000	0.896870
1716.000000	0.897001
1715.000000	0.897235
1714.000000	0.897443
1713.000000	0.897576
1712.000000	0.897654
1711.000000	0.897699
1710.000000	0.897713
1709.000000	0.897710
1708.000000	0.897703
1707.000000	0.897678
1706.000000	0.897635
1705.000000	0.897610
1704.000000	0.897610
1703.000000	0.897546
1702.000000	0.897337
1701.000000	0.897062
1700.000000	0.896925
1699.000000	0.897002
1698.000000	0.897140
1697.000000	0.897170
1696.000000	0.897127
1695.000000	0.897188
1694.000000	0.897426
1693.000000	0.897722
1692.000000	0.897922
1691.000000	0.897996
1690.000000	0.898020
1689.000000	0.898050
1688.000000	0.898045
1687.000000	0.897904
1686.000000	0.897601
1685.000000	0.897268
1684.000000	0.897121
1683.000000	0.897256
1682.000000	0.897563
1681.000000	0.897853
1680.000000	0.898033
1679.000000	0.898121
1678.000000	0.898136
1677.000000	0.898061
1676.000000	0.897927
1675.000000	0.897838
1674.000000	0.897871
1673.000000	0.897976
1672.000000	0.898037
1671.000000	0.898003
1670.000000	0.897935
1669.000000	0.897924
1668.000000	0.898005
1667.000000	0.898141
1666.000000	0.898259
1665.000000	0.898299
1664.000000	0.898254
1663.000000	0.898182
1662.000000	0.898160
1661.000000	0.898218
1660.000000	0.898317
1659.000000	0.898404
1658.000000	0.898451
1657.000000	0.898422
1656.000000	0.898238
1655.000000	0.897841
1654.000000	0.897334
1653.000000	0.896998
1652.000000	0.897070
1651.000000	0.897501
1650.000000	0.897983
1649.000000	0.898237
1648.000000	0.898222
1647.000000	0.898103
1646.000000	0.898065
1645.000000	0.898172
1644.000000	0.898368
1643.000000	0.898554
1642.000000	0.898658
1641.000000	0.898679
1640.000000	0.898656
1639.000000	0.898600
1638.000000	0.898472
1637.000000	0.898263
1636.000000	0.898065
1635.000000	0.898014
1634.000000	0.898152
1633.000000	0.898388
1632.000000	0.898593
1631.000000	0.898701
1630.000000	0.898720
1629.000000	0.898690
1628.000000	0.898654
1627.000000	0.898642
1626.000000	0.898644
1625.000000	0.898623
1624.000000	0.898565
1623.000000	0.898508
1622.000000	0.898505
1621.000000	0.898551
1620.000000	0.898567
1619.000000	0.898472
1618.000000	0.898285
1617.000000	0.898137
1616.000000	0.898167
1615.000000	0.898390
1614.000000	0.898679
1613.000000	0.898890
1612.000000	0.898979
1611.000000	0.898992
1610.000000	0.898982
1609.000000	0.898959
1608.000000	0.898924
1607.000000	0.898894
1606.000000	0.898882
1605.000000	0.898883
1604.000000	0.898888
1603.000000	0.898903
1602.000000	0.898929
1601.000000	0.898949
1600.000000	0.898951
1599.000000	0.898945
1598.000000	0.898948
1597.000000	0.898957
1596.000000	0.898964
1595.000000	0.898971
1594.000000	0.898994
1593.000000	0.899031
1592.000000	0.899065
1591.000000	0.899085
1590.000000	0.899099
1589.000000	0.899122
1588.000000	0.899159
1587.000000	0.899208
1586.000000	0.899254
1585.000000	0.899283
1584.000000	0.899282
1583.000000	0.899251
1582.000000	0.899212
1581.000000	0.899186
1580.000000	0.899165
1579.000000	0.899094
1578.000000	0.898925
1577.000000	0.898701
1576.000000	0.898560
1575.000000	0.898612
1574.000000	0.898822
1573.000000	0.899029
1572.000000	0.899104
1571.000000	0.899054
1570.000000	0.898983
1569.000000	0.898979
1568.000000	0.899049
1567.000000	0.899150
1566.000000	0.899236
1565.000000	0.899292
1564.000000	0.899317
1563.000000	0.899280
1562.000000	0.899098
1561.000000	0.898725
1560.000000	0.898268
1559.000000	0.897969
1558.000000	0.898002
1557.000000	0.898298
1556.000000	0.898628
1555.000000	0.898841
1554.000000	0.898953
1553.000000	0.899044
1552.000000	0.899131
1551.000000	0.899193
1550.000000	0.899234
1549.000000	0.899280
1548.000000	0.899319
1547.000000	0.899311
1546.000000	0.899233
1545.000000	0.899108
1544.000000	0.898965
1543.000000	0.898805
1542.000000	0.898611
1541.000000	0.898400
1540.000000	0.898263
1539.000000	0.898315
1538.000000	0.898588
1537.000000	0.898958
1536.000000	0.899225
1535.000000	0.899293
1534.000000	0.899242
1533.000000	0.899219
1532.000000	0.899285
1531.000000	0.899386
1530.000000	0.899453
1529.000000	0.899460
1528.000000	0.899415
1527.000000	0.899337
1526.000000	0.899260
1525.000000	0.899201
1524.000000	0.899123
1523.000000	0.898984
1522.000000	0.898816
1521.000000	0.898733
1520.000000	0.898806
1519.000000	0.898977
1518.000000	0.899137
1517.000000	0.899247
1516.000000	0.899336
1515.000000	0.899423
1514.000000	0.899477
1513.000000	0.899482
1512.000000	0.899464
1511.000000	0.899439
1510.000000	0.899360
1509.000000	0.899163
1508.000000	0.898871
1507.000000	0.898627
1506.000000	0.898606
1505.000000	0.898858
1504.000000	0.899265
1503.000000	0.899644
1502.000000	0.899893
1501.000000	0.900026
1500.000000	0.900090
