PE IR       SUBTECH     SPECTRUM    ASCII       PEDS        4.00        
   -1
TE108B1_010.ASC
20/02/21
14:56:34.00
20/02/21
14:56:34.00
Administrator
Sample 010 By Administrator Date Friday, February 21 2020
1500.000000
#HDR
-1
-1
#GR
cm-1
A
1.0
0.0
4000.000000
-1.000000
2501
8
1.069815
0.983109
#DATA
4000.000000	0.997156
3999.000000	0.997213
3998.000000	0.997264
3997.000000	0.997296
3996.000000	0.997310
3995.000000	0.997312
3994.000000	0.997303
3993.000000	0.997276
3992.000000	0.997233
3991.000000	0.997187
3990.000000	0.997154
3989.000000	0.997140
3988.000000	0.997139
3987.000000	0.997138
3986.000000	0.997125
3985.000000	0.997101
3984.000000	0.997074
3983.000000	0.997051
3982.000000	0.997029
3981.000000	0.997003
3980.000000	0.996967
3979.000000	0.996920
3978.000000	0.996861
3977.000000	0.996792
3976.000000	0.996718
3975.000000	0.996648
3974.000000	0.996590
3973.000000	0.996547
3972.000000	0.996517
3971.000000	0.996491
3970.000000	0.996452
3969.000000	0.996388
3968.000000	0.996297
3967.000000	0.996191
3966.000000	0.996082
3965.000000	0.995977
3964.000000	0.995879
3963.000000	0.995796
3962.000000	0.995731
3961.000000	0.995683
3960.000000	0.995646
3959.000000	0.995615
3958.000000	0.995578
3957.000000	0.995523
3956.000000	0.995437
3955.000000	0.995326
3954.000000	0.995211
3953.000000	0.995116
3952.000000	0.995045
3951.000000	0.994976
3950.000000	0.994879
3949.000000	0.994740
3948.000000	0.994581
3947.000000	0.994441
3946.000000	0.994345
3945.000000	0.994292
3944.000000	0.994256
3943.000000	0.994203
3942.000000	0.994112
3941.000000	0.993993
3940.000000	0.993878
3939.000000	0.993788
3938.000000	0.993720
3937.000000	0.993651
3936.000000	0.993557
3935.000000	0.993434
3934.000000	0.993292
3933.000000	0.993150
3932.000000	0.993019
3931.000000	0.992893
3930.000000	0.992748
3929.000000	0.992571
3928.000000	0.992384
3927.000000	0.992234
3926.000000	0.992146
3925.000000	0.992081
3924.000000	0.991974
3923.000000	0.991801
3922.000000	0.991599
3921.000000	0.991419
3920.000000	0.991274
3919.000000	0.991148
3918.000000	0.991021
3917.000000	0.990891
3916.000000	0.990767
3915.000000	0.990664
3914.000000	0.990589
3913.000000	0.990522
3912.000000	0.990432
3911.000000	0.990300
3910.000000	0.990137
3909.000000	0.989971
3908.000000	0.989826
3907.000000	0.989716
3906.000000	0.989629
3905.000000	0.989536
3904.000000	0.989397
3903.000000	0.989202
3902.000000	0.988991
3901.000000	0.988824
3900.000000	0.988720
3899.000000	0.988643
3898.000000	0.988550
3897.000000	0.988426
3896.000000	0.988286
3895.000000	0.988139
3894.000000	0.987998
3893.000000	0.987877
3892.000000	0.987784
3891.000000	0.987689
3890.000000	0.987566
3889.000000	0.987436
3888.000000	0.987347
3887.000000	0.987309
3886.000000	0.987262
3885.000000	0.987132
3884.000000	0.986931
3883.000000	0.986755
3882.000000	0.986670
3881.000000	0.986650
3880.000000	0.986612
3879.000000	0.986504
3878.000000	0.986350
3877.000000	0.986214
3876.000000	0.986136
3875.000000	0.986090
3874.000000	0.986011
3873.000000	0.985875
3872.000000	0.985743
3871.000000	0.985693
3870.000000	0.985703
3869.000000	0.985679
3868.000000	0.985582
3867.000000	0.985464
3866.000000	0.985365
3865.000000	0.985276
3864.000000	0.985184
3863.000000	0.985100
3862.000000	0.985036
3861.000000	0.984978
3860.000000	0.984922
3859.000000	0.984879
3858.000000	0.984836
3857.000000	0.984756
3856.000000	0.984626
3855.000000	0.984501
3854.000000	0.984427
3853.000000	0.984365
3852.000000	0.984279
3851.000000	0.984212
3850.000000	0.984181
3849.000000	0.984137
3848.000000	0.984061
3847.000000	0.983991
3846.000000	0.983964
3845.000000	0.983976
3844.000000	0.983989
3843.000000	0.983966
3842.000000	0.983898
3841.000000	0.983799
3840.000000	0.983695
3839.000000	0.983602
3838.000000	0.983531
3837.000000	0.983489
3836.000000	0.983478
3835.000000	0.983482
3834.000000	0.983471
3833.000000	0.983429
3832.000000	0.983368
3831.000000	0.983317
3830.000000	0.983305
3829.000000	0.983340
3828.000000	0.983403
3827.000000	0.983454
3826.000000	0.983453
3825.000000	0.983385
3824.000000	0.983281
3823.000000	0.983196
3822.000000	0.983162
3821.000000	0.983152
3820.000000	0.983128
3819.000000	0.983109
3818.000000	0.983126
3817.000000	0.983164
3816.000000	0.983179
3815.000000	0.983152
3814.000000	0.983138
3813.000000	0.983185
3812.000000	0.983255
3811.000000	0.983281
3810.000000	0.983254
3809.000000	0.983227
3808.000000	0.983247
3807.000000	0.983295
3806.000000	0.983319
3805.000000	0.983318
3804.000000	0.983340
3803.000000	0.983405
3802.000000	0.983484
3801.000000	0.983514
3800.000000	0.983491
3799.000000	0.983488
3798.000000	0.983545
3797.000000	0.983623
3796.000000	0.983674
3795.000000	0.983703
3794.000000	0.983752
3793.000000	0.983835
3792.000000	0.983919
3791.000000	0.983971
3790.000000	0.983990
3789.000000	0.983998
3788.000000	0.984010
3787.000000	0.984032
3786.000000	0.984073
3785.000000	0.984137
3784.000000	0.984214
3783.000000	0.984288
3782.000000	0.984347
3781.000000	0.984388
3780.000000	0.984419
3779.000000	0.984458
3778.000000	0.984522
3777.000000	0.984616
3776.000000	0.984722
3775.000000	0.984814
3774.000000	0.984884
3773.000000	0.984955
3772.000000	0.985054
3771.000000	0.985173
3770.000000	0.985267
3769.000000	0.985307
3768.000000	0.985320
3767.000000	0.985361
3766.000000	0.985450
3765.000000	0.985556
3764.000000	0.985645
3763.000000	0.985720
3762.000000	0.985797
3761.000000	0.985870
3760.000000	0.985921
3759.000000	0.985959
3758.000000	0.986015
3757.000000	0.986100
3756.000000	0.986197
3755.000000	0.986291
3754.000000	0.986374
3753.000000	0.986440
3752.000000	0.986492
3751.000000	0.986557
3750.000000	0.986646
3749.000000	0.986715
3748.000000	0.986726
3747.000000	0.986719
3746.000000	0.986784
3745.000000	0.986950
3744.000000	0.987112
3743.000000	0.987191
3742.000000	0.987269
3741.000000	0.987407
3740.000000	0.987547
3739.000000	0.987633
3738.000000	0.987692
3737.000000	0.987778
3736.000000	0.987881
3735.000000	0.987957
3734.000000	0.988006
3733.000000	0.988069
3732.000000	0.988167
3731.000000	0.988280
3730.000000	0.988399
3729.000000	0.988527
3728.000000	0.988658
3727.000000	0.988778
3726.000000	0.988883
3725.000000	0.989004
3724.000000	0.989176
3723.000000	0.989400
3722.000000	0.989637
3721.000000	0.989855
3720.000000	0.990050
3719.000000	0.990243
3718.000000	0.990452
3717.000000	0.990683
3716.000000	0.990931
3715.000000	0.991202
3714.000000	0.991495
3713.000000	0.991791
3712.000000	0.992074
3711.000000	0.992347
3710.000000	0.992629
3709.000000	0.992927
3708.000000	0.993217
3707.000000	0.993477
3706.000000	0.993733
3705.000000	0.994039
3704.000000	0.994435
3703.000000	0.994903
3702.000000	0.995403
3701.000000	0.995904
3700.000000	0.996401
3699.000000	0.996899
3698.000000	0.997387
3697.000000	0.997840
3696.000000	0.998248
3695.000000	0.998647
3694.000000	0.999090
3693.000000	0.999595
3692.000000	1.000134
3691.000000	1.000675
3690.000000	1.001215
3689.000000	1.001767
3688.000000	1.002340
3687.000000	1.002945
3686.000000	1.003604
3685.000000	1.004301
3684.000000	1.004987
3683.000000	1.005633
3682.000000	1.006275
3681.000000	1.006968
3680.000000	1.007711
3679.000000	1.008457
3678.000000	1.009184
3677.000000	1.009927
3676.000000	1.010706
3675.000000	1.011473
3674.000000	1.012201
3673.000000	1.012951
3672.000000	1.013764
3671.000000	1.014608
3670.000000	1.015419
3669.000000	1.016177
3668.000000	1.016929
3667.000000	1.017725
3666.000000	1.018552
3665.000000	1.019371
3664.000000	1.020166
3663.000000	1.020947
3662.000000	1.021721
3661.000000	1.022476
3660.000000	1.023197
3659.000000	1.023892
3658.000000	1.024595
3657.000000	1.025319
3656.000000	1.026026
3655.000000	1.026673
3654.000000	1.027278
3653.000000	1.027896
3652.000000	1.028554
3651.000000	1.029238
3650.000000	1.029923
3649.000000	1.030605
3648.000000	1.031291
3647.000000	1.031967
3646.000000	1.032598
3645.000000	1.033168
3644.000000	1.033687
3643.000000	1.034179
3642.000000	1.034657
3641.000000	1.035128
3640.000000	1.035603
3639.000000	1.036082
3638.000000	1.036550
3637.000000	1.036992
3636.000000	1.037423
3635.000000	1.037860
3634.000000	1.038297
3633.000000	1.038703
3632.000000	1.039069
3631.000000	1.039420
3630.000000	1.039786
3629.000000	1.040145
3628.000000	1.040451
3627.000000	1.040718
3626.000000	1.040998
3625.000000	1.041293
3624.000000	1.041571
3623.000000	1.041812
3622.000000	1.042031
3621.000000	1.042249
3620.000000	1.042477
3619.000000	1.042708
3618.000000	1.042929
3617.000000	1.043140
3616.000000	1.043353
3615.000000	1.043587
3614.000000	1.043851
3613.000000	1.044141
3612.000000	1.044444
3611.000000	1.044740
3610.000000	1.044994
3609.000000	1.045174
3608.000000	1.045271
3607.000000	1.045327
3606.000000	1.045402
3605.000000	1.045521
3604.000000	1.045660
3603.000000	1.045790
3602.000000	1.045902
3601.000000	1.046002
3600.000000	1.046088
3599.000000	1.046162
3598.000000	1.046229
3597.000000	1.046306
3596.000000	1.046408
3595.000000	1.046537
3594.000000	1.046681
3593.000000	1.046816
3592.000000	1.046915
3591.000000	1.046968
3590.000000	1.046991
3589.000000	1.047027
3588.000000	1.047104
3587.000000	1.047207
3586.000000	1.047300
3585.000000	1.047367
3584.000000	1.047416
3583.000000	1.047461
3582.000000	1.047493
3581.000000	1.047499
3580.000000	1.047482
3579.000000	1.047473
3578.000000	1.047503
3577.000000	1.047570
3576.000000	1.047648
3575.000000	1.047711
3574.000000	1.047755
3573.000000	1.047781
3572.000000	1.047791
3571.000000	1.047788
3570.000000	1.047786
3569.000000	1.047801
3568.000000	1.047832
3567.000000	1.047865
3566.000000	1.047890
3565.000000	1.047919
3564.000000	1.047964
3563.000000	1.048018
3562.000000	1.048067
3561.000000	1.048102
3560.000000	1.048126
3559.000000	1.048143
3558.000000	1.048158
3557.000000	1.048175
3556.000000	1.048194
3555.000000	1.048213
3554.000000	1.048224
3553.000000	1.048226
3552.000000	1.048232
3551.000000	1.048259
3550.000000	1.048308
3549.000000	1.048357
3548.000000	1.048390
3547.000000	1.048419
3546.000000	1.048477
3545.000000	1.048568
3544.000000	1.048655
3543.000000	1.048691
3542.000000	1.048668
3541.000000	1.048623
3540.000000	1.048608
3539.000000	1.048645
3538.000000	1.048717
3537.000000	1.048791
3536.000000	1.048841
3535.000000	1.048866
3534.000000	1.048884
3533.000000	1.048913
3532.000000	1.048960
3531.000000	1.049018
3530.000000	1.049083
3529.000000	1.049151
3528.000000	1.049215
3527.000000	1.049263
3526.000000	1.049285
3525.000000	1.049282
3524.000000	1.049268
3523.000000	1.049264
3522.000000	1.049286
3521.000000	1.049345
3520.000000	1.049441
3519.000000	1.049552
3518.000000	1.049640
3517.000000	1.049681
3516.000000	1.049698
3515.000000	1.049748
3514.000000	1.049865
3513.000000	1.050032
3512.000000	1.050195
3511.000000	1.050311
3510.000000	1.050373
3509.000000	1.050406
3508.000000	1.050439
3507.000000	1.050502
3506.000000	1.050608
3505.000000	1.050746
3504.000000	1.050885
3503.000000	1.051005
3502.000000	1.051103
3501.000000	1.051195
3500.000000	1.051289
3499.000000	1.051378
3498.000000	1.051450
3497.000000	1.051495
3496.000000	1.051517
3495.000000	1.051544
3494.000000	1.051612
3493.000000	1.051740
3492.000000	1.051907
3491.000000	1.052064
3490.000000	1.052172
3489.000000	1.052232
3488.000000	1.052278
3487.000000	1.052343
3486.000000	1.052439
3485.000000	1.052555
3484.000000	1.052673
3483.000000	1.052774
3482.000000	1.052854
3481.000000	1.052923
3480.000000	1.053003
3479.000000	1.053110
3478.000000	1.053245
3477.000000	1.053390
3476.000000	1.053529
3475.000000	1.053653
3474.000000	1.053771
3473.000000	1.053893
3472.000000	1.054018
3471.000000	1.054124
3470.000000	1.054197
3469.000000	1.054246
3468.000000	1.054305
3467.000000	1.054406
3466.000000	1.054555
3465.000000	1.054734
3464.000000	1.054920
3463.000000	1.055099
3462.000000	1.055270
3461.000000	1.055432
3460.000000	1.055587
3459.000000	1.055732
3458.000000	1.055864
3457.000000	1.055976
3456.000000	1.056070
3455.000000	1.056164
3454.000000	1.056282
3453.000000	1.056438
3452.000000	1.056619
3451.000000	1.056795
3450.000000	1.056948
3449.000000	1.057082
3448.000000	1.057220
3447.000000	1.057364
3446.000000	1.057499
3445.000000	1.057610
3444.000000	1.057707
3443.000000	1.057815
3442.000000	1.057952
3441.000000	1.058118
3440.000000	1.058298
3439.000000	1.058469
3438.000000	1.058612
3437.000000	1.058724
3436.000000	1.058820
3435.000000	1.058932
3434.000000	1.059083
3433.000000	1.059268
3432.000000	1.059458
3431.000000	1.059618
3430.000000	1.059741
3429.000000	1.059853
3428.000000	1.059991
3427.000000	1.060156
3426.000000	1.060309
3425.000000	1.060416
3424.000000	1.060489
3423.000000	1.060578
3422.000000	1.060716
3421.000000	1.060887
3420.000000	1.061052
3419.000000	1.061190
3418.000000	1.061306
3417.000000	1.061415
3416.000000	1.061524
3415.000000	1.061640
3414.000000	1.061762
3413.000000	1.061883
3412.000000	1.061996
3411.000000	1.062101
3410.000000	1.062203
3409.000000	1.062298
3408.000000	1.062383
3407.000000	1.062463
3406.000000	1.062551
3405.000000	1.062652
3404.000000	1.062760
3403.000000	1.062863
3402.000000	1.062949
3401.000000	1.063013
3400.000000	1.063055
3399.000000	1.063088
3398.000000	1.063129
3397.000000	1.063183
3396.000000	1.063251
3395.000000	1.063330
3394.000000	1.063421
3393.000000	1.063516
3392.000000	1.063605
3391.000000	1.063684
3390.000000	1.063762
3389.000000	1.063836
3388.000000	1.063894
3387.000000	1.063921
3386.000000	1.063925
3385.000000	1.063924
3384.000000	1.063930
3383.000000	1.063946
3382.000000	1.063975
3381.000000	1.064029
3380.000000	1.064111
3379.000000	1.064212
3378.000000	1.064319
3377.000000	1.064420
3376.000000	1.064505
3375.000000	1.064568
3374.000000	1.064610
3373.000000	1.064644
3372.000000	1.064679
3371.000000	1.064713
3370.000000	1.064731
3369.000000	1.064730
3368.000000	1.064721
3367.000000	1.064725
3366.000000	1.064750
3365.000000	1.064797
3364.000000	1.064866
3363.000000	1.064955
3362.000000	1.065048
3361.000000	1.065114
3360.000000	1.065132
3359.000000	1.065110
3358.000000	1.065085
3357.000000	1.065086
3356.000000	1.065120
3355.000000	1.065175
3354.000000	1.065241
3353.000000	1.065308
3352.000000	1.065368
3351.000000	1.065417
3350.000000	1.065457
3349.000000	1.065489
3348.000000	1.065512
3347.000000	1.065525
3346.000000	1.065532
3345.000000	1.065540
3344.000000	1.065544
3343.000000	1.065529
3342.000000	1.065494
3341.000000	1.065461
3340.000000	1.065465
3339.000000	1.065519
3338.000000	1.065598
3337.000000	1.065655
3336.000000	1.065665
3335.000000	1.065642
3334.000000	1.065622
3333.000000	1.065620
3332.000000	1.065624
3331.000000	1.065612
3330.000000	1.065589
3329.000000	1.065584
3328.000000	1.065618
3327.000000	1.065685
3326.000000	1.065755
3325.000000	1.065805
3324.000000	1.065834
3323.000000	1.065863
3322.000000	1.065916
3321.000000	1.065995
3320.000000	1.066081
3319.000000	1.066149
3318.000000	1.066190
3317.000000	1.066214
3316.000000	1.066241
3315.000000	1.066288
3314.000000	1.066363
3313.000000	1.066449
3312.000000	1.066519
3311.000000	1.066547
3310.000000	1.066537
3309.000000	1.066520
3308.000000	1.066525
3307.000000	1.066562
3306.000000	1.066622
3305.000000	1.066694
3304.000000	1.066759
3303.000000	1.066795
3302.000000	1.066783
3301.000000	1.066736
3300.000000	1.066699
3299.000000	1.066712
3298.000000	1.066782
3297.000000	1.066881
3296.000000	1.066969
3295.000000	1.067032
3294.000000	1.067081
3293.000000	1.067135
3292.000000	1.067195
3291.000000	1.067239
3290.000000	1.067251
3289.000000	1.067236
3288.000000	1.067222
3287.000000	1.067230
3286.000000	1.067259
3285.000000	1.067290
3284.000000	1.067312
3283.000000	1.067327
3282.000000	1.067353
3281.000000	1.067407
3280.000000	1.067487
3279.000000	1.067567
3278.000000	1.067621
3277.000000	1.067641
3276.000000	1.067640
3275.000000	1.067638
3274.000000	1.067643
3273.000000	1.067657
3272.000000	1.067685
3271.000000	1.067728
3270.000000	1.067785
3269.000000	1.067852
3268.000000	1.067923
3267.000000	1.067986
3266.000000	1.068023
3265.000000	1.068030
3264.000000	1.068029
3263.000000	1.068049
3262.000000	1.068088
3261.000000	1.068123
3260.000000	1.068137
3259.000000	1.068142
3258.000000	1.068169
3257.000000	1.068231
3256.000000	1.068315
3255.000000	1.068401
3254.000000	1.068481
3253.000000	1.068548
3252.000000	1.068594
3251.000000	1.068605
3250.000000	1.068583
3249.000000	1.068556
3248.000000	1.068564
3247.000000	1.068625
3246.000000	1.068709
3245.000000	1.068764
3244.000000	1.068759
3243.000000	1.068718
3242.000000	1.068697
3241.000000	1.068744
3240.000000	1.068859
3239.000000	1.068998
3238.000000	1.069105
3237.000000	1.069151
3236.000000	1.069146
3235.000000	1.069124
3234.000000	1.069117
3233.000000	1.069145
3232.000000	1.069206
3231.000000	1.069281
3230.000000	1.069349
3229.000000	1.069401
3228.000000	1.069442
3227.000000	1.069477
3226.000000	1.069505
3225.000000	1.069516
3224.000000	1.069509
3223.000000	1.069498
3222.000000	1.069498
3221.000000	1.069516
3220.000000	1.069547
3219.000000	1.069586
3218.000000	1.069635
3217.000000	1.069700
3216.000000	1.069770
3215.000000	1.069815
3214.000000	1.069798
3213.000000	1.069717
3212.000000	1.069615
3211.000000	1.069549
3210.000000	1.069541
3209.000000	1.069574
3208.000000	1.069619
3207.000000	1.069654
3206.000000	1.069661
3205.000000	1.069628
3204.000000	1.069560
3203.000000	1.069488
3202.000000	1.069445
3201.000000	1.069440
3200.000000	1.069462
3199.000000	1.069500
3198.000000	1.069548
3197.000000	1.069597
3196.000000	1.069635
3195.000000	1.069660
3194.000000	1.069684
3193.000000	1.069710
3192.000000	1.069727
3191.000000	1.069711
3190.000000	1.069655
3189.000000	1.069580
3188.000000	1.069519
3187.000000	1.069496
3186.000000	1.069512
3185.000000	1.069544
3184.000000	1.069566
3183.000000	1.069570
3182.000000	1.069568
3181.000000	1.069572
3180.000000	1.069579
3179.000000	1.069574
3178.000000	1.069545
3177.000000	1.069499
3176.000000	1.069452
3175.000000	1.069423
3174.000000	1.069414
3173.000000	1.069414
3172.000000	1.069405
3171.000000	1.069377
3170.000000	1.069340
3169.000000	1.069309
3168.000000	1.069295
3167.000000	1.069297
3166.000000	1.069311
3165.000000	1.069342
3164.000000	1.069395
3163.000000	1.069461
3162.000000	1.069514
3161.000000	1.069534
3160.000000	1.069523
3159.000000	1.069502
3158.000000	1.069494
3157.000000	1.069498
3156.000000	1.069489
3155.000000	1.069444
3154.000000	1.069370
3153.000000	1.069309
3152.000000	1.069301
3151.000000	1.069347
3150.000000	1.069413
3149.000000	1.069474
3148.000000	1.069533
3147.000000	1.069598
3146.000000	1.069649
3145.000000	1.069656
3144.000000	1.069608
3143.000000	1.069535
3142.000000	1.069478
3141.000000	1.069454
3140.000000	1.069451
3139.000000	1.069447
3138.000000	1.069436
3137.000000	1.069428
3136.000000	1.069431
3135.000000	1.069429
3134.000000	1.069398
3133.000000	1.069338
3132.000000	1.069287
3131.000000	1.069287
3130.000000	1.069344
3129.000000	1.069423
3128.000000	1.069487
3127.000000	1.069524
3126.000000	1.069538
3125.000000	1.069532
3124.000000	1.069503
3123.000000	1.069459
3122.000000	1.069417
3121.000000	1.069391
3120.000000	1.069381
3119.000000	1.069381
3118.000000	1.069383
3117.000000	1.069381
3116.000000	1.069371
3115.000000	1.069352
3114.000000	1.069328
3113.000000	1.069317
3112.000000	1.069339
3111.000000	1.069391
3110.000000	1.069439
3109.000000	1.069438
3108.000000	1.069371
3107.000000	1.069259
3106.000000	1.069141
3105.000000	1.069038
3104.000000	1.068953
3103.000000	1.068890
3102.000000	1.068860
3101.000000	1.068870
3100.000000	1.068902
3099.000000	1.068924
3098.000000	1.068904
3097.000000	1.068835
3096.000000	1.068740
3095.000000	1.068651
3094.000000	1.068587
3093.000000	1.068542
3092.000000	1.068499
3091.000000	1.068455
3090.000000	1.068418
3089.000000	1.068389
3088.000000	1.068357
3087.000000	1.068304
3086.000000	1.068227
3085.000000	1.068141
3084.000000	1.068063
3083.000000	1.067995
3082.000000	1.067926
3081.000000	1.067842
3080.000000	1.067742
3079.000000	1.067643
3078.000000	1.067563
3077.000000	1.067510
3076.000000	1.067471
3075.000000	1.067424
3074.000000	1.067362
3073.000000	1.067292
3072.000000	1.067229
3071.000000	1.067174
3070.000000	1.067109
3069.000000	1.067023
3068.000000	1.066921
3067.000000	1.066822
3066.000000	1.066741
3065.000000	1.066676
3064.000000	1.066612
3063.000000	1.066538
3062.000000	1.066454
3061.000000	1.066364
3060.000000	1.066270
3059.000000	1.066169
3058.000000	1.066067
3057.000000	1.065988
3056.000000	1.065950
3055.000000	1.065946
3054.000000	1.065940
3053.000000	1.065892
3052.000000	1.065790
3051.000000	1.065653
3050.000000	1.065517
3049.000000	1.065411
3048.000000	1.065346
3047.000000	1.065308
3046.000000	1.065271
3045.000000	1.065205
3044.000000	1.065098
3043.000000	1.064962
3042.000000	1.064832
3041.000000	1.064740
3040.000000	1.064695
3039.000000	1.064681
3038.000000	1.064666
3037.000000	1.064627
3036.000000	1.064555
3035.000000	1.064457
3034.000000	1.064352
3033.000000	1.064260
3032.000000	1.064197
3031.000000	1.064153
3030.000000	1.064108
3029.000000	1.064047
3028.000000	1.063973
3027.000000	1.063895
3026.000000	1.063811
3025.000000	1.063708
3024.000000	1.063594
3023.000000	1.063483
3022.000000	1.063385
3021.000000	1.063293
3020.000000	1.063197
3019.000000	1.063097
3018.000000	1.062995
3017.000000	1.062893
3016.000000	1.062792
3015.000000	1.062693
3014.000000	1.062590
3013.000000	1.062480
3012.000000	1.062370
3011.000000	1.062273
3010.000000	1.062195
3009.000000	1.062127
3008.000000	1.062058
3007.000000	1.061985
3006.000000	1.061909
3005.000000	1.061828
3004.000000	1.061738
3003.000000	1.061635
3002.000000	1.061515
3001.000000	1.061369
3000.000000	1.061193
2999.000000	1.061000
2998.000000	1.060819
2997.000000	1.060677
2996.000000	1.060582
2995.000000	1.060513
2994.000000	1.060429
2993.000000	1.060307
2992.000000	1.060157
2991.000000	1.060013
2990.000000	1.059894
2989.000000	1.059784
2988.000000	1.059664
2987.000000	1.059534
2986.000000	1.059411
2985.000000	1.059295
2984.000000	1.059170
2983.000000	1.059020
2982.000000	1.058842
2981.000000	1.058647
2980.000000	1.058450
2979.000000	1.058274
2978.000000	1.058126
2977.000000	1.057996
2976.000000	1.057866
2975.000000	1.057736
2974.000000	1.057611
2973.000000	1.057488
2972.000000	1.057343
2971.000000	1.057166
2970.000000	1.056979
2969.000000	1.056815
2968.000000	1.056684
2967.000000	1.056561
2966.000000	1.056412
2965.000000	1.056232
2964.000000	1.056042
2963.000000	1.055869
2962.000000	1.055715
2961.000000	1.055551
2960.000000	1.055346
2959.000000	1.055104
2958.000000	1.054867
2957.000000	1.054667
2956.000000	1.054494
2955.000000	1.054308
2954.000000	1.054088
2953.000000	1.053852
2952.000000	1.053618
2951.000000	1.053388
2950.000000	1.053156
2949.000000	1.052931
2948.000000	1.052728
2947.000000	1.052540
2946.000000	1.052344
2945.000000	1.052140
2944.000000	1.051950
2943.000000	1.051787
2942.000000	1.051621
2941.000000	1.051417
2940.000000	1.051175
2939.000000	1.050932
2938.000000	1.050715
2937.000000	1.050521
2936.000000	1.050334
2935.000000	1.050150
2934.000000	1.049971
2933.000000	1.049799
2932.000000	1.049639
2931.000000	1.049492
2930.000000	1.049340
2929.000000	1.049150
2928.000000	1.048902
2927.000000	1.048617
2926.000000	1.048333
2925.000000	1.048076
2924.000000	1.047845
2923.000000	1.047631
2922.000000	1.047429
2921.000000	1.047230
2920.000000	1.047021
2919.000000	1.046796
2918.000000	1.046562
2917.000000	1.046333
2916.000000	1.046118
2915.000000	1.045922
2914.000000	1.045746
2913.000000	1.045582
2912.000000	1.045410
2911.000000	1.045214
2910.000000	1.045000
2909.000000	1.044789
2908.000000	1.044593
2907.000000	1.044404
2906.000000	1.044210
2905.000000	1.044014
2904.000000	1.043830
2903.000000	1.043659
2902.000000	1.043475
2901.000000	1.043253
2900.000000	1.042985
2899.000000	1.042693
2898.000000	1.042408
2897.000000	1.042156
2896.000000	1.041948
2895.000000	1.041770
2894.000000	1.041599
2893.000000	1.041425
2892.000000	1.041259
2891.000000	1.041114
2890.000000	1.040983
2889.000000	1.040835
2888.000000	1.040646
2887.000000	1.040411
2886.000000	1.040149
2885.000000	1.039882
2884.000000	1.039632
2883.000000	1.039419
2882.000000	1.039247
2881.000000	1.039100
2880.000000	1.038962
2879.000000	1.038822
2878.000000	1.038680
2877.000000	1.038530
2876.000000	1.038366
2875.000000	1.038184
2874.000000	1.037993
2873.000000	1.037809
2872.000000	1.037642
2871.000000	1.037488
2870.000000	1.037335
2869.000000	1.037170
2868.000000	1.036989
2867.000000	1.036796
2866.000000	1.036597
2865.000000	1.036393
2864.000000	1.036188
2863.000000	1.035989
2862.000000	1.035802
2861.000000	1.035626
2860.000000	1.035458
2859.000000	1.035295
2858.000000	1.035139
2857.000000	1.034986
2856.000000	1.034824
2855.000000	1.034639
2854.000000	1.034439
2853.000000	1.034249
2852.000000	1.034093
2851.000000	1.033974
2850.000000	1.033873
2849.000000	1.033769
2848.000000	1.033655
2847.000000	1.033530
2846.000000	1.033400
2845.000000	1.033279
2844.000000	1.033186
2843.000000	1.033120
2842.000000	1.033053
2841.000000	1.032952
2840.000000	1.032803
2839.000000	1.032622
2838.000000	1.032429
2837.000000	1.032242
2836.000000	1.032074
2835.000000	1.031936
2834.000000	1.031833
2833.000000	1.031753
2832.000000	1.031673
2831.000000	1.031573
2830.000000	1.031448
2829.000000	1.031312
2828.000000	1.031186
2827.000000	1.031083
2826.000000	1.031000
2825.000000	1.030919
2824.000000	1.030833
2823.000000	1.030741
2822.000000	1.030638
2821.000000	1.030525
2820.000000	1.030405
2819.000000	1.030286
2818.000000	1.030167
2817.000000	1.030040
2816.000000	1.029904
2815.000000	1.029774
2814.000000	1.029661
2813.000000	1.029566
2812.000000	1.029479
2811.000000	1.029398
2810.000000	1.029332
2809.000000	1.029291
2808.000000	1.029271
2807.000000	1.029240
2806.000000	1.029159
2805.000000	1.029016
2804.000000	1.028847
2803.000000	1.028696
2802.000000	1.028575
2801.000000	1.028461
2800.000000	1.028340
2799.000000	1.028232
2798.000000	1.028156
2797.000000	1.028106
2796.000000	1.028056
2795.000000	1.027993
2794.000000	1.027924
2793.000000	1.027857
2792.000000	1.027793
2791.000000	1.027733
2790.000000	1.027685
2789.000000	1.027658
2788.000000	1.027645
2787.000000	1.027625
2786.000000	1.027576
2785.000000	1.027501
2784.000000	1.027428
2783.000000	1.027385
2782.000000	1.027370
2781.000000	1.027360
2780.000000	1.027334
2779.000000	1.027290
2778.000000	1.027233
2777.000000	1.027161
2776.000000	1.027074
2775.000000	1.026980
2774.000000	1.026889
2773.000000	1.026803
2772.000000	1.026723
2771.000000	1.026657
2770.000000	1.026608
2769.000000	1.026569
2768.000000	1.026531
2767.000000	1.026494
2766.000000	1.026461
2765.000000	1.026426
2764.000000	1.026377
2763.000000	1.026317
2762.000000	1.026260
2761.000000	1.026216
2760.000000	1.026182
2759.000000	1.026140
2758.000000	1.026076
2757.000000	1.025996
2756.000000	1.025926
2755.000000	1.025890
2754.000000	1.025886
2753.000000	1.025887
2752.000000	1.025876
2751.000000	1.025855
2750.000000	1.025833
2749.000000	1.025808
2748.000000	1.025778
2747.000000	1.025751
2746.000000	1.025735
2745.000000	1.025725
2744.000000	1.025709
2743.000000	1.025681
2742.000000	1.025647
2741.000000	1.025608
2740.000000	1.025569
2739.000000	1.025538
2738.000000	1.025521
2737.000000	1.025512
2736.000000	1.025500
2735.000000	1.025484
2734.000000	1.025471
2733.000000	1.025472
2732.000000	1.025489
2731.000000	1.025510
2730.000000	1.025511
2729.000000	1.025471
2728.000000	1.025393
2727.000000	1.025314
2726.000000	1.025267
2725.000000	1.025261
2724.000000	1.025283
2723.000000	1.025326
2722.000000	1.025382
2721.000000	1.025437
2720.000000	1.025469
2719.000000	1.025469
2718.000000	1.025447
2717.000000	1.025415
2716.000000	1.025384
2715.000000	1.025363
2714.000000	1.025360
2713.000000	1.025366
2712.000000	1.025364
2711.000000	1.025355
2710.000000	1.025359
2709.000000	1.025389
2708.000000	1.025433
2707.000000	1.025466
2706.000000	1.025474
2705.000000	1.025460
2704.000000	1.025436
2703.000000	1.025410
2702.000000	1.025394
2701.000000	1.025397
2700.000000	1.025422
2699.000000	1.025460
2698.000000	1.025501
2697.000000	1.025540
2696.000000	1.025585
2695.000000	1.025647
2694.000000	1.025717
2693.000000	1.025767
2692.000000	1.025773
2691.000000	1.025748
2690.000000	1.025732
2689.000000	1.025749
2688.000000	1.025786
2687.000000	1.025819
2686.000000	1.025844
2685.000000	1.025876
2684.000000	1.025928
2683.000000	1.025994
2682.000000	1.026055
2681.000000	1.026099
2680.000000	1.026123
2679.000000	1.026131
2678.000000	1.026127
2677.000000	1.026123
2676.000000	1.026135
2675.000000	1.026176
2674.000000	1.026247
2673.000000	1.026340
2672.000000	1.026443
2671.000000	1.026542
2670.000000	1.026618
2669.000000	1.026664
2668.000000	1.026690
2667.000000	1.026718
2666.000000	1.026759
2665.000000	1.026807
2664.000000	1.026863
2663.000000	1.026934
2662.000000	1.027021
2661.000000	1.027108
2660.000000	1.027171
2659.000000	1.027211
2658.000000	1.027248
2657.000000	1.027298
2656.000000	1.027363
2655.000000	1.027437
2654.000000	1.027507
2653.000000	1.027574
2652.000000	1.027649
2651.000000	1.027752
2650.000000	1.027880
2649.000000	1.028000
2648.000000	1.028080
2647.000000	1.028123
2646.000000	1.028167
2645.000000	1.028246
2644.000000	1.028368
2643.000000	1.028511
2642.000000	1.028635
2641.000000	1.028707
2640.000000	1.028723
2639.000000	1.028724
2638.000000	1.028761
2637.000000	1.028856
2636.000000	1.028985
2635.000000	1.029114
2634.000000	1.029229
2633.000000	1.029336
2632.000000	1.029441
2631.000000	1.029542
2630.000000	1.029626
2629.000000	1.029687
2628.000000	1.029735
2627.000000	1.029795
2626.000000	1.029886
2625.000000	1.029997
2624.000000	1.030101
2623.000000	1.030184
2622.000000	1.030260
2621.000000	1.030343
2620.000000	1.030432
2619.000000	1.030520
2618.000000	1.030605
2617.000000	1.030701
2616.000000	1.030817
2615.000000	1.030952
2614.000000	1.031091
2613.000000	1.031220
2612.000000	1.031342
2611.000000	1.031473
2610.000000	1.031618
2609.000000	1.031753
2608.000000	1.031854
2607.000000	1.031919
2606.000000	1.031977
2605.000000	1.032059
2604.000000	1.032176
2603.000000	1.032319
2602.000000	1.032471
2601.000000	1.032611
2600.000000	1.032724
2599.000000	1.032818
2598.000000	1.032914
2597.000000	1.033023
2596.000000	1.033138
2595.000000	1.033252
2594.000000	1.033372
2593.000000	1.033508
2592.000000	1.033656
2591.000000	1.033795
2590.000000	1.033918
2589.000000	1.034029
2588.000000	1.034144
2587.000000	1.034266
2586.000000	1.034388
2585.000000	1.034500
2584.000000	1.034605
2583.000000	1.034718
2582.000000	1.034847
2581.000000	1.034989
2580.000000	1.035130
2579.000000	1.035261
2578.000000	1.035384
2577.000000	1.035504
2576.000000	1.035630
2575.000000	1.035767
2574.000000	1.035912
2573.000000	1.036050
2572.000000	1.036169
2571.000000	1.036275
2570.000000	1.036392
2569.000000	1.036540
2568.000000	1.036716
2567.000000	1.036900
2566.000000	1.037069
2565.000000	1.037207
2564.000000	1.037318
2563.000000	1.037421
2562.000000	1.037533
2561.000000	1.037659
2560.000000	1.037803
2559.000000	1.037966
2558.000000	1.038147
2557.000000	1.038328
2556.000000	1.038496
2555.000000	1.038655
2554.000000	1.038819
2553.000000	1.038991
2552.000000	1.039165
2551.000000	1.039337
2550.000000	1.039505
2549.000000	1.039661
2548.000000	1.039792
2547.000000	1.039910
2546.000000	1.040044
2545.000000	1.040207
2544.000000	1.040389
2543.000000	1.040578
2542.000000	1.040774
2541.000000	1.040971
2540.000000	1.041140
2539.000000	1.041261
2538.000000	1.041359
2537.000000	1.041482
2536.000000	1.041659
2535.000000	1.041881
2534.000000	1.042122
2533.000000	1.042362
2532.000000	1.042586
2531.000000	1.042784
2530.000000	1.042961
2529.000000	1.043136
2528.000000	1.043323
2527.000000	1.043520
2526.000000	1.043710
2525.000000	1.043888
2524.000000	1.044063
2523.000000	1.044247
2522.000000	1.044446
2521.000000	1.044650
2520.000000	1.044843
2519.000000	1.045009
2518.000000	1.045148
2517.000000	1.045271
2516.000000	1.045397
2515.000000	1.045537
2514.000000	1.045687
2513.000000	1.045837
2512.000000	1.045987
2511.000000	1.046155
2510.000000	1.046346
2509.000000	1.046543
2508.000000	1.046719
2507.000000	1.046866
2506.000000	1.047004
2505.000000	1.047153
2504.000000	1.047312
2503.000000	1.047473
2502.000000	1.047629
2501.000000	1.047774
2500.000000	1.047905
2499.000000	1.048028
2498.000000	1.048152
2497.000000	1.048286
2496.000000	1.048429
2495.000000	1.048578
2494.000000	1.048722
2493.000000	1.048848
2492.000000	1.048947
2491.000000	1.049030
2490.000000	1.049118
2489.000000	1.049226
2488.000000	1.049348
2487.000000	1.049471
2486.000000	1.049586
2485.000000	1.049685
2484.000000	1.049768
2483.000000	1.049833
2482.000000	1.049884
2481.000000	1.049925
2480.000000	1.049962
2479.000000	1.050007
2478.000000	1.050078
2477.000000	1.050181
2476.000000	1.050301
2475.000000	1.050417
2474.000000	1.050509
2473.000000	1.050567
2472.000000	1.050595
2471.000000	1.050616
2470.000000	1.050659
2469.000000	1.050726
2468.000000	1.050794
2467.000000	1.050848
2466.000000	1.050898
2465.000000	1.050967
2464.000000	1.051052
2463.000000	1.051121
2462.000000	1.051142
2461.000000	1.051115
2460.000000	1.051065
2459.000000	1.051023
2458.000000	1.051001
2457.000000	1.050994
2456.000000	1.050996
2455.000000	1.051013
2454.000000	1.051052
2453.000000	1.051100
2452.000000	1.051130
2451.000000	1.051135
2450.000000	1.051126
2449.000000	1.051118
2448.000000	1.051104
2447.000000	1.051071
2446.000000	1.051023
2445.000000	1.050972
2444.000000	1.050922
2443.000000	1.050867
2442.000000	1.050808
2441.000000	1.050762
2440.000000	1.050748
2439.000000	1.050763
2438.000000	1.050785
2437.000000	1.050784
2436.000000	1.050744
2435.000000	1.050671
2434.000000	1.050586
2433.000000	1.050502
2432.000000	1.050422
2431.000000	1.050355
2430.000000	1.050308
2429.000000	1.050283
2428.000000	1.050266
2427.000000	1.050245
2426.000000	1.050211
2425.000000	1.050161
2424.000000	1.050093
2423.000000	1.050016
2422.000000	1.049951
2421.000000	1.049912
2420.000000	1.049889
2419.000000	1.049855
2418.000000	1.049799
2417.000000	1.049732
2416.000000	1.049672
2415.000000	1.049619
2414.000000	1.049559
2413.000000	1.049481
2412.000000	1.049389
2411.000000	1.049302
2410.000000	1.049243
2409.000000	1.049216
2408.000000	1.049205
2407.000000	1.049193
2406.000000	1.049171
2405.000000	1.049136
2404.000000	1.049082
2403.000000	1.049010
2402.000000	1.048932
2401.000000	1.048869
2400.000000	1.048840
2399.000000	1.048848
2398.000000	1.048875
2397.000000	1.048882
2396.000000	1.048850
2395.000000	1.048795
2394.000000	1.048760
2393.000000	1.048764
2392.000000	1.048780
2391.000000	1.048766
2390.000000	1.048717
2389.000000	1.048663
2388.000000	1.048642
2387.000000	1.048672
2386.000000	1.048751
2385.000000	1.048867
2384.000000	1.049000
2383.000000	1.049134
2382.000000	1.049256
2381.000000	1.049368
2380.000000	1.049463
2379.000000	1.049536
2378.000000	1.049578
2377.000000	1.049594
2376.000000	1.049590
2375.000000	1.049576
2374.000000	1.049570
2373.000000	1.049586
2372.000000	1.049627
2371.000000	1.049686
2370.000000	1.049763
2369.000000	1.049878
2368.000000	1.050042
2367.000000	1.050223
2366.000000	1.050388
2365.000000	1.050527
2364.000000	1.050628
2363.000000	1.050672
2362.000000	1.050699
2361.000000	1.050735
2360.000000	1.046238
2359.000000	1.046379
2358.000000	1.046568
2357.000000	1.046807
2356.000000	1.047096
2355.000000	1.047426
2354.000000	1.047785
2353.000000	1.048161
2352.000000	1.049391
2351.000000	1.049264
2350.000000	1.049602
2349.000000	1.050542
2348.000000	1.051649
2347.000000	1.052349
2346.000000	1.052370
2345.000000	1.051988
2344.000000	1.051917
2343.000000	1.052555
2342.000000	1.053796
2341.000000	1.054941
2340.000000	1.055512
2339.000000	1.055454
2338.000000	1.054928
2337.000000	1.054237
2336.000000	1.053589
2335.000000	1.053168
2334.000000	1.052960
2333.000000	1.052941
2332.000000	1.052948
2331.000000	1.052960
2330.000000	1.052897
2329.000000	1.052916
2328.000000	1.052938
2327.000000	1.053058
2326.000000	1.053182
2325.000000	1.053274
2324.000000	1.053273
2323.000000	1.053151
2322.000000	1.053030
2321.000000	1.052951
2320.000000	1.052925
2319.000000	1.052920
2318.000000	1.052903
2317.000000	1.052937
2316.000000	1.052962
2315.000000	1.053000
2314.000000	1.052952
2313.000000	1.052896
2312.000000	1.052805
2311.000000	1.052784
2310.000000	1.052783
2309.000000	1.052842
2308.000000	1.052877
2307.000000	1.052909
2306.000000	1.052903
2305.000000	1.052920
2304.000000	1.052947
2303.000000	1.053001
2302.000000	1.053026
2301.000000	1.053020
2300.000000	1.052947
2299.000000	1.052852
2298.000000	1.052746
2297.000000	1.052685
2296.000000	1.052643
2295.000000	1.052624
2294.000000	1.052596
2293.000000	1.052576
2292.000000	1.052568
2291.000000	1.052583
2290.000000	1.052619
2289.000000	1.052677
2288.000000	1.052749
2287.000000	1.052819
2286.000000	1.052869
2285.000000	1.052881
2284.000000	1.052865
2283.000000	1.052839
2282.000000	1.052838
2281.000000	1.052868
2280.000000	1.052918
2279.000000	1.052968
2278.000000	1.053023
2277.000000	1.053097
2276.000000	1.053185
2275.000000	1.053260
2274.000000	1.053296
2273.000000	1.053302
2272.000000	1.053299
2271.000000	1.053301
2270.000000	1.053306
2269.000000	1.053317
2268.000000	1.053345
2267.000000	1.053388
2266.000000	1.053431
2265.000000	1.053459
2264.000000	1.053480
2263.000000	1.053510
2262.000000	1.053555
2261.000000	1.053605
2260.000000	1.053656
2259.000000	1.053713
2258.000000	1.053784
2257.000000	1.053859
2256.000000	1.053924
2255.000000	1.053966
2254.000000	1.053983
2253.000000	1.053983
2252.000000	1.053989
2251.000000	1.054023
2250.000000	1.054085
2249.000000	1.054146
2248.000000	1.054169
2247.000000	1.054155
2246.000000	1.054140
2245.000000	1.054159
2244.000000	1.054218
2243.000000	1.054294
2242.000000	1.054354
2241.000000	1.054377
2240.000000	1.054370
2239.000000	1.054358
2238.000000	1.054371
2237.000000	1.054414
2236.000000	1.054468
2235.000000	1.054508
2234.000000	1.054518
2233.000000	1.054505
2232.000000	1.054485
2231.000000	1.054474
2230.000000	1.054474
2229.000000	1.054477
2228.000000	1.054487
2227.000000	1.054516
2226.000000	1.054571
2225.000000	1.054633
2224.000000	1.054672
2223.000000	1.054675
2222.000000	1.054649
2221.000000	1.054616
2220.000000	1.054596
2219.000000	1.054607
2218.000000	1.054648
2217.000000	1.054700
2216.000000	1.054741
2215.000000	1.054769
2214.000000	1.054802
2213.000000	1.054846
2212.000000	1.054890
2211.000000	1.054917
2210.000000	1.054919
2209.000000	1.054899
2208.000000	1.054871
2207.000000	1.054855
2206.000000	1.054861
2205.000000	1.054876
2204.000000	1.054877
2203.000000	1.054856
2202.000000	1.054832
2201.000000	1.054821
2200.000000	1.054824
2199.000000	1.054831
2198.000000	1.054830
2197.000000	1.054814
2196.000000	1.054776
2195.000000	1.054730
2194.000000	1.054707
2193.000000	1.054721
2192.000000	1.054753
2191.000000	1.054771
2190.000000	1.054758
2189.000000	1.054727
2188.000000	1.054694
2187.000000	1.054669
2186.000000	1.054654
2185.000000	1.054650
2184.000000	1.054655
2183.000000	1.054664
2182.000000	1.054667
2181.000000	1.054657
2180.000000	1.054630
2179.000000	1.054591
2178.000000	1.054547
2177.000000	1.054500
2176.000000	1.054451
2175.000000	1.054409
2174.000000	1.054383
2173.000000	1.054363
2172.000000	1.054326
2171.000000	1.054264
2170.000000	1.054192
2169.000000	1.054131
2168.000000	1.054080
2167.000000	1.054032
2166.000000	1.053993
2165.000000	1.053980
2164.000000	1.053989
2163.000000	1.054001
2162.000000	1.053995
2161.000000	1.053968
2160.000000	1.053924
2159.000000	1.053869
2158.000000	1.053805
2157.000000	1.053740
2156.000000	1.053682
2155.000000	1.053637
2154.000000	1.053596
2153.000000	1.053548
2152.000000	1.053483
2151.000000	1.053410
2150.000000	1.053342
2149.000000	1.053288
2148.000000	1.053249
2147.000000	1.053221
2146.000000	1.053194
2145.000000	1.053148
2144.000000	1.053063
2143.000000	1.052941
2142.000000	1.052812
2141.000000	1.052708
2140.000000	1.052639
2139.000000	1.052593
2138.000000	1.052551
2137.000000	1.052495
2136.000000	1.052413
2135.000000	1.052313
2134.000000	1.052214
2133.000000	1.052130
2132.000000	1.052058
2131.000000	1.051988
2130.000000	1.051912
2129.000000	1.051822
2128.000000	1.051717
2127.000000	1.051607
2126.000000	1.051511
2125.000000	1.051434
2124.000000	1.051356
2123.000000	1.051261
2122.000000	1.051159
2121.000000	1.051071
2120.000000	1.050999
2119.000000	1.050925
2118.000000	1.050836
2117.000000	1.050734
2116.000000	1.050625
2115.000000	1.050512
2114.000000	1.050393
2113.000000	1.050267
2112.000000	1.050141
2111.000000	1.050027
2110.000000	1.049934
2109.000000	1.049852
2108.000000	1.049758
2107.000000	1.049632
2106.000000	1.049471
2105.000000	1.049294
2104.000000	1.049122
2103.000000	1.048978
2102.000000	1.048870
2101.000000	1.048789
2100.000000	1.048711
2099.000000	1.048617
2098.000000	1.048506
2097.000000	1.048378
2096.000000	1.048232
2095.000000	1.048071
2094.000000	1.047912
2093.000000	1.047766
2092.000000	1.047626
2091.000000	1.047480
2090.000000	1.047334
2089.000000	1.047203
2088.000000	1.047092
2087.000000	1.046984
2086.000000	1.046862
2085.000000	1.046726
2084.000000	1.046581
2083.000000	1.046441
2082.000000	1.046310
2081.000000	1.046181
2080.000000	1.046040
2079.000000	1.045876
2078.000000	1.045693
2077.000000	1.045503
2076.000000	1.045324
2075.000000	1.045175
2074.000000	1.045069
2073.000000	1.044991
2072.000000	1.044900
2071.000000	1.044766
2070.000000	1.044591
2069.000000	1.044395
2068.000000	1.044197
2067.000000	1.044009
2066.000000	1.043840
2065.000000	1.043693
2064.000000	1.043555
2063.000000	1.043415
2062.000000	1.043279
2061.000000	1.043158
2060.000000	1.043048
2059.000000	1.042930
2058.000000	1.042796
2057.000000	1.042649
2056.000000	1.042496
2055.000000	1.042337
2054.000000	1.042175
2053.000000	1.042023
2052.000000	1.041881
2051.000000	1.041742
2050.000000	1.041599
2049.000000	1.041456
2048.000000	1.041320
2047.000000	1.041192
2046.000000	1.041074
2045.000000	1.040958
2044.000000	1.040828
2043.000000	1.040674
2042.000000	1.040506
2041.000000	1.040348
2040.000000	1.040213
2039.000000	1.040080
2038.000000	1.039930
2037.000000	1.039761
2036.000000	1.039593
2035.000000	1.039444
2034.000000	1.039313
2033.000000	1.039191
2032.000000	1.039070
2031.000000	1.038945
2030.000000	1.038816
2029.000000	1.038693
2028.000000	1.038592
2027.000000	1.038518
2026.000000	1.038454
2025.000000	1.038365
2024.000000	1.038227
2023.000000	1.038053
2022.000000	1.037879
2021.000000	1.037735
2020.000000	1.037620
2019.000000	1.037518
2018.000000	1.037417
2017.000000	1.037304
2016.000000	1.037171
2015.000000	1.037024
2014.000000	1.036886
2013.000000	1.036778
2012.000000	1.036699
2011.000000	1.036635
2010.000000	1.036577
2009.000000	1.036518
2008.000000	1.036441
2007.000000	1.036325
2006.000000	1.036173
2005.000000	1.036019
2004.000000	1.035898
2003.000000	1.035815
2002.000000	1.035745
2001.000000	1.035662
2000.000000	1.035554
1999.000000	1.035432
1998.000000	1.035317
1997.000000	1.035222
1996.000000	1.035145
1995.000000	1.035074
1994.000000	1.035002
1993.000000	1.034930
1992.000000	1.034859
1991.000000	1.034788
1990.000000	1.034717
1989.000000	1.034647
1988.000000	1.034581
1987.000000	1.034522
1986.000000	1.034472
1985.000000	1.034423
1984.000000	1.034357
1983.000000	1.034268
1982.000000	1.034171
1981.000000	1.034094
1980.000000	1.034052
1979.000000	1.034034
1978.000000	1.034016
1977.000000	1.033980
1976.000000	1.033923
1975.000000	1.033851
1974.000000	1.033767
1973.000000	1.033672
1972.000000	1.033567
1971.000000	1.033462
1970.000000	1.033371
1969.000000	1.033298
1968.000000	1.033240
1967.000000	1.033198
1966.000000	1.033172
1965.000000	1.033158
1964.000000	1.033148
1963.000000	1.033135
1962.000000	1.033115
1961.000000	1.033087
1960.000000	1.033058
1959.000000	1.033035
1958.000000	1.033017
1957.000000	1.032995
1956.000000	1.032961
1955.000000	1.032929
1954.000000	1.032909
1953.000000	1.032887
1952.000000	1.032846
1951.000000	1.032789
1950.000000	1.032739
1949.000000	1.032703
1948.000000	1.032669
1947.000000	1.032634
1946.000000	1.032615
1945.000000	1.032618
1944.000000	1.032618
1943.000000	1.032592
1942.000000	1.032549
1941.000000	1.032513
1940.000000	1.032494
1939.000000	1.032483
1938.000000	1.032472
1937.000000	1.032458
1936.000000	1.032438
1935.000000	1.032417
1934.000000	1.032409
1933.000000	1.032422
1932.000000	1.032443
1931.000000	1.032459
1930.000000	1.032472
1929.000000	1.032483
1928.000000	1.032483
1927.000000	1.032466
1926.000000	1.032450
1925.000000	1.032465
1924.000000	1.032503
1923.000000	1.032525
1922.000000	1.032512
1921.000000	1.032490
1920.000000	1.032494
1919.000000	1.032526
1918.000000	1.032558
1917.000000	1.032562
1916.000000	1.032536
1915.000000	1.032502
1914.000000	1.032487
1913.000000	1.032504
1912.000000	1.032541
1911.000000	1.032582
1910.000000	1.032617
1909.000000	1.032649
1908.000000	1.032675
1907.000000	1.032692
1906.000000	1.032710
1905.000000	1.032739
1904.000000	1.032778
1903.000000	1.032810
1902.000000	1.032830
1901.000000	1.032843
1900.000000	1.032861
1899.000000	1.032894
1898.000000	1.032948
1897.000000	1.033014
1896.000000	1.033068
1895.000000	1.033095
1894.000000	1.033119
1893.000000	1.033171
1892.000000	1.033247
1891.000000	1.033304
1890.000000	1.033315
1889.000000	1.033295
1888.000000	1.033278
1887.000000	1.033282
1886.000000	1.033307
1885.000000	1.033347
1884.000000	1.033393
1883.000000	1.033436
1882.000000	1.033479
1881.000000	1.033528
1880.000000	1.033584
1879.000000	1.033638
1878.000000	1.033685
1877.000000	1.033723
1876.000000	1.033752
1875.000000	1.033772
1874.000000	1.033797
1873.000000	1.033853
1872.000000	1.033944
1871.000000	1.034047
1870.000000	1.034127
1869.000000	1.034173
1868.000000	1.034192
1867.000000	1.034208
1866.000000	1.034244
1865.000000	1.034310
1864.000000	1.034395
1863.000000	1.034477
1862.000000	1.034544
1861.000000	1.034604
1860.000000	1.034665
1859.000000	1.034720
1858.000000	1.034763
1857.000000	1.034805
1856.000000	1.034873
1855.000000	1.034981
1854.000000	1.035111
1853.000000	1.035230
1852.000000	1.035304
1851.000000	1.035333
1850.000000	1.035344
1849.000000	1.035363
1848.000000	1.035412
1847.000000	1.035506
1846.000000	1.035641
1845.000000	1.035780
1844.000000	1.035875
1843.000000	1.035920
1842.000000	1.035962
1841.000000	1.036041
1840.000000	1.036153
1839.000000	1.036271
1838.000000	1.036377
1837.000000	1.036470
1836.000000	1.036554
1835.000000	1.036630
1834.000000	1.036700
1833.000000	1.036772
1832.000000	1.036852
1831.000000	1.036955
1830.000000	1.037087
1829.000000	1.037230
1828.000000	1.037360
1827.000000	1.037470
1826.000000	1.037569
1825.000000	1.037661
1824.000000	1.037751
1823.000000	1.037852
1822.000000	1.037984
1821.000000	1.038147
1820.000000	1.038315
1819.000000	1.038463
1818.000000	1.038590
1817.000000	1.038712
1816.000000	1.038832
1815.000000	1.038941
1814.000000	1.039044
1813.000000	1.039163
1812.000000	1.039310
1811.000000	1.039465
1810.000000	1.039599
1809.000000	1.039709
1808.000000	1.039806
1807.000000	1.039904
1806.000000	1.040023
1805.000000	1.040173
1804.000000	1.040343
1803.000000	1.040506
1802.000000	1.040657
1801.000000	1.040804
1800.000000	1.040948
1799.000000	1.041079
1798.000000	1.041191
1797.000000	1.041298
1796.000000	1.041411
1795.000000	1.041535
1794.000000	1.041678
1793.000000	1.041844
1792.000000	1.042016
1791.000000	1.042167
1790.000000	1.042289
1789.000000	1.042403
1788.000000	1.042536
1787.000000	1.042695
1786.000000	1.042870
1785.000000	1.043046
1784.000000	1.043205
1783.000000	1.043351
1782.000000	1.043509
1781.000000	1.043688
1780.000000	1.043878
1779.000000	1.044070
1778.000000	1.044268
1777.000000	1.044466
1776.000000	1.044651
1775.000000	1.044823
1774.000000	1.045004
1773.000000	1.045193
1772.000000	1.045355
1771.000000	1.045480
1770.000000	1.045598
1769.000000	1.045747
1768.000000	1.045939
1767.000000	1.046157
1766.000000	1.046369
1765.000000	1.046552
1764.000000	1.046700
1763.000000	1.046832
1762.000000	1.046981
1761.000000	1.047163
1760.000000	1.047367
1759.000000	1.047560
1758.000000	1.047718
1757.000000	1.047849
1756.000000	1.047971
1755.000000	1.048119
1754.000000	1.048315
1753.000000	1.048546
1752.000000	1.048775
1751.000000	1.048966
1750.000000	1.049113
1749.000000	1.049239
1748.000000	1.049365
1747.000000	1.049499
1746.000000	1.049650
1745.000000	1.049815
1744.000000	1.049993
1743.000000	1.050182
1742.000000	1.050375
1741.000000	1.050558
1740.000000	1.050721
1739.000000	1.050855
1738.000000	1.050971
1737.000000	1.051091
1736.000000	1.051230
1735.000000	1.051384
1734.000000	1.051526
1733.000000	1.051632
1732.000000	1.051715
1731.000000	1.051782
1730.000000	1.051845
1729.000000	1.051921
1728.000000	1.052016
1727.000000	1.052131
1726.000000	1.052258
1725.000000	1.052375
1724.000000	1.052460
1723.000000	1.052507
1722.000000	1.052533
1721.000000	1.052576
1720.000000	1.052656
1719.000000	1.052766
1718.000000	1.052891
1717.000000	1.053015
1716.000000	1.053122
1715.000000	1.053188
1714.000000	1.053198
1713.000000	1.053184
1712.000000	1.053181
1711.000000	1.053195
1710.000000	1.053226
1709.000000	1.053272
1708.000000	1.053314
1707.000000	1.053343
1706.000000	1.053382
1705.000000	1.053441
1704.000000	1.053495
1703.000000	1.053515
1702.000000	1.053531
1701.000000	1.053583
1700.000000	1.053638
1699.000000	1.053643
1698.000000	1.053604
1697.000000	1.053584
1696.000000	1.053624
1695.000000	1.053683
1694.000000	1.053741
1693.000000	1.053806
1692.000000	1.053879
1691.000000	1.053944
1690.000000	1.053983
1689.000000	1.053980
1688.000000	1.053930
1687.000000	1.053868
1686.000000	1.053849
1685.000000	1.053889
1684.000000	1.053933
1683.000000	1.053940
1682.000000	1.053953
1681.000000	1.053987
1680.000000	1.054020
1679.000000	1.054045
1678.000000	1.054063
1677.000000	1.054075
1676.000000	1.054072
1675.000000	1.054056
1674.000000	1.054047
1673.000000	1.054053
1672.000000	1.054076
1671.000000	1.054116
1670.000000	1.054164
1669.000000	1.054202
1668.000000	1.054222
1667.000000	1.054227
1666.000000	1.054221
1665.000000	1.054211
1664.000000	1.054211
1663.000000	1.054234
1662.000000	1.054285
1661.000000	1.054348
1660.000000	1.054398
1659.000000	1.054439
1658.000000	1.054480
1657.000000	1.054497
1656.000000	1.054468
1655.000000	1.054423
1654.000000	1.054406
1653.000000	1.054404
1652.000000	1.054399
1651.000000	1.054405
1650.000000	1.054403
1649.000000	1.054405
1648.000000	1.054445
1647.000000	1.054510
1646.000000	1.054555
1645.000000	1.054576
1644.000000	1.054585
1643.000000	1.054576
1642.000000	1.054562
1641.000000	1.054548
1640.000000	1.054531
1639.000000	1.054516
1638.000000	1.054512
1637.000000	1.054532
1636.000000	1.054569
1635.000000	1.054602
1634.000000	1.054621
1633.000000	1.054621
1632.000000	1.054602
1631.000000	1.054581
1630.000000	1.054569
1629.000000	1.054556
1628.000000	1.054532
1627.000000	1.054501
1626.000000	1.054482
1625.000000	1.054472
1624.000000	1.054449
1623.000000	1.054411
1622.000000	1.054384
1621.000000	1.054385
1620.000000	1.054391
1619.000000	1.054397
1618.000000	1.054431
1617.000000	1.054510
1616.000000	1.054601
1615.000000	1.054674
1614.000000	1.054721
1613.000000	1.054745
1612.000000	1.054743
1611.000000	1.054709
1610.000000	1.054658
1609.000000	1.054620
1608.000000	1.054621
1607.000000	1.054661
1606.000000	1.054721
1605.000000	1.054770
1604.000000	1.054795
1603.000000	1.054821
1602.000000	1.054859
1601.000000	1.054889
1600.000000	1.054887
1599.000000	1.054843
1598.000000	1.054770
1597.000000	1.054693
1596.000000	1.054643
1595.000000	1.054630
1594.000000	1.054641
1593.000000	1.054655
1592.000000	1.054675
1591.000000	1.054715
1590.000000	1.054774
1589.000000	1.054829
1588.000000	1.054862
1587.000000	1.054875
1586.000000	1.054874
1585.000000	1.054851
1584.000000	1.054797
1583.000000	1.054746
1582.000000	1.054744
1581.000000	1.054786
1580.000000	1.054827
1579.000000	1.054844
1578.000000	1.054850
1577.000000	1.054854
1576.000000	1.054847
1575.000000	1.054826
1574.000000	1.054808
1573.000000	1.054794
1572.000000	1.054786
1571.000000	1.054804
1570.000000	1.054856
1569.000000	1.054910
1568.000000	1.054929
1567.000000	1.054914
1566.000000	1.054886
1565.000000	1.054854
1564.000000	1.054814
1563.000000	1.054775
1562.000000	1.054754
1561.000000	1.054750
1560.000000	1.054738
1559.000000	1.054711
1558.000000	1.054668
1557.000000	1.054688
1556.000000	1.054784
1555.000000	1.054900
1554.000000	1.054982
1553.000000	1.054987
1552.000000	1.054934
1551.000000	1.054882
1550.000000	1.054853
1549.000000	1.054829
1548.000000	1.054805
1547.000000	1.054798
1546.000000	1.054815
1545.000000	1.054832
1544.000000	1.054827
1543.000000	1.054814
1542.000000	1.054816
1541.000000	1.054837
1540.000000	1.054842
1539.000000	1.054806
1538.000000	1.054763
1537.000000	1.054734
1536.000000	1.054710
1535.000000	1.054696
1534.000000	1.054702
1533.000000	1.054716
1532.000000	1.054734
1531.000000	1.054764
1530.000000	1.054793
1529.000000	1.054800
1528.000000	1.054773
1527.000000	1.054729
1526.000000	1.054703
1525.000000	1.054705
1524.000000	1.054723
1523.000000	1.054749
1522.000000	1.054779
1521.000000	1.054789
1520.000000	1.054759
1519.000000	1.054707
1518.000000	1.054665
1517.000000	1.054651
1516.000000	1.054657
1515.000000	1.054663
1514.000000	1.054665
1513.000000	1.054665
1512.000000	1.054672
1511.000000	1.054683
1510.000000	1.054692
1509.000000	1.054700
1508.000000	1.054719
1507.000000	1.054734
1506.000000	1.054730
1505.000000	1.054771
1504.000000	1.054846
1503.000000	1.054889
1502.000000	1.054893
1501.000000	1.054893
1500.000000	1.054903
