PE IR       SUBTECH     SPECTRUM    ASCII       PEDS        4.00        
   -1
TE108B1_014.ASC
20/02/21
15:14:38.00
20/02/21
15:14:38.00
Administrator
Sample 014 By Administrator Date Friday, February 21 2020
1500.000000
#HDR
-1
-1
#GR
cm-1
A
1.0
0.0
4000.000000
-1.000000
2501
8
1.074259
0.988057
#DATA
4000.000000	1.003118
3999.000000	1.003142
3998.000000	1.003153
3997.000000	1.003153
3996.000000	1.003143
3995.000000	1.003122
3994.000000	1.003088
3993.000000	1.003045
3992.000000	1.003002
3991.000000	1.002969
3990.000000	1.002955
3989.000000	1.002964
3988.000000	1.002993
3987.000000	1.003027
3986.000000	1.003047
3985.000000	1.003036
3984.000000	1.003000
3983.000000	1.002952
3982.000000	1.002908
3981.000000	1.002869
3980.000000	1.002829
3979.000000	1.002778
3978.000000	1.002711
3977.000000	1.002634
3976.000000	1.002558
3975.000000	1.002493
3974.000000	1.002441
3973.000000	1.002396
3972.000000	1.002351
3971.000000	1.002300
3970.000000	1.002237
3969.000000	1.002161
3968.000000	1.002080
3967.000000	1.002007
3966.000000	1.001946
3965.000000	1.001892
3964.000000	1.001833
3963.000000	1.001761
3962.000000	1.001677
3961.000000	1.001584
3960.000000	1.001481
3959.000000	1.001367
3958.000000	1.001249
3957.000000	1.001142
3956.000000	1.001058
3955.000000	1.000996
3954.000000	1.000942
3953.000000	1.000879
3952.000000	1.000798
3951.000000	1.000698
3950.000000	1.000589
3949.000000	1.000477
3948.000000	1.000365
3947.000000	1.000246
3946.000000	1.000112
3945.000000	0.999961
3944.000000	0.999810
3943.000000	0.999685
3942.000000	0.999594
3941.000000	0.999521
3940.000000	0.999444
3939.000000	0.999355
3938.000000	0.999258
3937.000000	0.999160
3936.000000	0.999056
3935.000000	0.998930
3934.000000	0.998779
3933.000000	0.998621
3932.000000	0.998484
3931.000000	0.998383
3930.000000	0.998306
3929.000000	0.998225
3928.000000	0.998112
3927.000000	0.997963
3926.000000	0.997801
3925.000000	0.997650
3924.000000	0.997520
3923.000000	0.997398
3922.000000	0.997258
3921.000000	0.997088
3920.000000	0.996895
3919.000000	0.996703
3918.000000	0.996535
3917.000000	0.996408
3916.000000	0.996317
3915.000000	0.996240
3914.000000	0.996147
3913.000000	0.996023
3912.000000	0.995880
3911.000000	0.995746
3910.000000	0.995633
3909.000000	0.995528
3908.000000	0.995396
3907.000000	0.995206
3906.000000	0.994952
3905.000000	0.994664
3904.000000	0.994393
3903.000000	0.994186
3902.000000	0.994058
3901.000000	0.993995
3900.000000	0.993963
3899.000000	0.993938
3898.000000	0.993906
3897.000000	0.993870
3896.000000	0.993828
3895.000000	0.993755
3894.000000	0.993620
3893.000000	0.993415
3892.000000	0.993189
3891.000000	0.993014
3890.000000	0.992918
3889.000000	0.992848
3888.000000	0.992720
3887.000000	0.992510
3886.000000	0.992289
3885.000000	0.992155
3884.000000	0.992136
3883.000000	0.992162
3882.000000	0.992137
3881.000000	0.992037
3880.000000	0.991917
3879.000000	0.991838
3878.000000	0.991800
3877.000000	0.991757
3876.000000	0.991684
3875.000000	0.991590
3874.000000	0.991480
3873.000000	0.991328
3872.000000	0.991108
3871.000000	0.990855
3870.000000	0.990656
3869.000000	0.990578
3868.000000	0.990596
3867.000000	0.990612
3866.000000	0.990553
3865.000000	0.990432
3864.000000	0.990328
3863.000000	0.990301
3862.000000	0.990344
3861.000000	0.990404
3860.000000	0.990436
3859.000000	0.990405
3858.000000	0.990254
3857.000000	0.989910
3856.000000	0.989357
3855.000000	0.988714
3854.000000	0.988211
3853.000000	0.988058
3852.000000	0.988291
3851.000000	0.988756
3850.000000	0.989221
3849.000000	0.989530
3848.000000	0.989655
3847.000000	0.989646
3846.000000	0.989561
3845.000000	0.989436
3844.000000	0.989304
3843.000000	0.989192
3842.000000	0.989093
3841.000000	0.988957
3840.000000	0.988741
3839.000000	0.988476
3838.000000	0.988267
3837.000000	0.988212
3836.000000	0.988322
3835.000000	0.988515
3834.000000	0.988686
3833.000000	0.988784
3832.000000	0.988832
3831.000000	0.988864
3830.000000	0.988886
3829.000000	0.988874
3828.000000	0.988827
3827.000000	0.988784
3826.000000	0.988778
3825.000000	0.988781
3824.000000	0.988722
3823.000000	0.988566
3822.000000	0.988373
3821.000000	0.988253
3820.000000	0.988251
3819.000000	0.988293
3818.000000	0.988266
3817.000000	0.988150
3816.000000	0.988057
3815.000000	0.988117
3814.000000	0.988344
3813.000000	0.988625
3812.000000	0.988824
3811.000000	0.988869
3810.000000	0.988773
3809.000000	0.988589
3808.000000	0.988405
3807.000000	0.988319
3806.000000	0.988369
3805.000000	0.988480
3804.000000	0.988512
3803.000000	0.988399
3802.000000	0.988232
3801.000000	0.988174
3800.000000	0.988308
3799.000000	0.988565
3798.000000	0.988812
3797.000000	0.988986
3796.000000	0.989117
3795.000000	0.989253
3794.000000	0.989396
3793.000000	0.989506
3792.000000	0.989559
3791.000000	0.989572
3790.000000	0.989581
3789.000000	0.989600
3788.000000	0.989627
3787.000000	0.989657
3786.000000	0.989697
3785.000000	0.989755
3784.000000	0.989828
3783.000000	0.989897
3782.000000	0.989932
3781.000000	0.989927
3780.000000	0.989912
3779.000000	0.989936
3778.000000	0.990025
3777.000000	0.990155
3776.000000	0.990282
3775.000000	0.990375
3774.000000	0.990434
3773.000000	0.990466
3772.000000	0.990473
3771.000000	0.990467
3770.000000	0.990474
3769.000000	0.990517
3768.000000	0.990590
3767.000000	0.990676
3766.000000	0.990768
3765.000000	0.990879
3764.000000	0.991008
3763.000000	0.991129
3762.000000	0.991206
3761.000000	0.991229
3760.000000	0.991227
3759.000000	0.991247
3758.000000	0.991322
3757.000000	0.991436
3756.000000	0.991526
3755.000000	0.991515
3754.000000	0.991367
3753.000000	0.991122
3752.000000	0.990885
3751.000000	0.990781
3750.000000	0.990883
3749.000000	0.991148
3748.000000	0.991417
3747.000000	0.991510
3746.000000	0.991382
3745.000000	0.991193
3744.000000	0.991200
3743.000000	0.991534
3742.000000	0.992081
3741.000000	0.992591
3740.000000	0.992877
3739.000000	0.992920
3738.000000	0.992829
3737.000000	0.992736
3736.000000	0.992720
3735.000000	0.992794
3734.000000	0.992928
3733.000000	0.993100
3732.000000	0.993315
3731.000000	0.993584
3730.000000	0.993883
3729.000000	0.994146
3728.000000	0.994320
3727.000000	0.994424
3726.000000	0.994523
3725.000000	0.994665
3724.000000	0.994846
3723.000000	0.995040
3722.000000	0.995239
3721.000000	0.995450
3720.000000	0.995681
3719.000000	0.995929
3718.000000	0.996191
3717.000000	0.996454
3716.000000	0.996688
3715.000000	0.996854
3714.000000	0.996941
3713.000000	0.996989
3712.000000	0.997089
3711.000000	0.997323
3710.000000	0.997715
3709.000000	0.998219
3708.000000	0.998757
3707.000000	0.999265
3706.000000	0.999712
3705.000000	1.000096
3704.000000	1.000430
3703.000000	1.000753
3702.000000	1.001118
3701.000000	1.001570
3700.000000	1.002108
3699.000000	1.002684
3698.000000	1.003241
3697.000000	1.003756
3696.000000	1.004241
3695.000000	1.004717
3694.000000	1.005181
3693.000000	1.005603
3692.000000	1.005948
3691.000000	1.006223
3690.000000	1.006499
3689.000000	1.006899
3688.000000	1.007521
3687.000000	1.008359
3686.000000	1.009292
3685.000000	1.010173
3684.000000	1.010931
3683.000000	1.011592
3682.000000	1.012225
3681.000000	1.012872
3680.000000	1.013517
3679.000000	1.014103
3678.000000	1.014595
3677.000000	1.015045
3676.000000	1.015590
3675.000000	1.016346
3674.000000	1.017284
3673.000000	1.018238
3672.000000	1.019057
3671.000000	1.019760
3670.000000	1.020499
3669.000000	1.021399
3668.000000	1.022435
3667.000000	1.023482
3666.000000	1.024439
3665.000000	1.025288
3664.000000	1.026067
3663.000000	1.026816
3662.000000	1.027558
3661.000000	1.028295
3660.000000	1.029015
3659.000000	1.029694
3658.000000	1.030329
3657.000000	1.030959
3656.000000	1.031634
3655.000000	1.032368
3654.000000	1.033097
3653.000000	1.033724
3652.000000	1.034197
3651.000000	1.034570
3650.000000	1.034966
3649.000000	1.035502
3648.000000	1.036208
3647.000000	1.037028
3646.000000	1.037867
3645.000000	1.038647
3644.000000	1.039334
3643.000000	1.039930
3642.000000	1.040459
3641.000000	1.040944
3640.000000	1.041404
3639.000000	1.041855
3638.000000	1.042297
3637.000000	1.042720
3636.000000	1.043119
3635.000000	1.043498
3634.000000	1.043863
3633.000000	1.044184
3632.000000	1.044405
3631.000000	1.044513
3630.000000	1.044600
3629.000000	1.044817
3628.000000	1.045252
3627.000000	1.045845
3626.000000	1.046445
3625.000000	1.046929
3624.000000	1.047257
3623.000000	1.047456
3622.000000	1.047568
3621.000000	1.047641
3620.000000	1.047745
3619.000000	1.047938
3618.000000	1.048221
3617.000000	1.048534
3616.000000	1.048802
3615.000000	1.048993
3614.000000	1.049128
3613.000000	1.049247
3612.000000	1.049367
3611.000000	1.049490
3610.000000	1.049625
3609.000000	1.049794
3608.000000	1.050012
3607.000000	1.050266
3606.000000	1.050515
3605.000000	1.050722
3604.000000	1.050879
3603.000000	1.051005
3602.000000	1.051122
3601.000000	1.051237
3600.000000	1.051346
3599.000000	1.051448
3598.000000	1.051544
3597.000000	1.051631
3596.000000	1.051703
3595.000000	1.051759
3594.000000	1.051813
3593.000000	1.051878
3592.000000	1.051947
3591.000000	1.051989
3590.000000	1.051977
3589.000000	1.051925
3588.000000	1.051887
3587.000000	1.051922
3586.000000	1.052043
3585.000000	1.052207
3584.000000	1.052348
3583.000000	1.052426
3582.000000	1.052449
3581.000000	1.052459
3580.000000	1.052496
3579.000000	1.052570
3578.000000	1.052662
3577.000000	1.052740
3576.000000	1.052784
3575.000000	1.052798
3574.000000	1.052803
3573.000000	1.052814
3572.000000	1.052823
3571.000000	1.052810
3570.000000	1.052763
3569.000000	1.052699
3568.000000	1.052661
3567.000000	1.052682
3566.000000	1.052763
3565.000000	1.052869
3564.000000	1.052961
3563.000000	1.053025
3562.000000	1.053069
3561.000000	1.053107
3560.000000	1.053138
3559.000000	1.053157
3558.000000	1.053169
3557.000000	1.053187
3556.000000	1.053220
3555.000000	1.053259
3554.000000	1.053282
3553.000000	1.053288
3552.000000	1.053298
3551.000000	1.053327
3550.000000	1.053367
3549.000000	1.053387
3548.000000	1.053378
3547.000000	1.053366
3546.000000	1.053392
3545.000000	1.053470
3544.000000	1.053574
3543.000000	1.053662
3542.000000	1.053706
3541.000000	1.053708
3540.000000	1.053687
3539.000000	1.053667
3538.000000	1.053664
3537.000000	1.053690
3536.000000	1.053750
3535.000000	1.053836
3534.000000	1.053928
3533.000000	1.054005
3532.000000	1.054051
3531.000000	1.054070
3530.000000	1.054072
3529.000000	1.054071
3528.000000	1.054081
3527.000000	1.054114
3526.000000	1.054178
3525.000000	1.054265
3524.000000	1.054359
3523.000000	1.054440
3522.000000	1.054496
3521.000000	1.054530
3520.000000	1.054555
3519.000000	1.054593
3518.000000	1.054663
3517.000000	1.054762
3516.000000	1.054873
3515.000000	1.054972
3514.000000	1.055049
3513.000000	1.055112
3512.000000	1.055176
3511.000000	1.055254
3510.000000	1.055345
3509.000000	1.055436
3508.000000	1.055513
3507.000000	1.055576
3506.000000	1.055631
3505.000000	1.055685
3504.000000	1.055738
3503.000000	1.055790
3502.000000	1.055850
3501.000000	1.055933
3500.000000	1.056045
3499.000000	1.056174
3498.000000	1.056307
3497.000000	1.056431
3496.000000	1.056543
3495.000000	1.056638
3494.000000	1.056714
3493.000000	1.056785
3492.000000	1.056870
3491.000000	1.056975
3490.000000	1.057083
3489.000000	1.057177
3488.000000	1.057252
3487.000000	1.057323
3486.000000	1.057406
3485.000000	1.057504
3484.000000	1.057612
3483.000000	1.057725
3482.000000	1.057836
3481.000000	1.057936
3480.000000	1.058029
3479.000000	1.058127
3478.000000	1.058241
3477.000000	1.058365
3476.000000	1.058483
3475.000000	1.058593
3474.000000	1.058712
3473.000000	1.058855
3472.000000	1.059018
3471.000000	1.059174
3470.000000	1.059306
3469.000000	1.059415
3468.000000	1.059523
3467.000000	1.059650
3466.000000	1.059799
3465.000000	1.059963
3464.000000	1.060124
3463.000000	1.060267
3462.000000	1.060389
3461.000000	1.060499
3460.000000	1.060609
3459.000000	1.060727
3458.000000	1.060852
3457.000000	1.060981
3456.000000	1.061117
3455.000000	1.061269
3454.000000	1.061441
3453.000000	1.061620
3452.000000	1.061783
3451.000000	1.061915
3450.000000	1.062027
3449.000000	1.062147
3448.000000	1.062297
3447.000000	1.062467
3446.000000	1.062625
3445.000000	1.062744
3444.000000	1.062831
3443.000000	1.062920
3442.000000	1.063044
3441.000000	1.063202
3440.000000	1.063375
3439.000000	1.063541
3438.000000	1.063696
3437.000000	1.063841
3436.000000	1.063976
3435.000000	1.064097
3434.000000	1.064203
3433.000000	1.064307
3432.000000	1.064424
3431.000000	1.064563
3430.000000	1.064712
3429.000000	1.064856
3428.000000	1.064984
3427.000000	1.065104
3426.000000	1.065231
3425.000000	1.065370
3424.000000	1.065518
3423.000000	1.065666
3422.000000	1.065810
3421.000000	1.065952
3420.000000	1.066092
3419.000000	1.066227
3418.000000	1.066350
3417.000000	1.066455
3416.000000	1.066548
3415.000000	1.066641
3414.000000	1.066744
3413.000000	1.066851
3412.000000	1.066956
3411.000000	1.067056
3410.000000	1.067149
3409.000000	1.067230
3408.000000	1.067294
3407.000000	1.067352
3406.000000	1.067425
3405.000000	1.067520
3404.000000	1.067624
3403.000000	1.067710
3402.000000	1.067771
3401.000000	1.067826
3400.000000	1.067902
3399.000000	1.068009
3398.000000	1.068129
3397.000000	1.068233
3396.000000	1.068303
3395.000000	1.068349
3394.000000	1.068392
3393.000000	1.068446
3392.000000	1.068509
3391.000000	1.068572
3390.000000	1.068634
3389.000000	1.068700
3388.000000	1.068773
3387.000000	1.068854
3386.000000	1.068938
3385.000000	1.069015
3384.000000	1.069072
3383.000000	1.069102
3382.000000	1.069110
3381.000000	1.069110
3380.000000	1.069118
3379.000000	1.069142
3378.000000	1.069182
3377.000000	1.069230
3376.000000	1.069276
3375.000000	1.069312
3374.000000	1.069344
3373.000000	1.069382
3372.000000	1.069425
3371.000000	1.069466
3370.000000	1.069504
3369.000000	1.069540
3368.000000	1.069579
3367.000000	1.069619
3366.000000	1.069655
3365.000000	1.069694
3364.000000	1.069739
3363.000000	1.069790
3362.000000	1.069833
3361.000000	1.069858
3360.000000	1.069866
3359.000000	1.069867
3358.000000	1.069876
3357.000000	1.069896
3356.000000	1.069927
3355.000000	1.069964
3354.000000	1.070009
3353.000000	1.070058
3352.000000	1.070105
3351.000000	1.070138
3350.000000	1.070154
3349.000000	1.070163
3348.000000	1.070179
3347.000000	1.070205
3346.000000	1.070235
3345.000000	1.070263
3344.000000	1.070288
3343.000000	1.070305
3342.000000	1.070310
3341.000000	1.070305
3340.000000	1.070301
3339.000000	1.070316
3338.000000	1.070357
3337.000000	1.070418
3336.000000	1.070480
3335.000000	1.070527
3334.000000	1.070555
3333.000000	1.070566
3332.000000	1.070563
3331.000000	1.070549
3330.000000	1.070534
3329.000000	1.070531
3328.000000	1.070546
3327.000000	1.070575
3326.000000	1.070608
3325.000000	1.070641
3324.000000	1.070672
3323.000000	1.070702
3322.000000	1.070731
3321.000000	1.070769
3320.000000	1.070826
3319.000000	1.070896
3318.000000	1.070966
3317.000000	1.071024
3316.000000	1.071072
3315.000000	1.071121
3314.000000	1.071172
3313.000000	1.071217
3312.000000	1.071246
3311.000000	1.071259
3310.000000	1.071261
3309.000000	1.071263
3308.000000	1.071274
3307.000000	1.071301
3306.000000	1.071344
3305.000000	1.071397
3304.000000	1.071454
3303.000000	1.071515
3302.000000	1.071583
3301.000000	1.071655
3300.000000	1.071714
3299.000000	1.071748
3298.000000	1.071768
3297.000000	1.071797
3296.000000	1.071839
3295.000000	1.071872
3294.000000	1.071872
3293.000000	1.071849
3292.000000	1.071843
3291.000000	1.071884
3290.000000	1.071961
3289.000000	1.072043
3288.000000	1.072104
3287.000000	1.072139
3286.000000	1.072152
3285.000000	1.072157
3284.000000	1.072169
3283.000000	1.072198
3282.000000	1.072233
3281.000000	1.072257
3280.000000	1.072263
3279.000000	1.072270
3278.000000	1.072300
3277.000000	1.072356
3276.000000	1.072415
3275.000000	1.072454
3274.000000	1.072475
3273.000000	1.072503
3272.000000	1.072555
3271.000000	1.072629
3270.000000	1.072706
3269.000000	1.072769
3268.000000	1.072812
3267.000000	1.072840
3266.000000	1.072856
3265.000000	1.072874
3264.000000	1.072907
3263.000000	1.072958
3262.000000	1.073011
3261.000000	1.073045
3260.000000	1.073057
3259.000000	1.073059
3258.000000	1.073072
3257.000000	1.073106
3256.000000	1.073162
3255.000000	1.073223
3254.000000	1.073273
3253.000000	1.073298
3252.000000	1.073297
3251.000000	1.073277
3250.000000	1.073247
3249.000000	1.073224
3248.000000	1.073225
3247.000000	1.073258
3246.000000	1.073307
3245.000000	1.073358
3244.000000	1.073408
3243.000000	1.073468
3242.000000	1.073538
3241.000000	1.073596
3240.000000	1.073626
3239.000000	1.073634
3238.000000	1.073641
3237.000000	1.073661
3236.000000	1.073691
3235.000000	1.073724
3234.000000	1.073756
3233.000000	1.073784
3232.000000	1.073809
3231.000000	1.073836
3230.000000	1.073873
3229.000000	1.073916
3228.000000	1.073955
3227.000000	1.073984
3226.000000	1.074011
3225.000000	1.074047
3224.000000	1.074094
3223.000000	1.074143
3222.000000	1.074179
3221.000000	1.074195
3220.000000	1.074193
3219.000000	1.074177
3218.000000	1.074159
3217.000000	1.074148
3216.000000	1.074150
3215.000000	1.074168
3214.000000	1.074198
3213.000000	1.074231
3212.000000	1.074254
3211.000000	1.074259
3210.000000	1.074250
3209.000000	1.074238
3208.000000	1.074230
3207.000000	1.074224
3206.000000	1.074217
3205.000000	1.074213
3204.000000	1.074218
3203.000000	1.074227
3202.000000	1.074222
3201.000000	1.074197
3200.000000	1.074165
3199.000000	1.074144
3198.000000	1.074144
3197.000000	1.074164
3196.000000	1.074192
3195.000000	1.074213
3194.000000	1.074213
3193.000000	1.074191
3192.000000	1.074169
3191.000000	1.074166
3190.000000	1.074177
3189.000000	1.074176
3188.000000	1.074142
3187.000000	1.074088
3186.000000	1.074044
3185.000000	1.074031
3184.000000	1.074042
3183.000000	1.074057
3182.000000	1.074061
3181.000000	1.074053
3180.000000	1.074036
3179.000000	1.074016
3178.000000	1.074001
3177.000000	1.074002
3176.000000	1.074019
3175.000000	1.074042
3174.000000	1.074058
3173.000000	1.074063
3172.000000	1.074063
3171.000000	1.074066
3170.000000	1.074070
3169.000000	1.074066
3168.000000	1.074057
3167.000000	1.074054
3166.000000	1.074063
3165.000000	1.074080
3164.000000	1.074093
3163.000000	1.074096
3162.000000	1.074088
3161.000000	1.074078
3160.000000	1.074072
3159.000000	1.074071
3158.000000	1.074072
3157.000000	1.074071
3156.000000	1.074064
3155.000000	1.074051
3154.000000	1.074036
3153.000000	1.074023
3152.000000	1.074021
3151.000000	1.074030
3150.000000	1.074043
3149.000000	1.074045
3148.000000	1.074033
3147.000000	1.074014
3146.000000	1.074002
3145.000000	1.074008
3144.000000	1.074026
3143.000000	1.074043
3142.000000	1.074049
3141.000000	1.074043
3140.000000	1.074038
3139.000000	1.074047
3138.000000	1.074070
3137.000000	1.074089
3136.000000	1.074087
3135.000000	1.074060
3134.000000	1.074025
3133.000000	1.074004
3132.000000	1.074007
3131.000000	1.074022
3130.000000	1.074036
3129.000000	1.074045
3128.000000	1.074057
3127.000000	1.074076
3126.000000	1.074090
3125.000000	1.074089
3124.000000	1.074080
3123.000000	1.074075
3122.000000	1.074073
3121.000000	1.074060
3120.000000	1.074028
3119.000000	1.073992
3118.000000	1.073975
3117.000000	1.073982
3116.000000	1.073996
3115.000000	1.073995
3114.000000	1.073974
3113.000000	1.073943
3112.000000	1.073915
3111.000000	1.073893
3110.000000	1.073867
3109.000000	1.073823
3108.000000	1.073762
3107.000000	1.073701
3106.000000	1.073659
3105.000000	1.073636
3104.000000	1.073619
3103.000000	1.073590
3102.000000	1.073546
3101.000000	1.073499
3100.000000	1.073466
3099.000000	1.073449
3098.000000	1.073428
3097.000000	1.073388
3096.000000	1.073327
3095.000000	1.073259
3094.000000	1.073194
3093.000000	1.073131
3092.000000	1.073073
3091.000000	1.073024
3090.000000	1.072983
3089.000000	1.072933
3088.000000	1.072863
3087.000000	1.072778
3086.000000	1.072691
3085.000000	1.072606
3084.000000	1.072515
3083.000000	1.072414
3082.000000	1.072310
3081.000000	1.072219
3080.000000	1.072150
3079.000000	1.072106
3078.000000	1.072077
3077.000000	1.072045
3076.000000	1.072004
3075.000000	1.071958
3074.000000	1.071914
3073.000000	1.071869
3072.000000	1.071810
3071.000000	1.071728
3070.000000	1.071635
3069.000000	1.071546
3068.000000	1.071468
3067.000000	1.071403
3066.000000	1.071347
3065.000000	1.071294
3064.000000	1.071235
3063.000000	1.071165
3062.000000	1.071090
3061.000000	1.071017
3060.000000	1.070944
3059.000000	1.070864
3058.000000	1.070775
3057.000000	1.070689
3056.000000	1.070614
3055.000000	1.070549
3054.000000	1.070483
3053.000000	1.070406
3052.000000	1.070321
3051.000000	1.070238
3050.000000	1.070167
3049.000000	1.070108
3048.000000	1.070052
3047.000000	1.069989
3046.000000	1.069908
3045.000000	1.069810
3044.000000	1.069706
3043.000000	1.069614
3042.000000	1.069543
3041.000000	1.069487
3040.000000	1.069433
3039.000000	1.069371
3038.000000	1.069307
3037.000000	1.069249
3036.000000	1.069195
3035.000000	1.069135
3034.000000	1.069067
3033.000000	1.068990
3032.000000	1.068908
3031.000000	1.068819
3030.000000	1.068733
3029.000000	1.068671
3028.000000	1.068641
3027.000000	1.068622
3026.000000	1.068581
3025.000000	1.068497
3024.000000	1.068384
3023.000000	1.068272
3022.000000	1.068181
3021.000000	1.068107
3020.000000	1.068038
3019.000000	1.067961
3018.000000	1.067873
3017.000000	1.067783
3016.000000	1.067698
3015.000000	1.067616
3014.000000	1.067527
3013.000000	1.067427
3012.000000	1.067323
3011.000000	1.067229
3010.000000	1.067149
3009.000000	1.067068
3008.000000	1.066971
3007.000000	1.066858
3006.000000	1.066747
3005.000000	1.066658
3004.000000	1.066588
3003.000000	1.066515
3002.000000	1.066410
3001.000000	1.066265
3000.000000	1.066099
2999.000000	1.065939
2998.000000	1.065803
2997.000000	1.065688
2996.000000	1.065584
2995.000000	1.065486
2994.000000	1.065392
2993.000000	1.065297
2992.000000	1.065191
2991.000000	1.065068
2990.000000	1.064929
2989.000000	1.064786
2988.000000	1.064654
2987.000000	1.064543
2986.000000	1.064448
2985.000000	1.064358
2984.000000	1.064262
2983.000000	1.064155
2982.000000	1.064038
2981.000000	1.063912
2980.000000	1.063781
2979.000000	1.063647
2978.000000	1.063510
2977.000000	1.063364
2976.000000	1.063212
2975.000000	1.063061
2974.000000	1.062918
2973.000000	1.062780
2972.000000	1.062639
2971.000000	1.062490
2970.000000	1.062335
2969.000000	1.062175
2968.000000	1.062010
2967.000000	1.061847
2966.000000	1.061698
2965.000000	1.061566
2964.000000	1.061439
2963.000000	1.061299
2962.000000	1.061139
2961.000000	1.060970
2960.000000	1.060803
2959.000000	1.060640
2958.000000	1.060474
2957.000000	1.060290
2956.000000	1.060082
2955.000000	1.059853
2954.000000	1.059614
2953.000000	1.059387
2952.000000	1.059187
2951.000000	1.059014
2950.000000	1.058848
2949.000000	1.058668
2948.000000	1.058470
2947.000000	1.058264
2946.000000	1.058069
2945.000000	1.057898
2944.000000	1.057749
2943.000000	1.057606
2942.000000	1.057442
2941.000000	1.057237
2940.000000	1.056999
2939.000000	1.056755
2938.000000	1.056528
2937.000000	1.056318
2936.000000	1.056117
2935.000000	1.055921
2934.000000	1.055737
2933.000000	1.055565
2932.000000	1.055401
2931.000000	1.055232
2930.000000	1.055048
2929.000000	1.054843
2928.000000	1.054622
2927.000000	1.054397
2926.000000	1.054179
2925.000000	1.053959
2924.000000	1.053725
2923.000000	1.053476
2922.000000	1.053227
2921.000000	1.052991
2920.000000	1.052774
2919.000000	1.052574
2918.000000	1.052386
2917.000000	1.052195
2916.000000	1.051985
2915.000000	1.051757
2914.000000	1.051532
2913.000000	1.051329
2912.000000	1.051145
2911.000000	1.050960
2910.000000	1.050760
2909.000000	1.050551
2908.000000	1.050341
2907.000000	1.050129
2906.000000	1.049908
2905.000000	1.049674
2904.000000	1.049437
2903.000000	1.049210
2902.000000	1.049002
2901.000000	1.048809
2900.000000	1.048617
2899.000000	1.048414
2898.000000	1.048203
2897.000000	1.047991
2896.000000	1.047787
2895.000000	1.047596
2894.000000	1.047417
2893.000000	1.047243
2892.000000	1.047062
2891.000000	1.046861
2890.000000	1.046638
2889.000000	1.046403
2888.000000	1.046173
2887.000000	1.045962
2886.000000	1.045772
2885.000000	1.045598
2884.000000	1.045425
2883.000000	1.045244
2882.000000	1.045048
2881.000000	1.044841
2880.000000	1.044632
2879.000000	1.044433
2878.000000	1.044249
2877.000000	1.044076
2876.000000	1.043901
2875.000000	1.043716
2874.000000	1.043521
2873.000000	1.043322
2872.000000	1.043125
2871.000000	1.042928
2870.000000	1.042734
2869.000000	1.042543
2868.000000	1.042358
2867.000000	1.042186
2866.000000	1.042029
2865.000000	1.041876
2864.000000	1.041699
2863.000000	1.041479
2862.000000	1.041225
2861.000000	1.040973
2860.000000	1.040754
2859.000000	1.040569
2858.000000	1.040395
2857.000000	1.040214
2856.000000	1.040028
2855.000000	1.039857
2854.000000	1.039715
2853.000000	1.039592
2852.000000	1.039469
2851.000000	1.039334
2850.000000	1.039191
2849.000000	1.039049
2848.000000	1.038908
2847.000000	1.038771
2846.000000	1.038644
2845.000000	1.038529
2844.000000	1.038410
2843.000000	1.038262
2842.000000	1.038080
2841.000000	1.037884
2840.000000	1.037707
2839.000000	1.037573
2838.000000	1.037478
2837.000000	1.037400
2836.000000	1.037312
2835.000000	1.037198
2834.000000	1.037062
2833.000000	1.036921
2832.000000	1.036795
2831.000000	1.036683
2830.000000	1.036575
2829.000000	1.036460
2828.000000	1.036333
2827.000000	1.036197
2826.000000	1.036056
2825.000000	1.035913
2824.000000	1.035775
2823.000000	1.035649
2822.000000	1.035538
2821.000000	1.035432
2820.000000	1.035321
2819.000000	1.035201
2818.000000	1.035082
2817.000000	1.034978
2816.000000	1.034888
2815.000000	1.034801
2814.000000	1.034700
2813.000000	1.034580
2812.000000	1.034448
2811.000000	1.034316
2810.000000	1.034194
2809.000000	1.034087
2808.000000	1.033993
2807.000000	1.033905
2806.000000	1.033817
2805.000000	1.033723
2804.000000	1.033627
2803.000000	1.033533
2802.000000	1.033446
2801.000000	1.033366
2800.000000	1.033286
2799.000000	1.033203
2798.000000	1.033116
2797.000000	1.033029
2796.000000	1.032947
2795.000000	1.032872
2794.000000	1.032796
2793.000000	1.032710
2792.000000	1.032607
2791.000000	1.032497
2790.000000	1.032398
2789.000000	1.032319
2788.000000	1.032254
2787.000000	1.032195
2786.000000	1.032143
2785.000000	1.032103
2784.000000	1.032066
2783.000000	1.032016
2782.000000	1.031946
2781.000000	1.031867
2780.000000	1.031794
2779.000000	1.031734
2778.000000	1.031679
2777.000000	1.031620
2776.000000	1.031553
2775.000000	1.031482
2774.000000	1.031417
2773.000000	1.031361
2772.000000	1.031313
2771.000000	1.031263
2770.000000	1.031209
2769.000000	1.031152
2768.000000	1.031100
2767.000000	1.031058
2766.000000	1.031022
2765.000000	1.030977
2764.000000	1.030905
2763.000000	1.030803
2762.000000	1.030695
2761.000000	1.030614
2760.000000	1.030573
2759.000000	1.030556
2758.000000	1.030541
2757.000000	1.030516
2756.000000	1.030485
2755.000000	1.030453
2754.000000	1.030419
2753.000000	1.030377
2752.000000	1.030320
2751.000000	1.030256
2750.000000	1.030202
2749.000000	1.030176
2748.000000	1.030174
2747.000000	1.030175
2746.000000	1.030158
2745.000000	1.030120
2744.000000	1.030072
2743.000000	1.030024
2742.000000	1.029981
2741.000000	1.029943
2740.000000	1.029909
2739.000000	1.029878
2738.000000	1.029853
2737.000000	1.029842
2736.000000	1.029847
2735.000000	1.029859
2734.000000	1.029864
2733.000000	1.029855
2732.000000	1.029835
2731.000000	1.029804
2730.000000	1.029763
2729.000000	1.029718
2728.000000	1.029679
2727.000000	1.029651
2726.000000	1.029632
2725.000000	1.029615
2724.000000	1.029602
2723.000000	1.029598
2722.000000	1.029605
2721.000000	1.029620
2720.000000	1.029633
2719.000000	1.029640
2718.000000	1.029638
2717.000000	1.029626
2716.000000	1.029605
2715.000000	1.029577
2714.000000	1.029548
2713.000000	1.029529
2712.000000	1.029520
2711.000000	1.029518
2710.000000	1.029518
2709.000000	1.029525
2708.000000	1.029543
2707.000000	1.029568
2706.000000	1.029589
2705.000000	1.029600
2704.000000	1.029605
2703.000000	1.029610
2702.000000	1.029618
2701.000000	1.029628
2700.000000	1.029641
2699.000000	1.029658
2698.000000	1.029680
2697.000000	1.029705
2696.000000	1.029729
2695.000000	1.029747
2694.000000	1.029753
2693.000000	1.029755
2692.000000	1.029768
2691.000000	1.029805
2690.000000	1.029858
2689.000000	1.029908
2688.000000	1.029942
2687.000000	1.029962
2686.000000	1.029982
2685.000000	1.030013
2684.000000	1.030058
2683.000000	1.030116
2682.000000	1.030178
2681.000000	1.030232
2680.000000	1.030269
2679.000000	1.030290
2678.000000	1.030302
2677.000000	1.030316
2676.000000	1.030342
2675.000000	1.030384
2674.000000	1.030432
2673.000000	1.030478
2672.000000	1.030514
2671.000000	1.030547
2670.000000	1.030582
2669.000000	1.030622
2668.000000	1.030666
2667.000000	1.030713
2666.000000	1.030761
2665.000000	1.030806
2664.000000	1.030848
2663.000000	1.030894
2662.000000	1.030950
2661.000000	1.031017
2660.000000	1.031087
2659.000000	1.031159
2658.000000	1.031238
2657.000000	1.031325
2656.000000	1.031415
2655.000000	1.031495
2654.000000	1.031562
2653.000000	1.031624
2652.000000	1.031691
2651.000000	1.031767
2650.000000	1.031852
2649.000000	1.031942
2648.000000	1.032028
2647.000000	1.032107
2646.000000	1.032181
2645.000000	1.032255
2644.000000	1.032329
2643.000000	1.032399
2642.000000	1.032463
2641.000000	1.032525
2640.000000	1.032594
2639.000000	1.032677
2638.000000	1.032777
2637.000000	1.032884
2636.000000	1.032986
2635.000000	1.033075
2634.000000	1.033159
2633.000000	1.033253
2632.000000	1.033357
2631.000000	1.033457
2630.000000	1.033541
2629.000000	1.033609
2628.000000	1.033678
2627.000000	1.033755
2626.000000	1.033840
2625.000000	1.033931
2624.000000	1.034030
2623.000000	1.034140
2622.000000	1.034256
2621.000000	1.034369
2620.000000	1.034472
2619.000000	1.034563
2618.000000	1.034647
2617.000000	1.034732
2616.000000	1.034827
2615.000000	1.034932
2614.000000	1.035044
2613.000000	1.035154
2612.000000	1.035261
2611.000000	1.035365
2610.000000	1.035468
2609.000000	1.035569
2608.000000	1.035668
2607.000000	1.035767
2606.000000	1.035868
2605.000000	1.035974
2604.000000	1.036078
2603.000000	1.036173
2602.000000	1.036260
2601.000000	1.036349
2600.000000	1.036452
2599.000000	1.036571
2598.000000	1.036699
2597.000000	1.036829
2596.000000	1.036962
2595.000000	1.037102
2594.000000	1.037249
2593.000000	1.037395
2592.000000	1.037529
2591.000000	1.037652
2590.000000	1.037768
2589.000000	1.037885
2588.000000	1.038007
2587.000000	1.038129
2586.000000	1.038243
2585.000000	1.038347
2584.000000	1.038456
2583.000000	1.038582
2582.000000	1.038724
2581.000000	1.038864
2580.000000	1.038984
2579.000000	1.039079
2578.000000	1.039164
2577.000000	1.039261
2576.000000	1.039387
2575.000000	1.039545
2574.000000	1.039717
2573.000000	1.039883
2572.000000	1.040034
2571.000000	1.040172
2570.000000	1.040304
2569.000000	1.040429
2568.000000	1.040546
2567.000000	1.040659
2566.000000	1.040782
2565.000000	1.040923
2564.000000	1.041083
2563.000000	1.041253
2562.000000	1.041427
2561.000000	1.041602
2560.000000	1.041773
2559.000000	1.041936
2558.000000	1.042089
2557.000000	1.042237
2556.000000	1.042389
2555.000000	1.042552
2554.000000	1.042718
2553.000000	1.042876
2552.000000	1.043022
2551.000000	1.043164
2550.000000	1.043316
2549.000000	1.043486
2548.000000	1.043671
2547.000000	1.043855
2546.000000	1.044027
2545.000000	1.044191
2544.000000	1.044364
2543.000000	1.044556
2542.000000	1.044752
2541.000000	1.044927
2540.000000	1.045074
2539.000000	1.045212
2538.000000	1.045360
2537.000000	1.045522
2536.000000	1.045689
2535.000000	1.045859
2534.000000	1.046039
2533.000000	1.046230
2532.000000	1.046427
2531.000000	1.046626
2530.000000	1.046823
2529.000000	1.047014
2528.000000	1.047195
2527.000000	1.047368
2526.000000	1.047543
2525.000000	1.047724
2524.000000	1.047904
2523.000000	1.048076
2522.000000	1.048235
2521.000000	1.048383
2520.000000	1.048529
2519.000000	1.048678
2518.000000	1.048841
2517.000000	1.049019
2516.000000	1.049205
2515.000000	1.049391
2514.000000	1.049573
2513.000000	1.049750
2512.000000	1.049923
2511.000000	1.050093
2510.000000	1.050264
2509.000000	1.050437
2508.000000	1.050606
2507.000000	1.050764
2506.000000	1.050916
2505.000000	1.051070
2504.000000	1.051238
2503.000000	1.051417
2502.000000	1.051593
2501.000000	1.051747
2500.000000	1.051874
2499.000000	1.051983
2498.000000	1.052090
2497.000000	1.052198
2496.000000	1.052306
2495.000000	1.052412
2494.000000	1.052523
2493.000000	1.052641
2492.000000	1.052756
2491.000000	1.052859
2490.000000	1.052952
2489.000000	1.053044
2488.000000	1.053138
2487.000000	1.053231
2486.000000	1.053322
2485.000000	1.053414
2484.000000	1.053511
2483.000000	1.053607
2482.000000	1.053694
2481.000000	1.053770
2480.000000	1.053836
2479.000000	1.053897
2478.000000	1.053957
2477.000000	1.054019
2476.000000	1.054087
2475.000000	1.054158
2474.000000	1.054231
2473.000000	1.054303
2472.000000	1.054372
2471.000000	1.054428
2470.000000	1.054462
2469.000000	1.054475
2468.000000	1.054483
2467.000000	1.054499
2466.000000	1.054531
2465.000000	1.054576
2464.000000	1.054627
2463.000000	1.054678
2462.000000	1.054721
2461.000000	1.054747
2460.000000	1.054753
2459.000000	1.054746
2458.000000	1.054736
2457.000000	1.054734
2456.000000	1.054742
2455.000000	1.054760
2454.000000	1.054784
2453.000000	1.054805
2452.000000	1.054815
2451.000000	1.054809
2450.000000	1.054785
2449.000000	1.054748
2448.000000	1.054709
2447.000000	1.054673
2446.000000	1.054640
2445.000000	1.054605
2444.000000	1.054569
2443.000000	1.054538
2442.000000	1.054516
2441.000000	1.054496
2440.000000	1.054467
2439.000000	1.054434
2438.000000	1.054414
2437.000000	1.054411
2436.000000	1.054410
2435.000000	1.054387
2434.000000	1.054332
2433.000000	1.054253
2432.000000	1.054166
2431.000000	1.054084
2430.000000	1.054015
2429.000000	1.053961
2428.000000	1.053917
2427.000000	1.053872
2426.000000	1.053821
2425.000000	1.053763
2424.000000	1.053704
2423.000000	1.053653
2422.000000	1.053617
2421.000000	1.053590
2420.000000	1.053554
2419.000000	1.053490
2418.000000	1.053398
2417.000000	1.053300
2416.000000	1.053219
2415.000000	1.053159
2414.000000	1.053111
2413.000000	1.053061
2412.000000	1.053011
2411.000000	1.052966
2410.000000	1.052928
2409.000000	1.052893
2408.000000	1.052857
2407.000000	1.052819
2406.000000	1.052780
2405.000000	1.052737
2404.000000	1.052695
2403.000000	1.052657
2402.000000	1.052621
2401.000000	1.052574
2400.000000	1.052514
2399.000000	1.052454
2398.000000	1.052415
2397.000000	1.052405
2396.000000	1.052412
2395.000000	1.052419
2394.000000	1.052420
2393.000000	1.052414
2392.000000	1.052397
2391.000000	1.052368
2390.000000	1.052340
2389.000000	1.052331
2388.000000	1.052345
2387.000000	1.052362
2386.000000	1.052357
2385.000000	1.052322
2384.000000	1.052264
2383.000000	1.052198
2382.000000	1.052126
2381.000000	1.052047
2380.000000	1.051959
2379.000000	1.051867
2378.000000	1.051775
2377.000000	1.051675
2376.000000	1.051555
2375.000000	1.051406
2374.000000	1.051230
2373.000000	1.051035
2372.000000	1.050830
2371.000000	1.050618
2370.000000	1.050404
2369.000000	1.050198
2368.000000	1.050018
2367.000000	1.049877
2366.000000	1.049772
2365.000000	1.049688
2364.000000	1.049619
2363.000000	1.049570
2362.000000	1.049554
2361.000000	1.049578
2360.000000	1.049640
2359.000000	1.049736
2358.000000	1.049868
2357.000000	1.050049
2356.000000	1.050297
2355.000000	1.050623
2354.000000	1.051010
2353.000000	1.051421
2352.000000	1.051818
2351.000000	1.052175
2350.000000	1.052473
2349.000000	1.052713
2348.000000	1.052936
2347.000000	1.053224
2346.000000	1.053658
2345.000000	1.054272
2344.000000	1.055036
2343.000000	1.055858
2342.000000	1.056576
2341.000000	1.056985
2340.000000	1.056924
2339.000000	1.056380
2338.000000	1.055515
2337.000000	1.054570
2336.000000	1.053737
2335.000000	1.053103
2334.000000	1.052679
2333.000000	1.052440
2332.000000	1.052350
2331.000000	1.052369
2330.000000	1.052458
2329.000000	1.052579
2328.000000	1.052701
2327.000000	1.052815
2326.000000	1.052926
2325.000000	1.053046
2324.000000	1.053179
2323.000000	1.053320
2322.000000	1.053460
2321.000000	1.053589
2320.000000	1.053698
2319.000000	1.053787
2318.000000	1.053865
2317.000000	1.053942
2316.000000	1.054023
2315.000000	1.054114
2314.000000	1.054230
2313.000000	1.054368
2312.000000	1.054513
2311.000000	1.054644
2310.000000	1.054753
2309.000000	1.054838
2308.000000	1.054898
2307.000000	1.054942
2306.000000	1.054989
2305.000000	1.055056
2304.000000	1.055138
2303.000000	1.055224
2302.000000	1.055309
2301.000000	1.055391
2300.000000	1.055464
2299.000000	1.055522
2298.000000	1.055573
2297.000000	1.055631
2296.000000	1.055698
2295.000000	1.055761
2294.000000	1.055806
2293.000000	1.055836
2292.000000	1.055861
2291.000000	1.055887
2290.000000	1.055926
2289.000000	1.055979
2288.000000	1.056038
2287.000000	1.056090
2286.000000	1.056132
2285.000000	1.056168
2284.000000	1.056204
2283.000000	1.056235
2282.000000	1.056264
2281.000000	1.056303
2280.000000	1.056364
2279.000000	1.056450
2278.000000	1.056554
2277.000000	1.056662
2276.000000	1.056756
2275.000000	1.056816
2274.000000	1.056831
2273.000000	1.056813
2272.000000	1.056783
2271.000000	1.056764
2270.000000	1.056770
2269.000000	1.056803
2268.000000	1.056856
2267.000000	1.056917
2266.000000	1.056973
2265.000000	1.057024
2264.000000	1.057074
2263.000000	1.057121
2262.000000	1.057162
2261.000000	1.057196
2260.000000	1.057228
2259.000000	1.057265
2258.000000	1.057310
2257.000000	1.057367
2256.000000	1.057432
2255.000000	1.057492
2254.000000	1.057536
2253.000000	1.057568
2252.000000	1.057599
2251.000000	1.057634
2250.000000	1.057662
2249.000000	1.057672
2248.000000	1.057668
2247.000000	1.057668
2246.000000	1.057685
2245.000000	1.057720
2244.000000	1.057759
2243.000000	1.057789
2242.000000	1.057810
2241.000000	1.057830
2240.000000	1.057859
2239.000000	1.057900
2238.000000	1.057942
2237.000000	1.057976
2236.000000	1.058002
2235.000000	1.058025
2234.000000	1.058047
2233.000000	1.058068
2232.000000	1.058090
2231.000000	1.058118
2230.000000	1.058154
2229.000000	1.058188
2228.000000	1.058208
2227.000000	1.058214
2226.000000	1.058207
2225.000000	1.058196
2224.000000	1.058194
2223.000000	1.058215
2222.000000	1.058260
2221.000000	1.058311
2220.000000	1.058349
2219.000000	1.058371
2218.000000	1.058379
2217.000000	1.058371
2216.000000	1.058344
2215.000000	1.058316
2214.000000	1.058313
2213.000000	1.058339
2212.000000	1.058370
2211.000000	1.058382
2210.000000	1.058379
2209.000000	1.058377
2208.000000	1.058376
2207.000000	1.058373
2206.000000	1.058369
2205.000000	1.058374
2204.000000	1.058389
2203.000000	1.058402
2202.000000	1.058405
2201.000000	1.058388
2200.000000	1.058353
2199.000000	1.058316
2198.000000	1.058298
2197.000000	1.058309
2196.000000	1.058334
2195.000000	1.058353
2194.000000	1.058360
2193.000000	1.058358
2192.000000	1.058346
2191.000000	1.058320
2190.000000	1.058289
2189.000000	1.058261
2188.000000	1.058240
2187.000000	1.058224
2186.000000	1.058212
2185.000000	1.058204
2184.000000	1.058195
2183.000000	1.058179
2182.000000	1.058162
2181.000000	1.058154
2180.000000	1.058153
2179.000000	1.058146
2178.000000	1.058127
2177.000000	1.058100
2176.000000	1.058065
2175.000000	1.058017
2174.000000	1.057954
2173.000000	1.057888
2172.000000	1.057829
2171.000000	1.057781
2170.000000	1.057742
2169.000000	1.057712
2168.000000	1.057683
2167.000000	1.057644
2166.000000	1.057596
2165.000000	1.057547
2164.000000	1.057505
2163.000000	1.057470
2162.000000	1.057435
2161.000000	1.057391
2160.000000	1.057333
2159.000000	1.057269
2158.000000	1.057212
2157.000000	1.057174
2156.000000	1.057144
2155.000000	1.057107
2154.000000	1.057061
2153.000000	1.057020
2152.000000	1.056992
2151.000000	1.056967
2150.000000	1.056930
2149.000000	1.056879
2148.000000	1.056818
2147.000000	1.056750
2146.000000	1.056680
2145.000000	1.056611
2144.000000	1.056544
2143.000000	1.056470
2142.000000	1.056390
2141.000000	1.056316
2140.000000	1.056250
2139.000000	1.056179
2138.000000	1.056091
2137.000000	1.055993
2136.000000	1.055906
2135.000000	1.055838
2134.000000	1.055777
2133.000000	1.055706
2132.000000	1.055620
2131.000000	1.055527
2130.000000	1.055436
2129.000000	1.055345
2128.000000	1.055247
2127.000000	1.055142
2126.000000	1.055033
2125.000000	1.054929
2124.000000	1.054835
2123.000000	1.054751
2122.000000	1.054680
2121.000000	1.054613
2120.000000	1.054534
2119.000000	1.054427
2118.000000	1.054299
2117.000000	1.054170
2116.000000	1.054052
2115.000000	1.053942
2114.000000	1.053832
2113.000000	1.053726
2112.000000	1.053626
2111.000000	1.053525
2110.000000	1.053413
2109.000000	1.053285
2108.000000	1.053151
2107.000000	1.053025
2106.000000	1.052915
2105.000000	1.052818
2104.000000	1.052716
2103.000000	1.052595
2102.000000	1.052454
2101.000000	1.052306
2100.000000	1.052164
2099.000000	1.052037
2098.000000	1.051928
2097.000000	1.051829
2096.000000	1.051722
2095.000000	1.051590
2094.000000	1.051435
2093.000000	1.051273
2092.000000	1.051122
2091.000000	1.050981
2090.000000	1.050843
2089.000000	1.050707
2088.000000	1.050574
2087.000000	1.050443
2086.000000	1.050310
2085.000000	1.050174
2084.000000	1.050038
2083.000000	1.049909
2082.000000	1.049788
2081.000000	1.049670
2080.000000	1.049539
2079.000000	1.049383
2078.000000	1.049203
2077.000000	1.049015
2076.000000	1.048836
2075.000000	1.048678
2074.000000	1.048542
2073.000000	1.048421
2072.000000	1.048306
2071.000000	1.048188
2070.000000	1.048064
2069.000000	1.047932
2068.000000	1.047783
2067.000000	1.047609
2066.000000	1.047419
2065.000000	1.047229
2064.000000	1.047054
2063.000000	1.046898
2062.000000	1.046761
2061.000000	1.046643
2060.000000	1.046530
2059.000000	1.046399
2058.000000	1.046240
2057.000000	1.046066
2056.000000	1.045901
2055.000000	1.045756
2054.000000	1.045621
2053.000000	1.045479
2052.000000	1.045325
2051.000000	1.045159
2050.000000	1.044990
2049.000000	1.044824
2048.000000	1.044667
2047.000000	1.044523
2046.000000	1.044395
2045.000000	1.044282
2044.000000	1.044169
2043.000000	1.044040
2042.000000	1.043887
2041.000000	1.043719
2040.000000	1.043553
2039.000000	1.043401
2038.000000	1.043274
2037.000000	1.043167
2036.000000	1.043062
2035.000000	1.042937
2034.000000	1.042788
2033.000000	1.042629
2032.000000	1.042477
2031.000000	1.042343
2030.000000	1.042223
2029.000000	1.042110
2028.000000	1.041996
2027.000000	1.041873
2026.000000	1.041740
2025.000000	1.041610
2024.000000	1.041498
2023.000000	1.041404
2022.000000	1.041312
2021.000000	1.041207
2020.000000	1.041085
2019.000000	1.040953
2018.000000	1.040819
2017.000000	1.040684
2016.000000	1.040546
2015.000000	1.040402
2014.000000	1.040261
2013.000000	1.040140
2012.000000	1.040044
2011.000000	1.039962
2010.000000	1.039871
2009.000000	1.039760
2008.000000	1.039639
2007.000000	1.039521
2006.000000	1.039416
2005.000000	1.039316
2004.000000	1.039208
2003.000000	1.039092
2002.000000	1.038985
2001.000000	1.038906
2000.000000	1.038854
1999.000000	1.038812
1998.000000	1.038759
1997.000000	1.038689
1996.000000	1.038606
1995.000000	1.038508
1994.000000	1.038390
1993.000000	1.038263
1992.000000	1.038143
1991.000000	1.038047
1990.000000	1.037970
1989.000000	1.037897
1988.000000	1.037818
1987.000000	1.037735
1986.000000	1.037653
1985.000000	1.037574
1984.000000	1.037495
1983.000000	1.037419
1982.000000	1.037350
1981.000000	1.037292
1980.000000	1.037240
1979.000000	1.037186
1978.000000	1.037129
1977.000000	1.037071
1976.000000	1.037010
1975.000000	1.036945
1974.000000	1.036876
1973.000000	1.036807
1972.000000	1.036742
1971.000000	1.036681
1970.000000	1.036624
1969.000000	1.036575
1968.000000	1.036533
1967.000000	1.036497
1966.000000	1.036457
1965.000000	1.036408
1964.000000	1.036360
1963.000000	1.036332
1962.000000	1.036329
1961.000000	1.036321
1960.000000	1.036277
1959.000000	1.036204
1958.000000	1.036143
1957.000000	1.036118
1956.000000	1.036106
1955.000000	1.036075
1954.000000	1.036023
1953.000000	1.035974
1952.000000	1.035942
1951.000000	1.035921
1950.000000	1.035902
1949.000000	1.035885
1948.000000	1.035875
1947.000000	1.035865
1946.000000	1.035842
1945.000000	1.035797
1944.000000	1.035732
1943.000000	1.035668
1942.000000	1.035631
1941.000000	1.035628
1940.000000	1.035637
1939.000000	1.035633
1938.000000	1.035618
1937.000000	1.035605
1936.000000	1.035602
1935.000000	1.035598
1934.000000	1.035587
1933.000000	1.035578
1932.000000	1.035580
1931.000000	1.035594
1930.000000	1.035617
1929.000000	1.035643
1928.000000	1.035666
1927.000000	1.035679
1926.000000	1.035677
1925.000000	1.035657
1924.000000	1.035624
1923.000000	1.035593
1922.000000	1.035578
1921.000000	1.035572
1920.000000	1.035555
1919.000000	1.035527
1918.000000	1.035523
1917.000000	1.035567
1916.000000	1.035639
1915.000000	1.035695
1914.000000	1.035725
1913.000000	1.035748
1912.000000	1.035781
1911.000000	1.035811
1910.000000	1.035834
1909.000000	1.035858
1908.000000	1.035891
1907.000000	1.035924
1906.000000	1.035952
1905.000000	1.035978
1904.000000	1.036004
1903.000000	1.036017
1902.000000	1.036014
1901.000000	1.036007
1900.000000	1.036009
1899.000000	1.036020
1898.000000	1.036033
1897.000000	1.036049
1896.000000	1.036074
1895.000000	1.036111
1894.000000	1.036161
1893.000000	1.036212
1892.000000	1.036240
1891.000000	1.036234
1890.000000	1.036218
1889.000000	1.036236
1888.000000	1.036303
1887.000000	1.036390
1886.000000	1.036467
1885.000000	1.036524
1884.000000	1.036568
1883.000000	1.036605
1882.000000	1.036639
1881.000000	1.036674
1880.000000	1.036705
1879.000000	1.036722
1878.000000	1.036731
1877.000000	1.036755
1876.000000	1.036805
1875.000000	1.036873
1874.000000	1.036940
1873.000000	1.036993
1872.000000	1.037014
1871.000000	1.036994
1870.000000	1.036957
1869.000000	1.036961
1868.000000	1.037039
1867.000000	1.037170
1866.000000	1.037303
1865.000000	1.037407
1864.000000	1.037481
1863.000000	1.037538
1862.000000	1.037591
1861.000000	1.037653
1860.000000	1.037724
1859.000000	1.037790
1858.000000	1.037845
1857.000000	1.037899
1856.000000	1.037966
1855.000000	1.038043
1854.000000	1.038122
1853.000000	1.038200
1852.000000	1.038274
1851.000000	1.038341
1850.000000	1.038400
1849.000000	1.038456
1848.000000	1.038498
1847.000000	1.038494
1846.000000	1.038439
1845.000000	1.038390
1844.000000	1.038433
1843.000000	1.038602
1842.000000	1.038841
1841.000000	1.039057
1840.000000	1.039203
1839.000000	1.039297
1838.000000	1.039377
1837.000000	1.039460
1836.000000	1.039541
1835.000000	1.039620
1834.000000	1.039700
1833.000000	1.039763
1832.000000	1.039787
1831.000000	1.039789
1830.000000	1.039835
1829.000000	1.039966
1828.000000	1.040141
1827.000000	1.040282
1826.000000	1.040377
1825.000000	1.040484
1824.000000	1.040649
1823.000000	1.040844
1822.000000	1.041016
1821.000000	1.041148
1820.000000	1.041258
1819.000000	1.041364
1818.000000	1.041470
1817.000000	1.041589
1816.000000	1.041723
1815.000000	1.041860
1814.000000	1.041981
1813.000000	1.042086
1812.000000	1.042189
1811.000000	1.042309
1810.000000	1.042460
1809.000000	1.042641
1808.000000	1.042827
1807.000000	1.042985
1806.000000	1.043101
1805.000000	1.043195
1804.000000	1.043283
1803.000000	1.043364
1802.000000	1.043444
1801.000000	1.043545
1800.000000	1.043685
1799.000000	1.043859
1798.000000	1.044047
1797.000000	1.044220
1796.000000	1.044337
1795.000000	1.044363
1794.000000	1.044328
1793.000000	1.044336
1792.000000	1.044482
1791.000000	1.044765
1790.000000	1.045093
1789.000000	1.045374
1788.000000	1.045566
1787.000000	1.045682
1786.000000	1.045771
1785.000000	1.045884
1784.000000	1.046045
1783.000000	1.046227
1782.000000	1.046403
1781.000000	1.046574
1780.000000	1.046759
1779.000000	1.046960
1778.000000	1.047160
1777.000000	1.047337
1776.000000	1.047455
1775.000000	1.047470
1774.000000	1.047406
1773.000000	1.047383
1772.000000	1.047531
1771.000000	1.047848
1770.000000	1.048201
1769.000000	1.048483
1768.000000	1.048707
1767.000000	1.048939
1766.000000	1.049182
1765.000000	1.049370
1764.000000	1.049466
1763.000000	1.049526
1762.000000	1.049649
1761.000000	1.049886
1760.000000	1.050186
1759.000000	1.050445
1758.000000	1.050614
1757.000000	1.050739
1756.000000	1.050896
1755.000000	1.051082
1754.000000	1.051219
1753.000000	1.051263
1752.000000	1.051278
1751.000000	1.051371
1750.000000	1.051576
1749.000000	1.051846
1748.000000	1.052115
1747.000000	1.052357
1746.000000	1.052569
1745.000000	1.052756
1744.000000	1.052926
1743.000000	1.053076
1742.000000	1.053189
1741.000000	1.053258
1740.000000	1.053336
1739.000000	1.053483
1738.000000	1.053650
1737.000000	1.053680
1736.000000	1.053483
1735.000000	1.053210
1734.000000	1.053148
1733.000000	1.053437
1732.000000	1.053933
1731.000000	1.054394
1730.000000	1.054712
1729.000000	1.054935
1728.000000	1.055117
1727.000000	1.055255
1726.000000	1.055337
1725.000000	1.055388
1724.000000	1.055441
1723.000000	1.055500
1722.000000	1.055540
1721.000000	1.055498
1720.000000	1.055312
1719.000000	1.055009
1718.000000	1.054754
1717.000000	1.054738
1716.000000	1.054986
1715.000000	1.055354
1714.000000	1.055692
1713.000000	1.055951
1712.000000	1.056131
1711.000000	1.056227
1710.000000	1.056255
1709.000000	1.056259
1708.000000	1.056248
1707.000000	1.056200
1706.000000	1.056151
1705.000000	1.056174
1704.000000	1.056217
1703.000000	1.056083
1702.000000	1.055694
1701.000000	1.055285
1700.000000	1.055170
1699.000000	1.055347
1698.000000	1.055521
1697.000000	1.055519
1696.000000	1.055510
1695.000000	1.055744
1694.000000	1.056200
1693.000000	1.056622
1692.000000	1.056817
1691.000000	1.056824
1690.000000	1.056793
1689.000000	1.056780
1688.000000	1.056677
1687.000000	1.056352
1686.000000	1.055856
1685.000000	1.055470
1684.000000	1.055478
1683.000000	1.055873
1682.000000	1.056374
1681.000000	1.056724
1680.000000	1.056887
1679.000000	1.056947
1678.000000	1.056922
1677.000000	1.056788
1676.000000	1.056619
1675.000000	1.056561
1674.000000	1.056664
1673.000000	1.056803
1672.000000	1.056831
1671.000000	1.056739
1670.000000	1.056653
1669.000000	1.056692
1668.000000	1.056863
1667.000000	1.057073
1666.000000	1.057209
1665.000000	1.057217
1664.000000	1.057140
1663.000000	1.057079
1662.000000	1.057106
1661.000000	1.057207
1660.000000	1.057318
1659.000000	1.057397
1658.000000	1.057416
1657.000000	1.057288
1656.000000	1.056869
1655.000000	1.056140
1654.000000	1.055385
1653.000000	1.055070
1652.000000	1.055424
1651.000000	1.056174
1650.000000	1.056791
1649.000000	1.056962
1648.000000	1.056788
1647.000000	1.056594
1646.000000	1.056611
1645.000000	1.056848
1644.000000	1.057166
1643.000000	1.057415
1642.000000	1.057533
1641.000000	1.057553
1640.000000	1.057519
1639.000000	1.057396
1638.000000	1.057127
1637.000000	1.056772
1636.000000	1.056533
1635.000000	1.056585
1634.000000	1.056891
1633.000000	1.057249
1632.000000	1.057482
1631.000000	1.057547
1630.000000	1.057503
1629.000000	1.057428
1628.000000	1.057374
1627.000000	1.057343
1626.000000	1.057293
1625.000000	1.057195
1624.000000	1.057087
1623.000000	1.057052
1622.000000	1.057117
1621.000000	1.057201
1620.000000	1.057162
1619.000000	1.056933
1618.000000	1.056619
1617.000000	1.056444
1616.000000	1.056570
1615.000000	1.056936
1614.000000	1.057318
1613.000000	1.057535
1612.000000	1.057581
1611.000000	1.057557
1610.000000	1.057535
1609.000000	1.057523
1608.000000	1.057514
1607.000000	1.057518
1606.000000	1.057537
1605.000000	1.057557
1604.000000	1.057577
1603.000000	1.057602
1602.000000	1.057631
1601.000000	1.057650
1600.000000	1.057659
1599.000000	1.057668
1598.000000	1.057678
1597.000000	1.057679
1596.000000	1.057677
1595.000000	1.057688
1594.000000	1.057712
1593.000000	1.057735
1592.000000	1.057746
1591.000000	1.057744
1590.000000	1.057739
1589.000000	1.057738
1588.000000	1.057749
1587.000000	1.057767
1586.000000	1.057776
1585.000000	1.057765
1584.000000	1.057742
1583.000000	1.057726
1582.000000	1.057731
1581.000000	1.057747
1580.000000	1.057712
1579.000000	1.057534
1578.000000	1.057185
1577.000000	1.056816
1576.000000	1.056680
1575.000000	1.056887
1574.000000	1.057265
1573.000000	1.057522
1572.000000	1.057524
1571.000000	1.057384
1570.000000	1.057292
1569.000000	1.057336
1568.000000	1.057466
1567.000000	1.057588
1566.000000	1.057649
1565.000000	1.057655
1564.000000	1.057616
1563.000000	1.057458
1562.000000	1.057049
1561.000000	1.056382
1560.000000	1.055725
1559.000000	1.055463
1558.000000	1.055726
1557.000000	1.056259
1556.000000	1.056711
1555.000000	1.056962
1554.000000	1.057110
1553.000000	1.057250
1552.000000	1.057369
1551.000000	1.057431
1550.000000	1.057460
1549.000000	1.057485
1548.000000	1.057483
1547.000000	1.057416
1546.000000	1.057288
1545.000000	1.057133
1544.000000	1.056955
1543.000000	1.056705
1542.000000	1.056358
1541.000000	1.056002
1540.000000	1.055841
1539.000000	1.056046
1538.000000	1.056552
1537.000000	1.057067
1536.000000	1.057312
1535.000000	1.057272
1534.000000	1.057157
1533.000000	1.057159
1532.000000	1.057285
1531.000000	1.057426
1530.000000	1.057499
1529.000000	1.057483
1528.000000	1.057393
1527.000000	1.057272
1526.000000	1.057178
1525.000000	1.057110
1524.000000	1.056982
1523.000000	1.056748
1522.000000	1.056517
1521.000000	1.056470
1520.000000	1.056640
1519.000000	1.056875
1518.000000	1.057019
1517.000000	1.057070
1516.000000	1.057121
1515.000000	1.057204
1514.000000	1.057269
1513.000000	1.057283
1512.000000	1.057267
1511.000000	1.057219
1510.000000	1.057069
1509.000000	1.056751
1508.000000	1.056336
1507.000000	1.056047
1506.000000	1.056101
1505.000000	1.056510
1504.000000	1.057056
1503.000000	1.057474
1502.000000	1.057661
1501.000000	1.057683
1500.000000	1.057626
