PE IR       SUBTECH     SPECTRUM    ASCII       PEDS        4.00        
   -1
TE108B1_015.ASC
20/02/21
15:17:26.00
20/02/21
15:17:26.00
Administrator
Sample 015 By Administrator Date Friday, February 21 2020
1500.000000
#HDR
-1
-1
#GR
cm-1
A
1.0
0.0
4000.000000
-1.000000
2501
8
1.073463
0.987279
#DATA
4000.000000	1.002517
3999.000000	1.002506
3998.000000	1.002477
3997.000000	1.002434
3996.000000	1.002384
3995.000000	1.002337
3994.000000	1.002298
3993.000000	1.002273
3992.000000	1.002267
3991.000000	1.002276
3990.000000	1.002288
3989.000000	1.002284
3988.000000	1.002249
3987.000000	1.002184
3986.000000	1.002109
3985.000000	1.002051
3984.000000	1.002037
3983.000000	1.002070
3982.000000	1.002124
3981.000000	1.002159
3980.000000	1.002144
3979.000000	1.002074
3978.000000	1.001968
3977.000000	1.001858
3976.000000	1.001771
3975.000000	1.001714
3974.000000	1.001676
3973.000000	1.001638
3972.000000	1.001593
3971.000000	1.001547
3970.000000	1.001505
3969.000000	1.001465
3968.000000	1.001414
3967.000000	1.001343
3966.000000	1.001254
3965.000000	1.001159
3964.000000	1.001068
3963.000000	1.000989
3962.000000	1.000923
3961.000000	1.000866
3960.000000	1.000810
3959.000000	1.000746
3958.000000	1.000660
3957.000000	1.000551
3956.000000	1.000432
3955.000000	1.000318
3954.000000	1.000216
3953.000000	1.000119
3952.000000	1.000021
3951.000000	0.999926
3950.000000	0.999836
3949.000000	0.999748
3948.000000	0.999659
3947.000000	0.999566
3946.000000	0.999470
3945.000000	0.999364
3944.000000	0.999247
3943.000000	0.999125
3942.000000	0.999006
3941.000000	0.998895
3940.000000	0.998783
3939.000000	0.998658
3938.000000	0.998520
3937.000000	0.998377
3936.000000	0.998237
3935.000000	0.998095
3934.000000	0.997944
3933.000000	0.997791
3932.000000	0.997656
3931.000000	0.997559
3930.000000	0.997493
3929.000000	0.997427
3928.000000	0.997329
3927.000000	0.997188
3926.000000	0.997019
3925.000000	0.996843
3924.000000	0.996678
3923.000000	0.996527
3922.000000	0.996385
3921.000000	0.996245
3920.000000	0.996109
3919.000000	0.995981
3918.000000	0.995861
3917.000000	0.995748
3916.000000	0.995639
3915.000000	0.995530
3914.000000	0.995418
3913.000000	0.995296
3912.000000	0.995160
3911.000000	0.995015
3910.000000	0.994874
3909.000000	0.994738
3908.000000	0.994587
3907.000000	0.994391
3906.000000	0.994131
3905.000000	0.993828
3904.000000	0.993534
3903.000000	0.993302
3902.000000	0.993151
3901.000000	0.993071
3900.000000	0.993044
3899.000000	0.993059
3898.000000	0.993103
3897.000000	0.993149
3896.000000	0.993155
3895.000000	0.993086
3894.000000	0.992928
3893.000000	0.992717
3892.000000	0.992519
3891.000000	0.992389
3890.000000	0.992321
3889.000000	0.992249
3888.000000	0.992106
3887.000000	0.991895
3886.000000	0.991696
3885.000000	0.991588
3884.000000	0.991578
3883.000000	0.991587
3882.000000	0.991529
3881.000000	0.991394
3880.000000	0.991250
3879.000000	0.991165
3878.000000	0.991137
3877.000000	0.991103
3876.000000	0.991015
3875.000000	0.990870
3874.000000	0.990694
3873.000000	0.990494
3872.000000	0.990268
3871.000000	0.990045
3870.000000	0.989893
3869.000000	0.989854
3868.000000	0.989894
3867.000000	0.989918
3866.000000	0.989852
3865.000000	0.989711
3864.000000	0.989582
3863.000000	0.989536
3862.000000	0.989568
3861.000000	0.989625
3860.000000	0.989659
3859.000000	0.989640
3858.000000	0.989519
3857.000000	0.989220
3856.000000	0.988713
3855.000000	0.988098
3854.000000	0.987595
3853.000000	0.987419
3852.000000	0.987622
3851.000000	0.988063
3850.000000	0.988517
3849.000000	0.988824
3848.000000	0.988950
3847.000000	0.988942
3846.000000	0.988863
3845.000000	0.988750
3844.000000	0.988630
3843.000000	0.988520
3842.000000	0.988413
3841.000000	0.988272
3840.000000	0.988067
3839.000000	0.987824
3838.000000	0.987622
3837.000000	0.987545
3836.000000	0.987612
3835.000000	0.987767
3834.000000	0.987920
3833.000000	0.988016
3832.000000	0.988058
3831.000000	0.988081
3830.000000	0.988101
3829.000000	0.988104
3828.000000	0.988081
3827.000000	0.988048
3826.000000	0.988026
3825.000000	0.987992
3824.000000	0.987893
3823.000000	0.987712
3822.000000	0.987516
3821.000000	0.987409
3820.000000	0.987425
3819.000000	0.987483
3818.000000	0.987469
3817.000000	0.987365
3816.000000	0.987279
3815.000000	0.987333
3814.000000	0.987541
3813.000000	0.987794
3812.000000	0.987970
3811.000000	0.988017
3810.000000	0.987951
3809.000000	0.987815
3808.000000	0.987669
3807.000000	0.987586
3806.000000	0.987609
3805.000000	0.987687
3804.000000	0.987702
3803.000000	0.987591
3802.000000	0.987432
3801.000000	0.987386
3800.000000	0.987544
3799.000000	0.987844
3798.000000	0.988138
3797.000000	0.988328
3796.000000	0.988426
3795.000000	0.988504
3794.000000	0.988604
3793.000000	0.988713
3792.000000	0.988802
3791.000000	0.988861
3790.000000	0.988900
3789.000000	0.988929
3788.000000	0.988948
3787.000000	0.988963
3786.000000	0.988989
3785.000000	0.989047
3784.000000	0.989139
3783.000000	0.989238
3782.000000	0.989305
3781.000000	0.989320
3780.000000	0.989306
3779.000000	0.989310
3778.000000	0.989367
3777.000000	0.989472
3776.000000	0.989594
3775.000000	0.989703
3774.000000	0.989776
3773.000000	0.989799
3772.000000	0.989773
3771.000000	0.989732
3770.000000	0.989731
3769.000000	0.989804
3768.000000	0.989930
3767.000000	0.990051
3766.000000	0.990134
3765.000000	0.990189
3764.000000	0.990250
3763.000000	0.990322
3762.000000	0.990379
3761.000000	0.990400
3760.000000	0.990402
3759.000000	0.990430
3758.000000	0.990516
3757.000000	0.990635
3756.000000	0.990716
3755.000000	0.990684
3754.000000	0.990521
3753.000000	0.990281
3752.000000	0.990073
3751.000000	0.990012
3750.000000	0.990153
3749.000000	0.990441
3748.000000	0.990714
3747.000000	0.990795
3746.000000	0.990648
3745.000000	0.990444
3744.000000	0.990442
3743.000000	0.990771
3742.000000	0.991319
3741.000000	0.991833
3740.000000	0.992121
3739.000000	0.992161
3738.000000	0.992062
3737.000000	0.991957
3736.000000	0.991932
3735.000000	0.992009
3734.000000	0.992170
3733.000000	0.992387
3732.000000	0.992646
3731.000000	0.992938
3730.000000	0.993232
3729.000000	0.993481
3728.000000	0.993656
3727.000000	0.993775
3726.000000	0.993887
3725.000000	0.994024
3724.000000	0.994186
3723.000000	0.994368
3722.000000	0.994573
3721.000000	0.994805
3720.000000	0.995047
3719.000000	0.995283
3718.000000	0.995508
3717.000000	0.995728
3716.000000	0.995931
3715.000000	0.996087
3714.000000	0.996180
3713.000000	0.996248
3712.000000	0.996370
3711.000000	0.996621
3710.000000	0.997016
3709.000000	0.997506
3708.000000	0.998024
3707.000000	0.998517
3706.000000	0.998964
3705.000000	0.999363
3704.000000	0.999722
3703.000000	1.000069
3702.000000	1.000448
3701.000000	1.000898
3700.000000	1.001416
3699.000000	1.001966
3698.000000	1.002503
3697.000000	1.003008
3696.000000	1.003489
3695.000000	1.003959
3694.000000	1.004419
3693.000000	1.004850
3692.000000	1.005224
3691.000000	1.005539
3690.000000	1.005845
3689.000000	1.006244
3688.000000	1.006831
3687.000000	1.007612
3686.000000	1.008492
3685.000000	1.009341
3684.000000	1.010090
3683.000000	1.010763
3682.000000	1.011423
3681.000000	1.012113
3680.000000	1.012809
3679.000000	1.013444
3678.000000	1.013972
3677.000000	1.014442
3676.000000	1.014992
3675.000000	1.015737
3674.000000	1.016649
3673.000000	1.017563
3672.000000	1.018344
3671.000000	1.019027
3670.000000	1.019776
3669.000000	1.020702
3668.000000	1.021761
3667.000000	1.022812
3666.000000	1.023755
3665.000000	1.024587
3664.000000	1.025355
3663.000000	1.026103
3662.000000	1.026848
3661.000000	1.027591
3660.000000	1.028313
3659.000000	1.028982
3658.000000	1.029593
3657.000000	1.030192
3656.000000	1.030854
3655.000000	1.031605
3654.000000	1.032376
3653.000000	1.033045
3652.000000	1.033541
3651.000000	1.033916
3650.000000	1.034309
3649.000000	1.034847
3648.000000	1.035560
3647.000000	1.036383
3646.000000	1.037212
3645.000000	1.037969
3644.000000	1.038626
3643.000000	1.039199
3642.000000	1.039726
3641.000000	1.040238
3640.000000	1.040748
3639.000000	1.041251
3638.000000	1.041736
3637.000000	1.042190
3636.000000	1.042608
3635.000000	1.042993
3634.000000	1.043345
3633.000000	1.043634
3632.000000	1.043814
3631.000000	1.043882
3630.000000	1.043932
3629.000000	1.044114
3628.000000	1.044515
3627.000000	1.045081
3626.000000	1.045662
3625.000000	1.046134
3624.000000	1.046463
3623.000000	1.046682
3622.000000	1.046829
3621.000000	1.046942
3620.000000	1.047068
3619.000000	1.047254
3618.000000	1.047513
3617.000000	1.047807
3616.000000	1.048081
3615.000000	1.048299
3614.000000	1.048464
3613.000000	1.048600
3612.000000	1.048722
3611.000000	1.048840
3610.000000	1.048959
3609.000000	1.049098
3608.000000	1.049280
3607.000000	1.049512
3606.000000	1.049773
3605.000000	1.050019
3604.000000	1.050209
3603.000000	1.050327
3602.000000	1.050398
3601.000000	1.050464
3600.000000	1.050558
3599.000000	1.050676
3598.000000	1.050787
3597.000000	1.050865
3596.000000	1.050915
3595.000000	1.050974
3594.000000	1.051072
3593.000000	1.051203
3592.000000	1.051322
3591.000000	1.051376
3590.000000	1.051346
3589.000000	1.051270
3588.000000	1.051224
3587.000000	1.051264
3586.000000	1.051390
3585.000000	1.051550
3584.000000	1.051689
3583.000000	1.051780
3582.000000	1.051824
3581.000000	1.051836
3580.000000	1.051840
3579.000000	1.051860
3578.000000	1.051906
3577.000000	1.051968
3576.000000	1.052024
3575.000000	1.052069
3574.000000	1.052106
3573.000000	1.052137
3572.000000	1.052146
3571.000000	1.052107
3570.000000	1.052018
3569.000000	1.051910
3568.000000	1.051836
3567.000000	1.051833
3566.000000	1.051898
3565.000000	1.051993
3564.000000	1.052076
3563.000000	1.052133
3562.000000	1.052176
3561.000000	1.052223
3560.000000	1.052281
3559.000000	1.052339
3558.000000	1.052392
3557.000000	1.052433
3556.000000	1.052462
3555.000000	1.052470
3554.000000	1.052459
3553.000000	1.052443
3552.000000	1.052441
3551.000000	1.052462
3550.000000	1.052497
3549.000000	1.052524
3548.000000	1.052537
3547.000000	1.052547
3546.000000	1.052577
3545.000000	1.052638
3544.000000	1.052724
3543.000000	1.052816
3542.000000	1.052894
3541.000000	1.052944
3540.000000	1.052964
3539.000000	1.052966
3538.000000	1.052968
3537.000000	1.052985
3536.000000	1.053025
3535.000000	1.053081
3534.000000	1.053138
3533.000000	1.053180
3532.000000	1.053199
3531.000000	1.053205
3530.000000	1.053213
3529.000000	1.053245
3528.000000	1.053305
3527.000000	1.053377
3526.000000	1.053438
3525.000000	1.053478
3524.000000	1.053510
3523.000000	1.053553
3522.000000	1.053616
3521.000000	1.053690
3520.000000	1.053766
3519.000000	1.053842
3518.000000	1.053923
3517.000000	1.054012
3516.000000	1.054106
3515.000000	1.054196
3514.000000	1.054273
3513.000000	1.054336
3512.000000	1.054391
3511.000000	1.054444
3510.000000	1.054499
3509.000000	1.054558
3508.000000	1.054623
3507.000000	1.054693
3506.000000	1.054769
3505.000000	1.054852
3504.000000	1.054946
3503.000000	1.055053
3502.000000	1.055169
3501.000000	1.055281
3500.000000	1.055382
3499.000000	1.055476
3498.000000	1.055569
3497.000000	1.055662
3496.000000	1.055745
3495.000000	1.055813
3494.000000	1.055870
3493.000000	1.055928
3492.000000	1.055996
3491.000000	1.056077
3490.000000	1.056169
3489.000000	1.056277
3488.000000	1.056401
3487.000000	1.056531
3486.000000	1.056655
3485.000000	1.056764
3484.000000	1.056862
3483.000000	1.056956
3482.000000	1.057052
3481.000000	1.057148
3480.000000	1.057245
3479.000000	1.057349
3478.000000	1.057467
3477.000000	1.057601
3476.000000	1.057744
3475.000000	1.057885
3474.000000	1.058017
3473.000000	1.058143
3472.000000	1.058264
3471.000000	1.058372
3470.000000	1.058457
3469.000000	1.058526
3468.000000	1.058615
3467.000000	1.058752
3466.000000	1.058929
3465.000000	1.059107
3464.000000	1.059263
3463.000000	1.059405
3462.000000	1.059552
3461.000000	1.059702
3460.000000	1.059837
3459.000000	1.059949
3458.000000	1.060054
3457.000000	1.060174
3456.000000	1.060319
3455.000000	1.060484
3454.000000	1.060662
3453.000000	1.060843
3452.000000	1.061014
3451.000000	1.061162
3450.000000	1.061288
3449.000000	1.061405
3448.000000	1.061531
3447.000000	1.061669
3446.000000	1.061810
3445.000000	1.061936
3444.000000	1.062047
3443.000000	1.062153
3442.000000	1.062271
3441.000000	1.062408
3440.000000	1.062564
3439.000000	1.062731
3438.000000	1.062899
3437.000000	1.063053
3436.000000	1.063182
3435.000000	1.063295
3434.000000	1.063412
3433.000000	1.063552
3432.000000	1.063710
3431.000000	1.063866
3430.000000	1.063996
3429.000000	1.064094
3428.000000	1.064180
3427.000000	1.064289
3426.000000	1.064440
3425.000000	1.064620
3424.000000	1.064789
3423.000000	1.064916
3422.000000	1.065003
3421.000000	1.065078
3420.000000	1.065169
3419.000000	1.065287
3418.000000	1.065422
3417.000000	1.065561
3416.000000	1.065689
3415.000000	1.065806
3414.000000	1.065923
3413.000000	1.066055
3412.000000	1.066198
3411.000000	1.066329
3410.000000	1.066427
3409.000000	1.066495
3408.000000	1.066558
3407.000000	1.066640
3406.000000	1.066739
3405.000000	1.066838
3404.000000	1.066924
3403.000000	1.066998
3402.000000	1.067065
3401.000000	1.067134
3400.000000	1.067212
3399.000000	1.067297
3398.000000	1.067379
3397.000000	1.067444
3396.000000	1.067484
3395.000000	1.067512
3394.000000	1.067549
3393.000000	1.067608
3392.000000	1.067687
3391.000000	1.067775
3390.000000	1.067866
3389.000000	1.067964
3388.000000	1.068060
3387.000000	1.068136
3386.000000	1.068173
3385.000000	1.068180
3384.000000	1.068186
3383.000000	1.068219
3382.000000	1.068279
3381.000000	1.068345
3380.000000	1.068391
3379.000000	1.068410
3378.000000	1.068407
3377.000000	1.068403
3376.000000	1.068418
3375.000000	1.068462
3374.000000	1.068524
3373.000000	1.068584
3372.000000	1.068628
3371.000000	1.068662
3370.000000	1.068699
3369.000000	1.068744
3368.000000	1.068794
3367.000000	1.068842
3366.000000	1.068886
3365.000000	1.068926
3364.000000	1.068962
3363.000000	1.068998
3362.000000	1.069041
3361.000000	1.069092
3360.000000	1.069148
3359.000000	1.069196
3358.000000	1.069228
3357.000000	1.069244
3356.000000	1.069247
3355.000000	1.069246
3354.000000	1.069251
3353.000000	1.069272
3352.000000	1.069313
3351.000000	1.069363
3350.000000	1.069396
3349.000000	1.069396
3348.000000	1.069375
3347.000000	1.069368
3346.000000	1.069400
3345.000000	1.069464
3344.000000	1.069533
3343.000000	1.069577
3342.000000	1.069589
3341.000000	1.069583
3340.000000	1.069583
3339.000000	1.069605
3338.000000	1.069651
3337.000000	1.069705
3336.000000	1.069748
3335.000000	1.069767
3334.000000	1.069761
3333.000000	1.069746
3332.000000	1.069744
3331.000000	1.069772
3330.000000	1.069822
3329.000000	1.069867
3328.000000	1.069888
3327.000000	1.069889
3326.000000	1.069892
3325.000000	1.069919
3324.000000	1.069967
3323.000000	1.070021
3322.000000	1.070064
3321.000000	1.070097
3320.000000	1.070134
3319.000000	1.070188
3318.000000	1.070252
3317.000000	1.070308
3316.000000	1.070337
3315.000000	1.070342
3314.000000	1.070345
3313.000000	1.070365
3312.000000	1.070407
3311.000000	1.070459
3310.000000	1.070502
3309.000000	1.070526
3308.000000	1.070534
3307.000000	1.070549
3306.000000	1.070589
3305.000000	1.070654
3304.000000	1.070727
3303.000000	1.070785
3302.000000	1.070821
3301.000000	1.070845
3300.000000	1.070875
3299.000000	1.070917
3298.000000	1.070960
3297.000000	1.070994
3296.000000	1.071016
3295.000000	1.071042
3294.000000	1.071084
3293.000000	1.071136
3292.000000	1.071181
3291.000000	1.071209
3290.000000	1.071225
3289.000000	1.071244
3288.000000	1.071274
3287.000000	1.071314
3286.000000	1.071355
3285.000000	1.071396
3284.000000	1.071440
3283.000000	1.071486
3282.000000	1.071522
3281.000000	1.071540
3280.000000	1.071547
3279.000000	1.071565
3278.000000	1.071610
3277.000000	1.071677
3276.000000	1.071739
3275.000000	1.071778
3274.000000	1.071795
3273.000000	1.071812
3272.000000	1.071844
3271.000000	1.071889
3270.000000	1.071938
3269.000000	1.071981
3268.000000	1.072014
3267.000000	1.072032
3266.000000	1.072037
3265.000000	1.072044
3264.000000	1.072071
3263.000000	1.072119
3262.000000	1.072169
3261.000000	1.072206
3260.000000	1.072233
3259.000000	1.072265
3258.000000	1.072306
3257.000000	1.072343
3256.000000	1.072366
3255.000000	1.072380
3254.000000	1.072398
3253.000000	1.072427
3252.000000	1.072467
3251.000000	1.072511
3250.000000	1.072552
3249.000000	1.072584
3248.000000	1.072612
3247.000000	1.072642
3246.000000	1.072681
3245.000000	1.072721
3244.000000	1.072746
3243.000000	1.072749
3242.000000	1.072743
3241.000000	1.072754
3240.000000	1.072796
3239.000000	1.072856
3238.000000	1.072902
3237.000000	1.072916
3236.000000	1.072908
3235.000000	1.072907
3234.000000	1.072934
3233.000000	1.072991
3232.000000	1.073070
3231.000000	1.073160
3230.000000	1.073243
3229.000000	1.073302
3228.000000	1.073330
3227.000000	1.073337
3226.000000	1.073341
3225.000000	1.073346
3224.000000	1.073345
3223.000000	1.073331
3222.000000	1.073306
3221.000000	1.073281
3220.000000	1.073267
3219.000000	1.073271
3218.000000	1.073290
3217.000000	1.073316
3216.000000	1.073340
3215.000000	1.073356
3214.000000	1.073366
3213.000000	1.073383
3212.000000	1.073412
3211.000000	1.073445
3210.000000	1.073463
3209.000000	1.073451
3208.000000	1.073420
3207.000000	1.073394
3206.000000	1.073381
3205.000000	1.073375
3204.000000	1.073371
3203.000000	1.073373
3202.000000	1.073385
3201.000000	1.073396
3200.000000	1.073390
3199.000000	1.073365
3198.000000	1.073330
3197.000000	1.073296
3196.000000	1.073270
3195.000000	1.073255
3194.000000	1.073254
3193.000000	1.073263
3192.000000	1.073276
3191.000000	1.073289
3190.000000	1.073304
3189.000000	1.073325
3188.000000	1.073352
3187.000000	1.073379
3186.000000	1.073396
3185.000000	1.073393
3184.000000	1.073370
3183.000000	1.073341
3182.000000	1.073312
3181.000000	1.073284
3180.000000	1.073251
3179.000000	1.073222
3178.000000	1.073210
3177.000000	1.073225
3176.000000	1.073262
3175.000000	1.073306
3174.000000	1.073341
3173.000000	1.073347
3172.000000	1.073321
3171.000000	1.073275
3170.000000	1.073233
3169.000000	1.073212
3168.000000	1.073209
3167.000000	1.073213
3166.000000	1.073218
3165.000000	1.073222
3164.000000	1.073231
3163.000000	1.073251
3162.000000	1.073288
3161.000000	1.073331
3160.000000	1.073353
3159.000000	1.073336
3158.000000	1.073284
3157.000000	1.073228
3156.000000	1.073193
3155.000000	1.073184
3154.000000	1.073189
3153.000000	1.073195
3152.000000	1.073206
3151.000000	1.073231
3150.000000	1.073267
3149.000000	1.073294
3148.000000	1.073297
3147.000000	1.073278
3146.000000	1.073250
3145.000000	1.073222
3144.000000	1.073200
3143.000000	1.073193
3142.000000	1.073206
3141.000000	1.073235
3140.000000	1.073266
3139.000000	1.073289
3138.000000	1.073298
3137.000000	1.073291
3136.000000	1.073271
3135.000000	1.073252
3134.000000	1.073251
3133.000000	1.073269
3132.000000	1.073295
3131.000000	1.073321
3130.000000	1.073348
3129.000000	1.073374
3128.000000	1.073385
3127.000000	1.073373
3126.000000	1.073345
3125.000000	1.073314
3124.000000	1.073286
3123.000000	1.073260
3122.000000	1.073237
3121.000000	1.073223
3120.000000	1.073215
3119.000000	1.073204
3118.000000	1.073179
3117.000000	1.073143
3116.000000	1.073110
3115.000000	1.073088
3114.000000	1.073073
3113.000000	1.073051
3112.000000	1.073015
3111.000000	1.072972
3110.000000	1.072941
3109.000000	1.072926
3108.000000	1.072916
3107.000000	1.072896
3106.000000	1.072860
3105.000000	1.072809
3104.000000	1.072750
3103.000000	1.072694
3102.000000	1.072661
3101.000000	1.072653
3100.000000	1.072651
3099.000000	1.072627
3098.000000	1.072566
3097.000000	1.072479
3096.000000	1.072389
3095.000000	1.072313
3094.000000	1.072250
3093.000000	1.072194
3092.000000	1.072140
3091.000000	1.072091
3090.000000	1.072053
3089.000000	1.072018
3088.000000	1.071970
3087.000000	1.071900
3086.000000	1.071816
3085.000000	1.071741
3084.000000	1.071691
3083.000000	1.071663
3082.000000	1.071630
3081.000000	1.071568
3080.000000	1.071473
3079.000000	1.071370
3078.000000	1.071283
3077.000000	1.071215
3076.000000	1.071149
3075.000000	1.071069
3074.000000	1.070981
3073.000000	1.070903
3072.000000	1.070847
3071.000000	1.070806
3070.000000	1.070764
3069.000000	1.070710
3068.000000	1.070646
3067.000000	1.070584
3066.000000	1.070532
3065.000000	1.070482
3064.000000	1.070424
3063.000000	1.070358
3062.000000	1.070290
3061.000000	1.070222
3060.000000	1.070146
3059.000000	1.070058
3058.000000	1.069966
3057.000000	1.069882
3056.000000	1.069806
3055.000000	1.069731
3054.000000	1.069653
3053.000000	1.069576
3052.000000	1.069504
3051.000000	1.069438
3050.000000	1.069376
3049.000000	1.069317
3048.000000	1.069255
3047.000000	1.069190
3046.000000	1.069124
3045.000000	1.069055
3044.000000	1.068982
3043.000000	1.068908
3042.000000	1.068840
3041.000000	1.068781
3040.000000	1.068724
3039.000000	1.068661
3038.000000	1.068588
3037.000000	1.068507
3036.000000	1.068423
3035.000000	1.068344
3034.000000	1.068284
3033.000000	1.068240
3032.000000	1.068191
3031.000000	1.068123
3030.000000	1.068044
3029.000000	1.067974
3028.000000	1.067917
3027.000000	1.067860
3026.000000	1.067789
3025.000000	1.067706
3024.000000	1.067621
3023.000000	1.067542
3022.000000	1.067467
3021.000000	1.067386
3020.000000	1.067286
3019.000000	1.067162
3018.000000	1.067028
3017.000000	1.066906
3016.000000	1.066804
3015.000000	1.066710
3014.000000	1.066612
3013.000000	1.066515
3012.000000	1.066436
3011.000000	1.066385
3010.000000	1.066349
3009.000000	1.066304
3008.000000	1.066238
3007.000000	1.066153
3006.000000	1.066056
3005.000000	1.065945
3004.000000	1.065817
3003.000000	1.065683
3002.000000	1.065567
3001.000000	1.065477
3000.000000	1.065393
2999.000000	1.065294
2998.000000	1.065179
2997.000000	1.065068
2996.000000	1.064964
2995.000000	1.064852
2994.000000	1.064725
2993.000000	1.064591
2992.000000	1.064467
2991.000000	1.064354
2990.000000	1.064252
2989.000000	1.064156
2988.000000	1.064060
2987.000000	1.063948
2986.000000	1.063816
2985.000000	1.063677
2984.000000	1.063544
2983.000000	1.063419
2982.000000	1.063293
2981.000000	1.063165
2980.000000	1.063043
2979.000000	1.062928
2978.000000	1.062812
2977.000000	1.062686
2976.000000	1.062543
2975.000000	1.062385
2974.000000	1.062231
2973.000000	1.062107
2972.000000	1.062018
2971.000000	1.061937
2970.000000	1.061827
2969.000000	1.061673
2968.000000	1.061489
2967.000000	1.061301
2966.000000	1.061123
2965.000000	1.060960
2964.000000	1.060808
2963.000000	1.060655
2962.000000	1.060488
2961.000000	1.060303
2960.000000	1.060110
2959.000000	1.059917
2958.000000	1.059729
2957.000000	1.059548
2956.000000	1.059380
2955.000000	1.059221
2954.000000	1.059054
2953.000000	1.058867
2952.000000	1.058660
2951.000000	1.058450
2950.000000	1.058250
2949.000000	1.058060
2948.000000	1.057870
2947.000000	1.057670
2946.000000	1.057458
2945.000000	1.057241
2944.000000	1.057037
2943.000000	1.056856
2942.000000	1.056700
2941.000000	1.056553
2940.000000	1.056393
2939.000000	1.056205
2938.000000	1.055992
2937.000000	1.055781
2936.000000	1.055597
2935.000000	1.055440
2934.000000	1.055282
2933.000000	1.055093
2932.000000	1.054868
2931.000000	1.054621
2930.000000	1.054375
2929.000000	1.054149
2928.000000	1.053946
2927.000000	1.053755
2926.000000	1.053557
2925.000000	1.053343
2924.000000	1.053119
2923.000000	1.052896
2922.000000	1.052674
2921.000000	1.052450
2920.000000	1.052224
2919.000000	1.052003
2918.000000	1.051786
2917.000000	1.051565
2916.000000	1.051341
2915.000000	1.051123
2914.000000	1.050921
2913.000000	1.050730
2912.000000	1.050538
2911.000000	1.050333
2910.000000	1.050114
2909.000000	1.049892
2908.000000	1.049681
2907.000000	1.049485
2906.000000	1.049297
2905.000000	1.049098
2904.000000	1.048877
2903.000000	1.048644
2902.000000	1.048416
2901.000000	1.048204
2900.000000	1.048003
2899.000000	1.047803
2898.000000	1.047599
2897.000000	1.047391
2896.000000	1.047180
2895.000000	1.046966
2894.000000	1.046746
2893.000000	1.046532
2892.000000	1.046335
2891.000000	1.046155
2890.000000	1.045978
2889.000000	1.045785
2888.000000	1.045570
2887.000000	1.045345
2886.000000	1.045128
2885.000000	1.044929
2884.000000	1.044744
2883.000000	1.044566
2882.000000	1.044387
2881.000000	1.044203
2880.000000	1.044015
2879.000000	1.043822
2878.000000	1.043626
2877.000000	1.043426
2876.000000	1.043222
2875.000000	1.043014
2874.000000	1.042803
2873.000000	1.042594
2872.000000	1.042399
2871.000000	1.042228
2870.000000	1.042076
2869.000000	1.041927
2868.000000	1.041768
2867.000000	1.041591
2866.000000	1.041394
2865.000000	1.041176
2864.000000	1.040946
2863.000000	1.040725
2862.000000	1.040522
2861.000000	1.040333
2860.000000	1.040147
2859.000000	1.039965
2858.000000	1.039797
2857.000000	1.039643
2856.000000	1.039494
2855.000000	1.039340
2854.000000	1.039178
2853.000000	1.039014
2852.000000	1.038847
2851.000000	1.038680
2850.000000	1.038515
2849.000000	1.038355
2848.000000	1.038199
2847.000000	1.038049
2846.000000	1.037907
2845.000000	1.037779
2844.000000	1.037667
2843.000000	1.037562
2842.000000	1.037450
2841.000000	1.037319
2840.000000	1.037168
2839.000000	1.037012
2838.000000	1.036868
2837.000000	1.036741
2836.000000	1.036620
2835.000000	1.036495
2834.000000	1.036358
2833.000000	1.036214
2832.000000	1.036072
2831.000000	1.035940
2830.000000	1.035824
2829.000000	1.035717
2828.000000	1.035606
2827.000000	1.035481
2826.000000	1.035343
2825.000000	1.035198
2824.000000	1.035052
2823.000000	1.034912
2822.000000	1.034784
2821.000000	1.034667
2820.000000	1.034557
2819.000000	1.034446
2818.000000	1.034335
2817.000000	1.034224
2816.000000	1.034115
2815.000000	1.034011
2814.000000	1.033916
2813.000000	1.033827
2812.000000	1.033740
2811.000000	1.033651
2810.000000	1.033560
2809.000000	1.033468
2808.000000	1.033365
2807.000000	1.033243
2806.000000	1.033104
2805.000000	1.032968
2804.000000	1.032854
2803.000000	1.032763
2802.000000	1.032682
2801.000000	1.032594
2800.000000	1.032503
2799.000000	1.032421
2798.000000	1.032351
2797.000000	1.032280
2796.000000	1.032194
2795.000000	1.032095
2794.000000	1.031998
2793.000000	1.031911
2792.000000	1.031835
2791.000000	1.031770
2790.000000	1.031716
2789.000000	1.031669
2788.000000	1.031618
2787.000000	1.031556
2786.000000	1.031483
2785.000000	1.031397
2784.000000	1.031302
2783.000000	1.031210
2782.000000	1.031132
2781.000000	1.031072
2780.000000	1.031021
2779.000000	1.030973
2778.000000	1.030926
2777.000000	1.030873
2776.000000	1.030803
2775.000000	1.030716
2774.000000	1.030632
2773.000000	1.030573
2772.000000	1.030536
2771.000000	1.030501
2770.000000	1.030451
2769.000000	1.030385
2768.000000	1.030306
2767.000000	1.030219
2766.000000	1.030127
2765.000000	1.030040
2764.000000	1.029965
2763.000000	1.029907
2762.000000	1.029862
2761.000000	1.029824
2760.000000	1.029786
2759.000000	1.029749
2758.000000	1.029716
2757.000000	1.029691
2756.000000	1.029673
2755.000000	1.029657
2754.000000	1.029639
2753.000000	1.029616
2752.000000	1.029582
2751.000000	1.029535
2750.000000	1.029478
2749.000000	1.029421
2748.000000	1.029368
2747.000000	1.029318
2746.000000	1.029272
2745.000000	1.029232
2744.000000	1.029204
2743.000000	1.029190
2742.000000	1.029190
2741.000000	1.029195
2740.000000	1.029189
2739.000000	1.029162
2738.000000	1.029116
2737.000000	1.029071
2736.000000	1.029045
2735.000000	1.029040
2734.000000	1.029045
2733.000000	1.029046
2732.000000	1.029032
2731.000000	1.029001
2730.000000	1.028961
2729.000000	1.028921
2728.000000	1.028890
2727.000000	1.028869
2726.000000	1.028856
2725.000000	1.028847
2724.000000	1.028845
2723.000000	1.028851
2722.000000	1.028863
2721.000000	1.028866
2720.000000	1.028847
2719.000000	1.028813
2718.000000	1.028786
2717.000000	1.028783
2716.000000	1.028794
2715.000000	1.028805
2714.000000	1.028811
2713.000000	1.028817
2712.000000	1.028820
2711.000000	1.028809
2710.000000	1.028784
2709.000000	1.028757
2708.000000	1.028741
2707.000000	1.028739
2706.000000	1.028746
2705.000000	1.028756
2704.000000	1.028768
2703.000000	1.028783
2702.000000	1.028804
2701.000000	1.028835
2700.000000	1.028877
2699.000000	1.028927
2698.000000	1.028975
2697.000000	1.029011
2696.000000	1.029029
2695.000000	1.029032
2694.000000	1.029034
2693.000000	1.029042
2692.000000	1.029058
2691.000000	1.029079
2690.000000	1.029100
2689.000000	1.029121
2688.000000	1.029144
2687.000000	1.029166
2686.000000	1.029183
2685.000000	1.029189
2684.000000	1.029190
2683.000000	1.029200
2682.000000	1.029237
2681.000000	1.029301
2680.000000	1.029373
2679.000000	1.029428
2678.000000	1.029460
2677.000000	1.029481
2676.000000	1.029508
2675.000000	1.029547
2674.000000	1.029594
2673.000000	1.029644
2672.000000	1.029698
2671.000000	1.029755
2670.000000	1.029808
2669.000000	1.029850
2668.000000	1.029880
2667.000000	1.029899
2666.000000	1.029917
2665.000000	1.029943
2664.000000	1.029985
2663.000000	1.030050
2662.000000	1.030135
2661.000000	1.030226
2660.000000	1.030309
2659.000000	1.030378
2658.000000	1.030442
2657.000000	1.030506
2656.000000	1.030572
2655.000000	1.030642
2654.000000	1.030720
2653.000000	1.030809
2652.000000	1.030906
2651.000000	1.030998
2650.000000	1.031081
2649.000000	1.031152
2648.000000	1.031213
2647.000000	1.031268
2646.000000	1.031323
2645.000000	1.031387
2644.000000	1.031459
2643.000000	1.031537
2642.000000	1.031617
2641.000000	1.031699
2640.000000	1.031783
2639.000000	1.031876
2638.000000	1.031980
2637.000000	1.032086
2636.000000	1.032179
2635.000000	1.032254
2634.000000	1.032318
2633.000000	1.032393
2632.000000	1.032488
2631.000000	1.032600
2630.000000	1.032709
2629.000000	1.032799
2628.000000	1.032871
2627.000000	1.032944
2626.000000	1.033039
2625.000000	1.033157
2624.000000	1.033278
2623.000000	1.033384
2622.000000	1.033478
2621.000000	1.033567
2620.000000	1.033649
2619.000000	1.033721
2618.000000	1.033791
2617.000000	1.033877
2616.000000	1.033987
2615.000000	1.034109
2614.000000	1.034229
2613.000000	1.034337
2612.000000	1.034437
2611.000000	1.034534
2610.000000	1.034637
2609.000000	1.034750
2608.000000	1.034874
2607.000000	1.034999
2606.000000	1.035115
2605.000000	1.035214
2604.000000	1.035298
2603.000000	1.035379
2602.000000	1.035472
2601.000000	1.035577
2600.000000	1.035682
2599.000000	1.035778
2598.000000	1.035876
2597.000000	1.035990
2596.000000	1.036124
2595.000000	1.036267
2594.000000	1.036413
2593.000000	1.036559
2592.000000	1.036700
2591.000000	1.036826
2590.000000	1.036932
2589.000000	1.037027
2588.000000	1.037126
2587.000000	1.037236
2586.000000	1.037355
2585.000000	1.037478
2584.000000	1.037596
2583.000000	1.037707
2582.000000	1.037814
2581.000000	1.037925
2580.000000	1.038041
2579.000000	1.038160
2578.000000	1.038281
2577.000000	1.038406
2576.000000	1.038538
2575.000000	1.038675
2574.000000	1.038819
2573.000000	1.038973
2572.000000	1.039139
2571.000000	1.039309
2570.000000	1.039476
2569.000000	1.039632
2568.000000	1.039770
2567.000000	1.039889
2566.000000	1.039999
2565.000000	1.040120
2564.000000	1.040265
2563.000000	1.040428
2562.000000	1.040593
2561.000000	1.040753
2560.000000	1.040909
2559.000000	1.041062
2558.000000	1.041210
2557.000000	1.041355
2556.000000	1.041504
2555.000000	1.041663
2554.000000	1.041836
2553.000000	1.042018
2552.000000	1.042198
2551.000000	1.042363
2550.000000	1.042509
2549.000000	1.042643
2548.000000	1.042781
2547.000000	1.042939
2546.000000	1.043119
2545.000000	1.043311
2544.000000	1.043499
2543.000000	1.043669
2542.000000	1.043817
2541.000000	1.043953
2540.000000	1.044100
2539.000000	1.044273
2538.000000	1.044475
2537.000000	1.044688
2536.000000	1.044893
2535.000000	1.045086
2534.000000	1.045278
2533.000000	1.045471
2532.000000	1.045651
2531.000000	1.045805
2530.000000	1.045942
2529.000000	1.046088
2528.000000	1.046261
2527.000000	1.046455
2526.000000	1.046651
2525.000000	1.046837
2524.000000	1.047017
2523.000000	1.047196
2522.000000	1.047377
2521.000000	1.047556
2520.000000	1.047733
2519.000000	1.047910
2518.000000	1.048087
2517.000000	1.048261
2516.000000	1.048426
2515.000000	1.048582
2514.000000	1.048736
2513.000000	1.048895
2512.000000	1.049058
2511.000000	1.049219
2510.000000	1.049377
2509.000000	1.049534
2508.000000	1.049694
2507.000000	1.049857
2506.000000	1.050019
2505.000000	1.050176
2504.000000	1.050323
2503.000000	1.050463
2502.000000	1.050602
2501.000000	1.050746
2500.000000	1.050894
2499.000000	1.051039
2498.000000	1.051180
2497.000000	1.051316
2496.000000	1.051443
2495.000000	1.051554
2494.000000	1.051652
2493.000000	1.051750
2492.000000	1.051861
2491.000000	1.051982
2490.000000	1.052099
2489.000000	1.052203
2488.000000	1.052299
2487.000000	1.052404
2486.000000	1.052528
2485.000000	1.052658
2484.000000	1.052767
2483.000000	1.052841
2482.000000	1.052889
2481.000000	1.052938
2480.000000	1.053007
2479.000000	1.053093
2478.000000	1.053179
2477.000000	1.053248
2476.000000	1.053293
2475.000000	1.053321
2474.000000	1.053347
2473.000000	1.053387
2472.000000	1.053441
2471.000000	1.053507
2470.000000	1.053576
2469.000000	1.053644
2468.000000	1.053701
2467.000000	1.053742
2466.000000	1.053775
2465.000000	1.053811
2464.000000	1.053852
2463.000000	1.053886
2462.000000	1.053909
2461.000000	1.053922
2460.000000	1.053933
2459.000000	1.053937
2458.000000	1.053927
2457.000000	1.053909
2456.000000	1.053898
2455.000000	1.053911
2454.000000	1.053944
2453.000000	1.053979
2452.000000	1.053998
2451.000000	1.053992
2450.000000	1.053970
2449.000000	1.053938
2448.000000	1.053896
2447.000000	1.053843
2446.000000	1.053791
2445.000000	1.053756
2444.000000	1.053745
2443.000000	1.053739
2442.000000	1.053716
2441.000000	1.053670
2440.000000	1.053612
2439.000000	1.053557
2438.000000	1.053514
2437.000000	1.053481
2436.000000	1.053453
2435.000000	1.053428
2434.000000	1.053408
2433.000000	1.053385
2432.000000	1.053344
2431.000000	1.053272
2430.000000	1.053177
2429.000000	1.053084
2428.000000	1.053015
2427.000000	1.052971
2426.000000	1.052941
2425.000000	1.052908
2424.000000	1.052857
2423.000000	1.052782
2422.000000	1.052693
2421.000000	1.052610
2420.000000	1.052546
2419.000000	1.052498
2418.000000	1.052459
2417.000000	1.052423
2416.000000	1.052388
2415.000000	1.052344
2414.000000	1.052288
2413.000000	1.052227
2412.000000	1.052170
2411.000000	1.052125
2410.000000	1.052087
2409.000000	1.052047
2408.000000	1.052000
2407.000000	1.051949
2406.000000	1.051901
2405.000000	1.051864
2404.000000	1.051834
2403.000000	1.051803
2402.000000	1.051764
2401.000000	1.051720
2400.000000	1.051678
2399.000000	1.051639
2398.000000	1.051604
2397.000000	1.051577
2396.000000	1.051564
2395.000000	1.051560
2394.000000	1.051548
2393.000000	1.051519
2392.000000	1.051480
2391.000000	1.051456
2390.000000	1.051461
2389.000000	1.051481
2388.000000	1.051483
2387.000000	1.051449
2386.000000	1.051392
2385.000000	1.051345
2384.000000	1.051326
2383.000000	1.051321
2382.000000	1.051300
2381.000000	1.051243
2380.000000	1.051147
2379.000000	1.051023
2378.000000	1.050886
2377.000000	1.050748
2376.000000	1.050609
2375.000000	1.050459
2374.000000	1.050287
2373.000000	1.050085
2372.000000	1.049860
2371.000000	1.049621
2370.000000	1.049379
2369.000000	1.049146
2368.000000	1.048933
2367.000000	1.048747
2366.000000	1.048595
2365.000000	1.048489
2364.000000	1.048430
2363.000000	1.048410
2362.000000	1.048415
2361.000000	1.048445
2360.000000	1.048519
2359.000000	1.048652
2358.000000	1.048842
2357.000000	1.049079
2356.000000	1.049357
2355.000000	1.049676
2354.000000	1.050029
2353.000000	1.050403
2352.000000	1.050790
2351.000000	1.051177
2350.000000	1.051533
2349.000000	1.051824
2348.000000	1.052054
2347.000000	1.052299
2346.000000	1.052669
2345.000000	1.053232
2344.000000	1.053966
2343.000000	1.054764
2342.000000	1.055459
2341.000000	1.055864
2340.000000	1.055824
2339.000000	1.055312
2338.000000	1.054464
2337.000000	1.053517
2336.000000	1.052685
2335.000000	1.052073
2334.000000	1.051685
2333.000000	1.051475
2332.000000	1.051395
2331.000000	1.051405
2330.000000	1.051478
2329.000000	1.051590
2328.000000	1.051723
2327.000000	1.051862
2326.000000	1.051996
2325.000000	1.052123
2324.000000	1.052248
2323.000000	1.052381
2322.000000	1.052526
2321.000000	1.052677
2320.000000	1.052818
2319.000000	1.052938
2318.000000	1.053040
2317.000000	1.053145
2316.000000	1.053259
2315.000000	1.053373
2314.000000	1.053476
2313.000000	1.053566
2312.000000	1.053656
2311.000000	1.053753
2310.000000	1.053850
2309.000000	1.053935
2308.000000	1.054001
2307.000000	1.054056
2306.000000	1.054115
2305.000000	1.054191
2304.000000	1.054279
2303.000000	1.054362
2302.000000	1.054432
2301.000000	1.054494
2300.000000	1.054560
2299.000000	1.054630
2298.000000	1.054696
2297.000000	1.054754
2296.000000	1.054805
2295.000000	1.054853
2294.000000	1.054903
2293.000000	1.054959
2292.000000	1.055022
2291.000000	1.055085
2290.000000	1.055137
2289.000000	1.055173
2288.000000	1.055197
2287.000000	1.055224
2286.000000	1.055262
2285.000000	1.055317
2284.000000	1.055385
2283.000000	1.055454
2282.000000	1.055513
2281.000000	1.055555
2280.000000	1.055581
2279.000000	1.055603
2278.000000	1.055633
2277.000000	1.055675
2276.000000	1.055728
2275.000000	1.055789
2274.000000	1.055852
2273.000000	1.055908
2272.000000	1.055953
2271.000000	1.055987
2270.000000	1.056020
2269.000000	1.056058
2268.000000	1.056092
2267.000000	1.056121
2266.000000	1.056151
2265.000000	1.056195
2264.000000	1.056250
2263.000000	1.056301
2262.000000	1.056336
2261.000000	1.056360
2260.000000	1.056382
2259.000000	1.056405
2258.000000	1.056428
2257.000000	1.056454
2256.000000	1.056489
2255.000000	1.056534
2254.000000	1.056584
2253.000000	1.056637
2252.000000	1.056692
2251.000000	1.056739
2250.000000	1.056773
2249.000000	1.056795
2248.000000	1.056821
2247.000000	1.056856
2246.000000	1.056893
2245.000000	1.056918
2244.000000	1.056929
2243.000000	1.056935
2242.000000	1.056945
2241.000000	1.056962
2240.000000	1.056988
2239.000000	1.057023
2238.000000	1.057065
2237.000000	1.057100
2236.000000	1.057124
2235.000000	1.057139
2234.000000	1.057157
2233.000000	1.057183
2232.000000	1.057213
2231.000000	1.057242
2230.000000	1.057263
2229.000000	1.057271
2228.000000	1.057264
2227.000000	1.057253
2226.000000	1.057252
2225.000000	1.057272
2224.000000	1.057311
2223.000000	1.057358
2222.000000	1.057398
2221.000000	1.057421
2220.000000	1.057425
2219.000000	1.057418
2218.000000	1.057412
2217.000000	1.057415
2216.000000	1.057427
2215.000000	1.057444
2214.000000	1.057458
2213.000000	1.057461
2212.000000	1.057452
2211.000000	1.057447
2210.000000	1.057457
2209.000000	1.057476
2208.000000	1.057484
2207.000000	1.057472
2206.000000	1.057454
2205.000000	1.057446
2204.000000	1.057450
2203.000000	1.057464
2202.000000	1.057486
2201.000000	1.057504
2200.000000	1.057499
2199.000000	1.057457
2198.000000	1.057396
2197.000000	1.057350
2196.000000	1.057339
2195.000000	1.057358
2194.000000	1.057384
2193.000000	1.057399
2192.000000	1.057391
2191.000000	1.057363
2190.000000	1.057328
2189.000000	1.057301
2188.000000	1.057292
2187.000000	1.057300
2186.000000	1.057317
2185.000000	1.057329
2184.000000	1.057323
2183.000000	1.057302
2182.000000	1.057287
2181.000000	1.057280
2180.000000	1.057258
2179.000000	1.057197
2178.000000	1.057115
2177.000000	1.057054
2176.000000	1.057038
2175.000000	1.057044
2174.000000	1.057036
2173.000000	1.057006
2172.000000	1.056962
2171.000000	1.056915
2170.000000	1.056862
2169.000000	1.056805
2168.000000	1.056749
2167.000000	1.056702
2166.000000	1.056668
2165.000000	1.056647
2164.000000	1.056633
2163.000000	1.056619
2162.000000	1.056600
2161.000000	1.056572
2160.000000	1.056531
2159.000000	1.056470
2158.000000	1.056390
2157.000000	1.056304
2156.000000	1.056232
2155.000000	1.056184
2154.000000	1.056154
2153.000000	1.056121
2152.000000	1.056063
2151.000000	1.055976
2150.000000	1.055881
2149.000000	1.055808
2148.000000	1.055767
2147.000000	1.055742
2146.000000	1.055706
2145.000000	1.055648
2144.000000	1.055577
2143.000000	1.055511
2142.000000	1.055454
2141.000000	1.055390
2140.000000	1.055307
2139.000000	1.055211
2138.000000	1.055126
2137.000000	1.055066
2136.000000	1.055014
2135.000000	1.054941
2134.000000	1.054835
2133.000000	1.054716
2132.000000	1.054612
2131.000000	1.054534
2130.000000	1.054467
2129.000000	1.054388
2128.000000	1.054290
2127.000000	1.054189
2126.000000	1.054100
2125.000000	1.054024
2124.000000	1.053944
2123.000000	1.053849
2122.000000	1.053748
2121.000000	1.053654
2120.000000	1.053565
2119.000000	1.053468
2118.000000	1.053357
2117.000000	1.053240
2116.000000	1.053125
2115.000000	1.053012
2114.000000	1.052894
2113.000000	1.052767
2112.000000	1.052635
2111.000000	1.052510
2110.000000	1.052406
2109.000000	1.052321
2108.000000	1.052241
2107.000000	1.052149
2106.000000	1.052045
2105.000000	1.051934
2104.000000	1.051815
2103.000000	1.051682
2102.000000	1.051536
2101.000000	1.051386
2100.000000	1.051235
2099.000000	1.051073
2098.000000	1.050901
2097.000000	1.050737
2096.000000	1.050594
2095.000000	1.050473
2094.000000	1.050360
2093.000000	1.050249
2092.000000	1.050140
2091.000000	1.050035
2090.000000	1.049929
2089.000000	1.049819
2088.000000	1.049695
2087.000000	1.049548
2086.000000	1.049377
2085.000000	1.049195
2084.000000	1.049021
2083.000000	1.048870
2082.000000	1.048748
2081.000000	1.048641
2080.000000	1.048524
2079.000000	1.048382
2078.000000	1.048223
2077.000000	1.048067
2076.000000	1.047919
2075.000000	1.047773
2074.000000	1.047627
2073.000000	1.047489
2072.000000	1.047357
2071.000000	1.047218
2070.000000	1.047066
2069.000000	1.046910
2068.000000	1.046758
2067.000000	1.046601
2066.000000	1.046435
2065.000000	1.046276
2064.000000	1.046146
2063.000000	1.046041
2062.000000	1.045930
2061.000000	1.045791
2060.000000	1.045624
2059.000000	1.045450
2058.000000	1.045285
2057.000000	1.045139
2056.000000	1.045005
2055.000000	1.044869
2054.000000	1.044722
2053.000000	1.044572
2052.000000	1.044434
2051.000000	1.044307
2050.000000	1.044177
2049.000000	1.044032
2048.000000	1.043875
2047.000000	1.043713
2046.000000	1.043550
2045.000000	1.043383
2044.000000	1.043218
2043.000000	1.043068
2042.000000	1.042938
2041.000000	1.042813
2040.000000	1.042677
2039.000000	1.042526
2038.000000	1.042372
2037.000000	1.042230
2036.000000	1.042101
2035.000000	1.041976
2034.000000	1.041850
2033.000000	1.041717
2032.000000	1.041579
2031.000000	1.041437
2030.000000	1.041296
2029.000000	1.041161
2028.000000	1.041030
2027.000000	1.040903
2026.000000	1.040780
2025.000000	1.040668
2024.000000	1.040564
2023.000000	1.040454
2022.000000	1.040324
2021.000000	1.040166
2020.000000	1.039998
2019.000000	1.039851
2018.000000	1.039750
2017.000000	1.039689
2016.000000	1.039627
2015.000000	1.039521
2014.000000	1.039372
2013.000000	1.039219
2012.000000	1.039102
2011.000000	1.039022
2010.000000	1.038951
2009.000000	1.038859
2008.000000	1.038747
2007.000000	1.038631
2006.000000	1.038528
2005.000000	1.038435
2004.000000	1.038335
2003.000000	1.038219
2002.000000	1.038090
2001.000000	1.037967
2000.000000	1.037870
1999.000000	1.037805
1998.000000	1.037763
1997.000000	1.037720
1996.000000	1.037653
1995.000000	1.037545
1994.000000	1.037405
1993.000000	1.037260
1992.000000	1.037135
1991.000000	1.037038
1990.000000	1.036951
1989.000000	1.036860
1988.000000	1.036767
1987.000000	1.036694
1986.000000	1.036653
1985.000000	1.036628
1984.000000	1.036591
1983.000000	1.036530
1982.000000	1.036452
1981.000000	1.036372
1980.000000	1.036297
1979.000000	1.036228
1978.000000	1.036168
1977.000000	1.036113
1976.000000	1.036059
1975.000000	1.036004
1974.000000	1.035957
1973.000000	1.035918
1972.000000	1.035873
1971.000000	1.035814
1970.000000	1.035745
1969.000000	1.035680
1968.000000	1.035627
1967.000000	1.035592
1966.000000	1.035574
1965.000000	1.035559
1964.000000	1.035529
1963.000000	1.035482
1962.000000	1.035430
1961.000000	1.035380
1960.000000	1.035324
1959.000000	1.035254
1958.000000	1.035185
1957.000000	1.035136
1956.000000	1.035107
1955.000000	1.035080
1954.000000	1.035054
1953.000000	1.035041
1952.000000	1.035041
1951.000000	1.035036
1950.000000	1.035008
1949.000000	1.034962
1948.000000	1.034917
1947.000000	1.034885
1946.000000	1.034860
1945.000000	1.034830
1944.000000	1.034791
1943.000000	1.034756
1942.000000	1.034741
1941.000000	1.034745
1940.000000	1.034751
1939.000000	1.034742
1938.000000	1.034722
1937.000000	1.034703
1936.000000	1.034691
1935.000000	1.034689
1934.000000	1.034703
1933.000000	1.034734
1932.000000	1.034767
1931.000000	1.034784
1930.000000	1.034783
1929.000000	1.034772
1928.000000	1.034752
1927.000000	1.034722
1926.000000	1.034687
1925.000000	1.034659
1924.000000	1.034640
1923.000000	1.034632
1922.000000	1.034634
1921.000000	1.034636
1920.000000	1.034622
1919.000000	1.034591
1918.000000	1.034575
1917.000000	1.034603
1916.000000	1.034665
1915.000000	1.034724
1914.000000	1.034760
1913.000000	1.034777
1912.000000	1.034783
1911.000000	1.034778
1910.000000	1.034777
1909.000000	1.034798
1908.000000	1.034835
1907.000000	1.034865
1906.000000	1.034880
1905.000000	1.034899
1904.000000	1.034939
1903.000000	1.034997
1902.000000	1.035061
1901.000000	1.035126
1900.000000	1.035181
1899.000000	1.035213
1898.000000	1.035223
1897.000000	1.035225
1896.000000	1.035232
1895.000000	1.035242
1894.000000	1.035254
1893.000000	1.035267
1892.000000	1.035275
1891.000000	1.035273
1890.000000	1.035276
1889.000000	1.035309
1888.000000	1.035374
1887.000000	1.035443
1886.000000	1.035494
1885.000000	1.035530
1884.000000	1.035559
1883.000000	1.035586
1882.000000	1.035619
1881.000000	1.035672
1880.000000	1.035737
1879.000000	1.035794
1878.000000	1.035835
1877.000000	1.035876
1876.000000	1.035934
1875.000000	1.036003
1874.000000	1.036063
1873.000000	1.036098
1872.000000	1.036098
1871.000000	1.036065
1870.000000	1.036029
1869.000000	1.036038
1868.000000	1.036108
1867.000000	1.036213
1866.000000	1.036317
1865.000000	1.036410
1864.000000	1.036498
1863.000000	1.036575
1862.000000	1.036638
1861.000000	1.036700
1860.000000	1.036771
1859.000000	1.036846
1858.000000	1.036905
1857.000000	1.036951
1856.000000	1.037001
1855.000000	1.037066
1854.000000	1.037148
1853.000000	1.037235
1852.000000	1.037312
1851.000000	1.037369
1850.000000	1.037415
1849.000000	1.037462
1848.000000	1.037494
1847.000000	1.037471
1846.000000	1.037393
1845.000000	1.037330
1844.000000	1.037372
1843.000000	1.037539
1842.000000	1.037765
1841.000000	1.037967
1840.000000	1.038115
1839.000000	1.038230
1838.000000	1.038345
1837.000000	1.038472
1836.000000	1.038601
1835.000000	1.038716
1834.000000	1.038801
1833.000000	1.038842
1832.000000	1.038839
1831.000000	1.038830
1830.000000	1.038878
1829.000000	1.039011
1828.000000	1.039187
1827.000000	1.039336
1826.000000	1.039439
1825.000000	1.039546
1824.000000	1.039699
1823.000000	1.039887
1822.000000	1.040072
1821.000000	1.040233
1820.000000	1.040369
1819.000000	1.040483
1818.000000	1.040583
1817.000000	1.040684
1816.000000	1.040792
1815.000000	1.040896
1814.000000	1.040994
1813.000000	1.041097
1812.000000	1.041212
1811.000000	1.041335
1810.000000	1.041469
1809.000000	1.041620
1808.000000	1.041781
1807.000000	1.041927
1806.000000	1.042048
1805.000000	1.042161
1804.000000	1.042280
1803.000000	1.042400
1802.000000	1.042512
1801.000000	1.042628
1800.000000	1.042764
1799.000000	1.042917
1798.000000	1.043083
1797.000000	1.043253
1796.000000	1.043392
1795.000000	1.043444
1794.000000	1.043416
1793.000000	1.043403
1792.000000	1.043522
1791.000000	1.043787
1790.000000	1.044112
1789.000000	1.044397
1788.000000	1.044603
1787.000000	1.044748
1786.000000	1.044872
1785.000000	1.045012
1784.000000	1.045176
1783.000000	1.045343
1782.000000	1.045497
1781.000000	1.045645
1780.000000	1.045806
1779.000000	1.045978
1778.000000	1.046150
1777.000000	1.046305
1776.000000	1.046409
1775.000000	1.046418
1774.000000	1.046354
1773.000000	1.046334
1772.000000	1.046481
1771.000000	1.046788
1770.000000	1.047129
1769.000000	1.047407
1768.000000	1.047641
1767.000000	1.047894
1766.000000	1.048159
1765.000000	1.048361
1764.000000	1.048460
1763.000000	1.048509
1762.000000	1.048611
1761.000000	1.048822
1760.000000	1.049101
1759.000000	1.049360
1758.000000	1.049558
1757.000000	1.049737
1756.000000	1.049953
1755.000000	1.050171
1754.000000	1.050293
1753.000000	1.050280
1752.000000	1.050225
1751.000000	1.050272
1750.000000	1.050478
1749.000000	1.050780
1748.000000	1.051082
1747.000000	1.051333
1746.000000	1.051534
1745.000000	1.051705
1744.000000	1.051862
1743.000000	1.052005
1742.000000	1.052119
1741.000000	1.052207
1740.000000	1.052316
1739.000000	1.052491
1738.000000	1.052677
1737.000000	1.052720
1736.000000	1.052537
1735.000000	1.052271
1734.000000	1.052207
1733.000000	1.052482
1732.000000	1.052954
1731.000000	1.053377
1730.000000	1.053650
1729.000000	1.053841
1728.000000	1.054028
1727.000000	1.054198
1726.000000	1.054311
1725.000000	1.054372
1724.000000	1.054427
1723.000000	1.054497
1722.000000	1.054549
1721.000000	1.054507
1720.000000	1.054306
1719.000000	1.053993
1718.000000	1.053752
1717.000000	1.053768
1716.000000	1.054047
1715.000000	1.054423
1714.000000	1.054745
1713.000000	1.054979
1712.000000	1.055138
1711.000000	1.055217
1710.000000	1.055228
1709.000000	1.055217
1708.000000	1.055197
1707.000000	1.055143
1706.000000	1.055082
1705.000000	1.055084
1704.000000	1.055105
1703.000000	1.054964
1702.000000	1.054592
1701.000000	1.054222
1700.000000	1.054152
1699.000000	1.054358
1698.000000	1.054526
1697.000000	1.054484
1696.000000	1.054427
1695.000000	1.054635
1694.000000	1.055099
1693.000000	1.055549
1692.000000	1.055775
1691.000000	1.055799
1690.000000	1.055763
1689.000000	1.055723
1688.000000	1.055591
1687.000000	1.055250
1686.000000	1.054754
1685.000000	1.054371
1684.000000	1.054383
1683.000000	1.054796
1682.000000	1.055335
1681.000000	1.055729
1680.000000	1.055918
1679.000000	1.055970
1678.000000	1.055909
1677.000000	1.055733
1676.000000	1.055539
1675.000000	1.055485
1674.000000	1.055609
1673.000000	1.055771
1672.000000	1.055812
1671.000000	1.055735
1670.000000	1.055673
1669.000000	1.055741
1668.000000	1.055927
1667.000000	1.056127
1666.000000	1.056234
1665.000000	1.056201
1664.000000	1.056082
1663.000000	1.055989
1662.000000	1.056010
1661.000000	1.056127
1660.000000	1.056259
1659.000000	1.056349
1658.000000	1.056373
1657.000000	1.056256
1656.000000	1.055858
1655.000000	1.055153
1654.000000	1.054420
1653.000000	1.054124
1652.000000	1.054489
1651.000000	1.055234
1650.000000	1.055832
1649.000000	1.055981
1648.000000	1.055790
1647.000000	1.055582
1646.000000	1.055589
1645.000000	1.055826
1644.000000	1.056160
1643.000000	1.056437
1642.000000	1.056580
1641.000000	1.056609
1640.000000	1.056570
1639.000000	1.056438
1638.000000	1.056160
1637.000000	1.055797
1636.000000	1.055559
1635.000000	1.055623
1634.000000	1.055946
1633.000000	1.056310
1632.000000	1.056529
1631.000000	1.056571
1630.000000	1.056514
1629.000000	1.056447
1628.000000	1.056415
1627.000000	1.056408
1626.000000	1.056374
1625.000000	1.056278
1624.000000	1.056163
1623.000000	1.056121
1622.000000	1.056195
1621.000000	1.056305
1620.000000	1.056298
1619.000000	1.056088
1618.000000	1.055763
1617.000000	1.055548
1616.000000	1.055618
1615.000000	1.055940
1614.000000	1.056312
1613.000000	1.056554
1612.000000	1.056639
1611.000000	1.056643
1610.000000	1.056627
1609.000000	1.056602
1608.000000	1.056575
1607.000000	1.056570
1606.000000	1.056600
1605.000000	1.056650
1604.000000	1.056692
1603.000000	1.056714
1602.000000	1.056718
1601.000000	1.056712
1600.000000	1.056712
1599.000000	1.056725
1598.000000	1.056739
1597.000000	1.056740
1596.000000	1.056737
1595.000000	1.056747
1594.000000	1.056774
1593.000000	1.056800
1592.000000	1.056812
1591.000000	1.056810
1590.000000	1.056797
1589.000000	1.056774
1588.000000	1.056751
1587.000000	1.056738
1586.000000	1.056734
1585.000000	1.056725
1584.000000	1.056704
1583.000000	1.056684
1582.000000	1.056685
1581.000000	1.056704
1580.000000	1.056676
1579.000000	1.056499
1578.000000	1.056154
1577.000000	1.055799
1576.000000	1.055680
1575.000000	1.055897
1574.000000	1.056275
1573.000000	1.056527
1572.000000	1.056520
1571.000000	1.056358
1570.000000	1.056234
1569.000000	1.056251
1568.000000	1.056370
1567.000000	1.056495
1566.000000	1.056567
1565.000000	1.056595
1564.000000	1.056586
1563.000000	1.056453
1562.000000	1.056055
1561.000000	1.055394
1560.000000	1.054750
1559.000000	1.054507
1558.000000	1.054789
1557.000000	1.055335
1556.000000	1.055800
1555.000000	1.056067
1554.000000	1.056233
1553.000000	1.056376
1552.000000	1.056467
1551.000000	1.056481
1550.000000	1.056468
1549.000000	1.056470
1548.000000	1.056452
1547.000000	1.056352
1546.000000	1.056182
1545.000000	1.056004
1544.000000	1.055833
1543.000000	1.055612
1542.000000	1.055296
1541.000000	1.054962
1540.000000	1.054801
1539.000000	1.054976
1538.000000	1.055448
1537.000000	1.055959
1536.000000	1.056241
1535.000000	1.056242
1534.000000	1.056142
1533.000000	1.056144
1532.000000	1.056277
1531.000000	1.056427
1530.000000	1.056488
1529.000000	1.056441
1528.000000	1.056327
1527.000000	1.056210
1526.000000	1.056136
1525.000000	1.056081
1524.000000	1.055949
1523.000000	1.055696
1522.000000	1.055443
1521.000000	1.055376
1520.000000	1.055538
1519.000000	1.055775
1518.000000	1.055936
1517.000000	1.056032
1516.000000	1.056151
1515.000000	1.056292
1514.000000	1.056370
1513.000000	1.056361
1512.000000	1.056325
1511.000000	1.056282
1510.000000	1.056135
1509.000000	1.055786
1508.000000	1.055308
1507.000000	1.054951
1506.000000	1.054962
1505.000000	1.055360
1504.000000	1.055919
1503.000000	1.056358
1502.000000	1.056549
1501.000000	1.056546
1500.000000	1.056459
