PE IR       SUBTECH     SPECTRUM    ASCII       PEDS        4.00        
   -1
TE108B1_026.ASC
20/02/21
15:53:00.00
20/02/21
15:53:00.00
Administrator
Sample 026 By Administrator Date Friday, February 21 2020
1500.000000
#HDR
-1
-1
#GR
cm-1
A
1.0
0.0
4000.000000
-1.000000
2501
8
0.984310
0.925434
#DATA
4000.000000	0.935598
3999.000000	0.935591
3998.000000	0.935577
3997.000000	0.935565
3996.000000	0.935565
3995.000000	0.935582
3994.000000	0.935602
3993.000000	0.935600
3992.000000	0.935559
3991.000000	0.935489
3990.000000	0.935415
3989.000000	0.935359
3988.000000	0.935327
3987.000000	0.935310
3986.000000	0.935296
3985.000000	0.935278
3984.000000	0.935255
3983.000000	0.935227
3982.000000	0.935194
3981.000000	0.935158
3980.000000	0.935125
3979.000000	0.935110
3978.000000	0.935116
3977.000000	0.935130
3976.000000	0.935132
3975.000000	0.935110
3974.000000	0.935068
3973.000000	0.935013
3972.000000	0.934951
3971.000000	0.934887
3970.000000	0.934826
3969.000000	0.934771
3968.000000	0.934715
3967.000000	0.934655
3966.000000	0.934589
3965.000000	0.934521
3964.000000	0.934461
3963.000000	0.934414
3962.000000	0.934378
3961.000000	0.934343
3960.000000	0.934299
3959.000000	0.934242
3958.000000	0.934175
3957.000000	0.934106
3956.000000	0.934039
3955.000000	0.933989
3954.000000	0.933963
3953.000000	0.933958
3952.000000	0.933958
3951.000000	0.933938
3950.000000	0.933879
3949.000000	0.933781
3948.000000	0.933667
3947.000000	0.933571
3946.000000	0.933508
3945.000000	0.933460
3944.000000	0.933394
3943.000000	0.933292
3942.000000	0.933169
3941.000000	0.933050
3940.000000	0.932948
3939.000000	0.932858
3938.000000	0.932779
3937.000000	0.932721
3936.000000	0.932700
3935.000000	0.932714
3934.000000	0.932732
3933.000000	0.932709
3932.000000	0.932620
3931.000000	0.932480
3930.000000	0.932336
3929.000000	0.932227
3928.000000	0.932161
3927.000000	0.932114
3926.000000	0.932057
3925.000000	0.931978
3924.000000	0.931890
3923.000000	0.931816
3922.000000	0.931773
3921.000000	0.931750
3920.000000	0.931721
3919.000000	0.931657
3918.000000	0.931541
3917.000000	0.931373
3916.000000	0.931175
3915.000000	0.930976
3914.000000	0.930797
3913.000000	0.930638
3912.000000	0.930493
3911.000000	0.930382
3910.000000	0.930346
3909.000000	0.930432
3908.000000	0.930653
3907.000000	0.930966
3906.000000	0.931284
3905.000000	0.931520
3904.000000	0.931630
3903.000000	0.931617
3902.000000	0.931495
3901.000000	0.931257
3900.000000	0.930899
3899.000000	0.930456
3898.000000	0.930015
3897.000000	0.929684
3896.000000	0.929546
3895.000000	0.929607
3894.000000	0.929775
3893.000000	0.929893
3892.000000	0.929860
3891.000000	0.929722
3890.000000	0.929640
3889.000000	0.929729
3888.000000	0.929927
3887.000000	0.930043
3886.000000	0.929943
3885.000000	0.929686
3884.000000	0.929456
3883.000000	0.929365
3882.000000	0.929345
3881.000000	0.929236
3880.000000	0.928985
3879.000000	0.928701
3878.000000	0.928532
3877.000000	0.928516
3876.000000	0.928594
3875.000000	0.928738
3874.000000	0.928985
3873.000000	0.929338
3872.000000	0.929666
3871.000000	0.929774
3870.000000	0.929588
3869.000000	0.929251
3868.000000	0.928985
3867.000000	0.928889
3866.000000	0.928863
3865.000000	0.928746
3864.000000	0.928477
3863.000000	0.928124
3862.000000	0.927781
3861.000000	0.927515
3860.000000	0.927441
3859.000000	0.927769
3858.000000	0.928682
3857.000000	0.930094
3856.000000	0.931553
3855.000000	0.932440
3854.000000	0.932356
3853.000000	0.931376
3852.000000	0.929959
3851.000000	0.928612
3850.000000	0.927624
3849.000000	0.927032
3848.000000	0.926755
3847.000000	0.926703
3846.000000	0.926793
3845.000000	0.926944
3844.000000	0.927118
3843.000000	0.927373
3842.000000	0.927808
3841.000000	0.928416
3840.000000	0.929006
3839.000000	0.929305
3838.000000	0.929165
3837.000000	0.928676
3836.000000	0.928080
3835.000000	0.927583
3834.000000	0.927229
3833.000000	0.926945
3832.000000	0.926670
3831.000000	0.926425
3830.000000	0.926271
3829.000000	0.926212
3828.000000	0.926199
3827.000000	0.926220
3826.000000	0.926361
3825.000000	0.926714
3824.000000	0.927217
3823.000000	0.927642
3822.000000	0.927788
3821.000000	0.927703
3820.000000	0.927658
3819.000000	0.927847
3818.000000	0.928143
3817.000000	0.928198
3816.000000	0.927787
3815.000000	0.927032
3814.000000	0.926276
3813.000000	0.925801
3812.000000	0.925698
3811.000000	0.925926
3810.000000	0.926365
3809.000000	0.926814
3808.000000	0.927061
3807.000000	0.927072
3806.000000	0.927072
3805.000000	0.927327
3804.000000	0.927826
3803.000000	0.928236
3802.000000	0.928217
3801.000000	0.927755
3800.000000	0.927150
3799.000000	0.926696
3798.000000	0.926444
3797.000000	0.926254
3796.000000	0.926014
3795.000000	0.925751
3794.000000	0.925555
3793.000000	0.925463
3792.000000	0.925438
3791.000000	0.925434
3790.000000	0.925443
3789.000000	0.925478
3788.000000	0.925540
3787.000000	0.925608
3786.000000	0.925663
3785.000000	0.925710
3784.000000	0.925780
3783.000000	0.925911
3782.000000	0.926092
3781.000000	0.926253
3780.000000	0.926306
3779.000000	0.926227
3778.000000	0.926072
3777.000000	0.925930
3776.000000	0.925864
3775.000000	0.925912
3774.000000	0.926095
3773.000000	0.926387
3772.000000	0.926693
3771.000000	0.926892
3770.000000	0.926940
3769.000000	0.926888
3768.000000	0.926812
3767.000000	0.926737
3766.000000	0.926648
3765.000000	0.926570
3764.000000	0.926575
3763.000000	0.926715
3762.000000	0.926953
3761.000000	0.927173
3760.000000	0.927271
3759.000000	0.927247
3758.000000	0.927235
3757.000000	0.927443
3756.000000	0.928018
3755.000000	0.928947
3754.000000	0.930036
3753.000000	0.930982
3752.000000	0.931505
3751.000000	0.931504
3750.000000	0.931171
3749.000000	0.930918
3748.000000	0.931084
3747.000000	0.931610
3746.000000	0.932031
3745.000000	0.931852
3744.000000	0.930994
3743.000000	0.929868
3742.000000	0.929008
3741.000000	0.928689
3740.000000	0.928852
3739.000000	0.929273
3738.000000	0.929730
3737.000000	0.930080
3736.000000	0.930271
3735.000000	0.930314
3734.000000	0.930218
3733.000000	0.929964
3732.000000	0.929563
3731.000000	0.929139
3730.000000	0.928872
3729.000000	0.928847
3728.000000	0.928980
3727.000000	0.929121
3726.000000	0.929198
3725.000000	0.929234
3724.000000	0.929268
3723.000000	0.929294
3722.000000	0.929297
3721.000000	0.929284
3720.000000	0.929276
3719.000000	0.929291
3718.000000	0.929372
3717.000000	0.929607
3716.000000	0.930074
3715.000000	0.930749
3714.000000	0.931464
3713.000000	0.931998
3712.000000	0.932222
3711.000000	0.932159
3710.000000	0.931937
3709.000000	0.931684
3708.000000	0.931488
3707.000000	0.931411
3706.000000	0.931504
3705.000000	0.931777
3704.000000	0.932154
3703.000000	0.932508
3702.000000	0.932747
3701.000000	0.932881
3700.000000	0.932988
3699.000000	0.933138
3698.000000	0.933352
3697.000000	0.933630
3696.000000	0.933992
3695.000000	0.934484
3694.000000	0.935159
3693.000000	0.936035
3692.000000	0.937052
3691.000000	0.938031
3690.000000	0.938714
3689.000000	0.938922
3688.000000	0.938705
3687.000000	0.938319
3686.000000	0.938037
3685.000000	0.937985
3684.000000	0.938150
3683.000000	0.938483
3682.000000	0.938982
3681.000000	0.939698
3680.000000	0.940690
3679.000000	0.941928
3678.000000	0.943213
3677.000000	0.944231
3676.000000	0.944792
3675.000000	0.945029
3674.000000	0.945291
3673.000000	0.945788
3672.000000	0.946389
3671.000000	0.946780
3670.000000	0.946806
3669.000000	0.946598
3668.000000	0.946398
3667.000000	0.946359
3666.000000	0.946497
3665.000000	0.946775
3664.000000	0.947154
3663.000000	0.947598
3662.000000	0.948100
3661.000000	0.948693
3660.000000	0.949421
3659.000000	0.950245
3658.000000	0.951023
3657.000000	0.951609
3656.000000	0.952005
3655.000000	0.952402
3654.000000	0.953037
3653.000000	0.953994
3652.000000	0.955120
3651.000000	0.956123
3650.000000	0.956756
3649.000000	0.956947
3648.000000	0.956801
3647.000000	0.956505
3646.000000	0.956239
3645.000000	0.956108
3644.000000	0.956132
3643.000000	0.956285
3642.000000	0.956528
3641.000000	0.956836
3640.000000	0.957184
3639.000000	0.957551
3638.000000	0.957927
3637.000000	0.958307
3636.000000	0.958690
3635.000000	0.959110
3634.000000	0.959663
3633.000000	0.960451
3632.000000	0.961444
3631.000000	0.962406
3630.000000	0.963006
3629.000000	0.963067
3628.000000	0.962701
3627.000000	0.962205
3626.000000	0.961843
3625.000000	0.961730
3624.000000	0.961867
3623.000000	0.962208
3622.000000	0.962662
3621.000000	0.963097
3620.000000	0.963389
3619.000000	0.963505
3618.000000	0.963517
3617.000000	0.963537
3616.000000	0.963632
3615.000000	0.963794
3614.000000	0.963990
3613.000000	0.964202
3612.000000	0.964429
3611.000000	0.964645
3610.000000	0.964792
3609.000000	0.964818
3608.000000	0.964730
3607.000000	0.964594
3606.000000	0.964488
3605.000000	0.964451
3604.000000	0.964482
3603.000000	0.964561
3602.000000	0.964664
3601.000000	0.964773
3600.000000	0.964884
3599.000000	0.965008
3598.000000	0.965148
3597.000000	0.965282
3596.000000	0.965370
3595.000000	0.965399
3594.000000	0.965407
3593.000000	0.965466
3592.000000	0.965641
3591.000000	0.965926
3590.000000	0.966234
3589.000000	0.966439
3588.000000	0.966462
3587.000000	0.966321
3586.000000	0.966104
3585.000000	0.965906
3584.000000	0.965773
3583.000000	0.965706
3582.000000	0.965682
3581.000000	0.965677
3580.000000	0.965676
3579.000000	0.965679
3578.000000	0.965700
3577.000000	0.965744
3576.000000	0.965803
3575.000000	0.965856
3574.000000	0.965898
3573.000000	0.965951
3572.000000	0.966060
3571.000000	0.966259
3570.000000	0.966524
3569.000000	0.966769
3568.000000	0.966899
3567.000000	0.966878
3566.000000	0.966745
3565.000000	0.966575
3564.000000	0.966415
3563.000000	0.966281
3562.000000	0.966172
3561.000000	0.966093
3560.000000	0.966046
3559.000000	0.966028
3558.000000	0.966033
3557.000000	0.966065
3556.000000	0.966125
3555.000000	0.966201
3554.000000	0.966269
3553.000000	0.966302
3552.000000	0.966303
3551.000000	0.966300
3550.000000	0.966331
3549.000000	0.966405
3548.000000	0.966498
3547.000000	0.966566
3546.000000	0.966581
3545.000000	0.966549
3544.000000	0.966502
3543.000000	0.966475
3542.000000	0.966482
3541.000000	0.966510
3540.000000	0.966530
3539.000000	0.966528
3538.000000	0.966510
3537.000000	0.966497
3536.000000	0.966508
3535.000000	0.966556
3534.000000	0.966635
3533.000000	0.966727
3532.000000	0.966815
3531.000000	0.966892
3530.000000	0.966963
3529.000000	0.967027
3528.000000	0.967074
3527.000000	0.967098
3526.000000	0.967110
3525.000000	0.967126
3524.000000	0.967156
3523.000000	0.967195
3522.000000	0.967238
3521.000000	0.967284
3520.000000	0.967332
3519.000000	0.967382
3518.000000	0.967429
3517.000000	0.967471
3516.000000	0.967510
3515.000000	0.967561
3514.000000	0.967639
3513.000000	0.967748
3512.000000	0.967875
3511.000000	0.967992
3510.000000	0.968077
3509.000000	0.968132
3508.000000	0.968184
3507.000000	0.968272
3506.000000	0.968404
3505.000000	0.968555
3504.000000	0.968682
3503.000000	0.968760
3502.000000	0.968797
3501.000000	0.968820
3500.000000	0.968854
3499.000000	0.968907
3498.000000	0.968975
3497.000000	0.969044
3496.000000	0.969106
3495.000000	0.969169
3494.000000	0.969246
3493.000000	0.969348
3492.000000	0.969474
3491.000000	0.969613
3490.000000	0.969749
3489.000000	0.969862
3488.000000	0.969950
3487.000000	0.970028
3486.000000	0.970120
3485.000000	0.970234
3484.000000	0.970359
3483.000000	0.970481
3482.000000	0.970593
3481.000000	0.970696
3480.000000	0.970794
3479.000000	0.970888
3478.000000	0.970986
3477.000000	0.971092
3476.000000	0.971210
3475.000000	0.971341
3474.000000	0.971481
3473.000000	0.971625
3472.000000	0.971763
3471.000000	0.971889
3470.000000	0.971999
3469.000000	0.972097
3468.000000	0.972193
3467.000000	0.972304
3466.000000	0.972437
3465.000000	0.972581
3464.000000	0.972715
3463.000000	0.972834
3462.000000	0.972947
3461.000000	0.973073
3460.000000	0.973210
3459.000000	0.973344
3458.000000	0.973461
3457.000000	0.973563
3456.000000	0.973666
3455.000000	0.973788
3454.000000	0.973933
3453.000000	0.974089
3452.000000	0.974239
3451.000000	0.974380
3450.000000	0.974517
3449.000000	0.974653
3448.000000	0.974785
3447.000000	0.974910
3446.000000	0.975026
3445.000000	0.975126
3444.000000	0.975197
3443.000000	0.975239
3442.000000	0.975281
3441.000000	0.975362
3440.000000	0.975499
3439.000000	0.975668
3438.000000	0.975831
3437.000000	0.975962
3436.000000	0.976066
3435.000000	0.976165
3434.000000	0.976270
3433.000000	0.976375
3432.000000	0.976469
3431.000000	0.976549
3430.000000	0.976628
3429.000000	0.976720
3428.000000	0.976830
3427.000000	0.976954
3426.000000	0.977094
3425.000000	0.977252
3424.000000	0.977421
3423.000000	0.977579
3422.000000	0.977709
3421.000000	0.977807
3420.000000	0.977892
3419.000000	0.977979
3418.000000	0.978073
3417.000000	0.978166
3416.000000	0.978253
3415.000000	0.978330
3414.000000	0.978403
3413.000000	0.978479
3412.000000	0.978569
3411.000000	0.978676
3410.000000	0.978790
3409.000000	0.978891
3408.000000	0.978967
3407.000000	0.979023
3406.000000	0.979074
3405.000000	0.979129
3404.000000	0.979187
3403.000000	0.979241
3402.000000	0.979287
3401.000000	0.979331
3400.000000	0.979384
3399.000000	0.979453
3398.000000	0.979536
3397.000000	0.979619
3396.000000	0.979691
3395.000000	0.979749
3394.000000	0.979795
3393.000000	0.979827
3392.000000	0.979846
3391.000000	0.979867
3390.000000	0.979909
3389.000000	0.979978
3388.000000	0.980056
3387.000000	0.980121
3386.000000	0.980165
3385.000000	0.980194
3384.000000	0.980216
3383.000000	0.980235
3382.000000	0.980254
3381.000000	0.980276
3380.000000	0.980305
3379.000000	0.980337
3378.000000	0.980373
3377.000000	0.980406
3376.000000	0.980434
3375.000000	0.980456
3374.000000	0.980479
3373.000000	0.980512
3372.000000	0.980554
3371.000000	0.980591
3370.000000	0.980613
3369.000000	0.980624
3368.000000	0.980639
3367.000000	0.980673
3366.000000	0.980720
3365.000000	0.980763
3364.000000	0.980785
3363.000000	0.980782
3362.000000	0.980769
3361.000000	0.980763
3360.000000	0.980773
3359.000000	0.980793
3358.000000	0.980812
3357.000000	0.980821
3356.000000	0.980821
3355.000000	0.980819
3354.000000	0.980826
3353.000000	0.980846
3352.000000	0.980876
3351.000000	0.980910
3350.000000	0.980940
3349.000000	0.980964
3348.000000	0.980979
3347.000000	0.980983
3346.000000	0.980979
3345.000000	0.980974
3344.000000	0.980981
3343.000000	0.981005
3342.000000	0.981043
3341.000000	0.981082
3340.000000	0.981113
3339.000000	0.981135
3338.000000	0.981150
3337.000000	0.981155
3336.000000	0.981155
3335.000000	0.981169
3334.000000	0.981211
3333.000000	0.981279
3332.000000	0.981346
3331.000000	0.981385
3330.000000	0.981386
3329.000000	0.981359
3328.000000	0.981327
3327.000000	0.981310
3326.000000	0.981318
3325.000000	0.981347
3324.000000	0.981382
3323.000000	0.981407
3322.000000	0.981418
3321.000000	0.981431
3320.000000	0.981461
3319.000000	0.981508
3318.000000	0.981555
3317.000000	0.981590
3316.000000	0.981617
3315.000000	0.981647
3314.000000	0.981682
3313.000000	0.981712
3312.000000	0.981736
3311.000000	0.981761
3310.000000	0.981792
3309.000000	0.981824
3308.000000	0.981844
3307.000000	0.981853
3306.000000	0.981866
3305.000000	0.981897
3304.000000	0.981950
3303.000000	0.982007
3302.000000	0.982043
3301.000000	0.982047
3300.000000	0.982039
3299.000000	0.982048
3298.000000	0.982081
3297.000000	0.982118
3296.000000	0.982137
3295.000000	0.982143
3294.000000	0.982163
3293.000000	0.982208
3292.000000	0.982268
3291.000000	0.982323
3290.000000	0.982359
3289.000000	0.982375
3288.000000	0.982376
3287.000000	0.982371
3286.000000	0.982371
3285.000000	0.982379
3284.000000	0.982398
3283.000000	0.982434
3282.000000	0.982493
3281.000000	0.982564
3280.000000	0.982625
3279.000000	0.982657
3278.000000	0.982668
3277.000000	0.982676
3276.000000	0.982695
3275.000000	0.982721
3274.000000	0.982746
3273.000000	0.982768
3272.000000	0.982787
3271.000000	0.982802
3270.000000	0.982807
3269.000000	0.982803
3268.000000	0.982793
3267.000000	0.982790
3266.000000	0.982803
3265.000000	0.982836
3264.000000	0.982887
3263.000000	0.982947
3262.000000	0.983003
3261.000000	0.983045
3260.000000	0.983075
3259.000000	0.983098
3258.000000	0.983114
3257.000000	0.983118
3256.000000	0.983110
3255.000000	0.983106
3254.000000	0.983123
3253.000000	0.983158
3252.000000	0.983198
3251.000000	0.983237
3250.000000	0.983282
3249.000000	0.983335
3248.000000	0.983381
3247.000000	0.983404
3246.000000	0.983407
3245.000000	0.983406
3244.000000	0.983410
3243.000000	0.983416
3242.000000	0.983415
3241.000000	0.983409
3240.000000	0.983405
3239.000000	0.983411
3238.000000	0.983430
3237.000000	0.983460
3236.000000	0.983500
3235.000000	0.983549
3234.000000	0.983601
3233.000000	0.983647
3232.000000	0.983677
3231.000000	0.983687
3230.000000	0.983682
3229.000000	0.983670
3228.000000	0.983664
3227.000000	0.983680
3226.000000	0.983722
3225.000000	0.983776
3224.000000	0.983814
3223.000000	0.983824
3222.000000	0.983820
3221.000000	0.983829
3220.000000	0.983860
3219.000000	0.983899
3218.000000	0.983927
3217.000000	0.983935
3216.000000	0.983929
3215.000000	0.983920
3214.000000	0.983920
3213.000000	0.983935
3212.000000	0.983961
3211.000000	0.983985
3210.000000	0.983995
3209.000000	0.983986
3208.000000	0.983963
3207.000000	0.983935
3206.000000	0.983914
3205.000000	0.983912
3204.000000	0.983932
3203.000000	0.983962
3202.000000	0.983980
3201.000000	0.983974
3200.000000	0.983950
3199.000000	0.983928
3198.000000	0.983920
3197.000000	0.983925
3196.000000	0.983936
3195.000000	0.983949
3194.000000	0.983966
3193.000000	0.983985
3192.000000	0.984002
3191.000000	0.984011
3190.000000	0.984011
3189.000000	0.983999
3188.000000	0.983978
3187.000000	0.983957
3186.000000	0.983944
3185.000000	0.983944
3184.000000	0.983948
3183.000000	0.983948
3182.000000	0.983941
3181.000000	0.983936
3180.000000	0.983942
3179.000000	0.983955
3178.000000	0.983969
3177.000000	0.983981
3176.000000	0.983996
3175.000000	0.984018
3174.000000	0.984045
3173.000000	0.984068
3172.000000	0.984079
3171.000000	0.984074
3170.000000	0.984050
3169.000000	0.984012
3168.000000	0.983974
3167.000000	0.983956
3166.000000	0.983966
3165.000000	0.984000
3164.000000	0.984041
3163.000000	0.984071
3162.000000	0.984086
3161.000000	0.984093
3160.000000	0.984099
3159.000000	0.984100
3158.000000	0.984084
3157.000000	0.984049
3156.000000	0.984010
3155.000000	0.983989
3154.000000	0.983998
3153.000000	0.984026
3152.000000	0.984057
3151.000000	0.984079
3150.000000	0.984089
3149.000000	0.984088
3148.000000	0.984078
3147.000000	0.984063
3146.000000	0.984049
3145.000000	0.984046
3144.000000	0.984065
3143.000000	0.984106
3142.000000	0.984150
3141.000000	0.984174
3140.000000	0.984165
3139.000000	0.984135
3138.000000	0.984106
3137.000000	0.984090
3136.000000	0.984084
3135.000000	0.984084
3134.000000	0.984085
3133.000000	0.984089
3132.000000	0.984097
3131.000000	0.984116
3130.000000	0.984149
3129.000000	0.984191
3128.000000	0.984223
3127.000000	0.984231
3126.000000	0.984212
3125.000000	0.984183
3124.000000	0.984166
3123.000000	0.984165
3122.000000	0.984166
3121.000000	0.984159
3120.000000	0.984152
3119.000000	0.984162
3118.000000	0.984196
3117.000000	0.984235
3116.000000	0.984252
3115.000000	0.984237
3114.000000	0.984202
3113.000000	0.984170
3112.000000	0.984153
3111.000000	0.984147
3110.000000	0.984149
3109.000000	0.984156
3108.000000	0.984162
3107.000000	0.984155
3106.000000	0.984129
3105.000000	0.984091
3104.000000	0.984055
3103.000000	0.984028
3102.000000	0.984001
3101.000000	0.983964
3100.000000	0.983919
3099.000000	0.983877
3098.000000	0.983843
3097.000000	0.983815
3096.000000	0.983794
3095.000000	0.983781
3094.000000	0.983765
3093.000000	0.983731
3092.000000	0.983669
3091.000000	0.983589
3090.000000	0.983517
3089.000000	0.983475
3088.000000	0.983465
3087.000000	0.983469
3086.000000	0.983461
3085.000000	0.983426
3084.000000	0.983375
3083.000000	0.983333
3082.000000	0.983307
3081.000000	0.983280
3080.000000	0.983234
3079.000000	0.983167
3078.000000	0.983099
3077.000000	0.983050
3076.000000	0.983020
3075.000000	0.982991
3074.000000	0.982943
3073.000000	0.982871
3072.000000	0.982790
3071.000000	0.982717
3070.000000	0.982664
3069.000000	0.982628
3068.000000	0.982607
3067.000000	0.982594
3066.000000	0.982580
3065.000000	0.982553
3064.000000	0.982505
3063.000000	0.982447
3062.000000	0.982391
3061.000000	0.982342
3060.000000	0.982297
3059.000000	0.982250
3058.000000	0.982205
3057.000000	0.982164
3056.000000	0.982128
3055.000000	0.982091
3054.000000	0.982050
3053.000000	0.982005
3052.000000	0.981961
3051.000000	0.981921
3050.000000	0.981880
3049.000000	0.981827
3048.000000	0.981760
3047.000000	0.981681
3046.000000	0.981607
3045.000000	0.981548
3044.000000	0.981513
3043.000000	0.981492
3042.000000	0.981470
3041.000000	0.981430
3040.000000	0.981368
3039.000000	0.981296
3038.000000	0.981228
3037.000000	0.981168
3036.000000	0.981115
3035.000000	0.981072
3034.000000	0.981048
3033.000000	0.981043
3032.000000	0.981045
3031.000000	0.981035
3030.000000	0.981001
3029.000000	0.980945
3028.000000	0.980881
3027.000000	0.980824
3026.000000	0.980776
3025.000000	0.980737
3024.000000	0.980705
3023.000000	0.980673
3022.000000	0.980632
3021.000000	0.980575
3020.000000	0.980508
3019.000000	0.980448
3018.000000	0.980399
3017.000000	0.980345
3016.000000	0.980270
3015.000000	0.980178
3014.000000	0.980090
3013.000000	0.980021
3012.000000	0.979976
3011.000000	0.979947
3010.000000	0.979923
3009.000000	0.979889
3008.000000	0.979834
3007.000000	0.979768
3006.000000	0.979709
3005.000000	0.979665
3004.000000	0.979626
3003.000000	0.979577
3002.000000	0.979518
3001.000000	0.979460
3000.000000	0.979407
2999.000000	0.979348
2998.000000	0.979268
2997.000000	0.979166
2996.000000	0.979061
2995.000000	0.978977
2994.000000	0.978918
2993.000000	0.978868
2992.000000	0.978809
2991.000000	0.978734
2990.000000	0.978653
2989.000000	0.978583
2988.000000	0.978529
2987.000000	0.978486
2986.000000	0.978443
2985.000000	0.978390
2984.000000	0.978322
2983.000000	0.978244
2982.000000	0.978161
2981.000000	0.978081
2980.000000	0.978004
2979.000000	0.977934
2978.000000	0.977868
2977.000000	0.977808
2976.000000	0.977755
2975.000000	0.977711
2974.000000	0.977673
2973.000000	0.977627
2972.000000	0.977561
2971.000000	0.977474
2970.000000	0.977377
2969.000000	0.977282
2968.000000	0.977189
2967.000000	0.977095
2966.000000	0.976998
2965.000000	0.976898
2964.000000	0.976798
2963.000000	0.976696
2962.000000	0.976590
2961.000000	0.976479
2960.000000	0.976359
2959.000000	0.976229
2958.000000	0.976094
2957.000000	0.975964
2956.000000	0.975842
2955.000000	0.975726
2954.000000	0.975613
2953.000000	0.975505
2952.000000	0.975403
2951.000000	0.975303
2950.000000	0.975196
2949.000000	0.975077
2948.000000	0.974955
2947.000000	0.974842
2946.000000	0.974743
2945.000000	0.974647
2944.000000	0.974548
2943.000000	0.974448
2942.000000	0.974356
2941.000000	0.974267
2940.000000	0.974170
2939.000000	0.974060
2938.000000	0.973945
2937.000000	0.973833
2936.000000	0.973721
2935.000000	0.973598
2934.000000	0.973464
2933.000000	0.973331
2932.000000	0.973212
2931.000000	0.973107
2930.000000	0.973004
2929.000000	0.972896
2928.000000	0.972775
2927.000000	0.972629
2926.000000	0.972452
2925.000000	0.972253
2924.000000	0.972053
2923.000000	0.971873
2922.000000	0.971714
2921.000000	0.971562
2920.000000	0.971409
2919.000000	0.971258
2918.000000	0.971116
2917.000000	0.970986
2916.000000	0.970870
2915.000000	0.970763
2914.000000	0.970658
2913.000000	0.970549
2912.000000	0.970434
2911.000000	0.970315
2910.000000	0.970193
2909.000000	0.970067
2908.000000	0.969936
2907.000000	0.969797
2906.000000	0.969649
2905.000000	0.969490
2904.000000	0.969326
2903.000000	0.969171
2902.000000	0.969029
2901.000000	0.968897
2900.000000	0.968770
2899.000000	0.968649
2898.000000	0.968535
2897.000000	0.968419
2896.000000	0.968288
2895.000000	0.968143
2894.000000	0.967998
2893.000000	0.967867
2892.000000	0.967749
2891.000000	0.967632
2890.000000	0.967502
2889.000000	0.967357
2888.000000	0.967209
2887.000000	0.967065
2886.000000	0.966928
2885.000000	0.966795
2884.000000	0.966666
2883.000000	0.966543
2882.000000	0.966422
2881.000000	0.966297
2880.000000	0.966166
2879.000000	0.966032
2878.000000	0.965898
2877.000000	0.965762
2876.000000	0.965621
2875.000000	0.965475
2874.000000	0.965332
2873.000000	0.965198
2872.000000	0.965077
2871.000000	0.964971
2870.000000	0.964874
2869.000000	0.964779
2868.000000	0.964681
2867.000000	0.964573
2866.000000	0.964448
2865.000000	0.964295
2864.000000	0.964115
2863.000000	0.963929
2862.000000	0.963758
2861.000000	0.963607
2860.000000	0.963465
2859.000000	0.963326
2858.000000	0.963192
2857.000000	0.963068
2856.000000	0.962946
2855.000000	0.962818
2854.000000	0.962683
2853.000000	0.962549
2852.000000	0.962421
2851.000000	0.962301
2850.000000	0.962187
2849.000000	0.962081
2848.000000	0.961983
2847.000000	0.961892
2846.000000	0.961804
2845.000000	0.961720
2844.000000	0.961642
2843.000000	0.961571
2842.000000	0.961497
2841.000000	0.961413
2840.000000	0.961320
2839.000000	0.961230
2838.000000	0.961151
2837.000000	0.961078
2836.000000	0.960998
2835.000000	0.960905
2834.000000	0.960802
2833.000000	0.960701
2832.000000	0.960609
2831.000000	0.960523
2830.000000	0.960435
2829.000000	0.960337
2828.000000	0.960233
2827.000000	0.960135
2826.000000	0.960050
2825.000000	0.959977
2824.000000	0.959906
2823.000000	0.959833
2822.000000	0.959757
2821.000000	0.959673
2820.000000	0.959579
2819.000000	0.959478
2818.000000	0.959384
2817.000000	0.959302
2816.000000	0.959229
2815.000000	0.959151
2814.000000	0.959061
2813.000000	0.958961
2812.000000	0.958857
2811.000000	0.958755
2810.000000	0.958665
2809.000000	0.958589
2808.000000	0.958522
2807.000000	0.958457
2806.000000	0.958390
2805.000000	0.958328
2804.000000	0.958276
2803.000000	0.958228
2802.000000	0.958171
2801.000000	0.958093
2800.000000	0.957992
2799.000000	0.957884
2798.000000	0.957794
2797.000000	0.957737
2796.000000	0.957702
2795.000000	0.957668
2794.000000	0.957619
2793.000000	0.957555
2792.000000	0.957486
2791.000000	0.957419
2790.000000	0.957352
2789.000000	0.957287
2788.000000	0.957226
2787.000000	0.957175
2786.000000	0.957139
2785.000000	0.957117
2784.000000	0.957098
2783.000000	0.957071
2782.000000	0.957028
2781.000000	0.956972
2780.000000	0.956907
2779.000000	0.956839
2778.000000	0.956776
2777.000000	0.956720
2776.000000	0.956666
2775.000000	0.956609
2774.000000	0.956552
2773.000000	0.956501
2772.000000	0.956455
2771.000000	0.956407
2770.000000	0.956357
2769.000000	0.956312
2768.000000	0.956280
2767.000000	0.956257
2766.000000	0.956234
2765.000000	0.956207
2764.000000	0.956180
2763.000000	0.956152
2762.000000	0.956118
2761.000000	0.956079
2760.000000	0.956042
2759.000000	0.956005
2758.000000	0.955964
2757.000000	0.955920
2756.000000	0.955889
2755.000000	0.955881
2754.000000	0.955887
2753.000000	0.955884
2752.000000	0.955854
2751.000000	0.955803
2750.000000	0.955743
2749.000000	0.955690
2748.000000	0.955651
2747.000000	0.955631
2746.000000	0.955625
2745.000000	0.955622
2744.000000	0.955614
2743.000000	0.955602
2742.000000	0.955591
2741.000000	0.955580
2740.000000	0.955562
2739.000000	0.955538
2738.000000	0.955509
2737.000000	0.955481
2736.000000	0.955453
2735.000000	0.955422
2734.000000	0.955386
2733.000000	0.955350
2732.000000	0.955325
2731.000000	0.955319
2730.000000	0.955329
2729.000000	0.955338
2728.000000	0.955332
2727.000000	0.955310
2726.000000	0.955280
2725.000000	0.955250
2724.000000	0.955220
2723.000000	0.955191
2722.000000	0.955171
2721.000000	0.955165
2720.000000	0.955169
2719.000000	0.955172
2718.000000	0.955170
2717.000000	0.955171
2716.000000	0.955177
2715.000000	0.955181
2714.000000	0.955176
2713.000000	0.955169
2712.000000	0.955171
2711.000000	0.955181
2710.000000	0.955187
2709.000000	0.955174
2708.000000	0.955148
2707.000000	0.955124
2706.000000	0.955113
2705.000000	0.955119
2704.000000	0.955139
2703.000000	0.955164
2702.000000	0.955186
2701.000000	0.955202
2700.000000	0.955219
2699.000000	0.955241
2698.000000	0.955263
2697.000000	0.955270
2696.000000	0.955258
2695.000000	0.955240
2694.000000	0.955237
2693.000000	0.955257
2692.000000	0.955292
2691.000000	0.955326
2690.000000	0.955350
2689.000000	0.955365
2688.000000	0.955377
2687.000000	0.955391
2686.000000	0.955411
2685.000000	0.955439
2684.000000	0.955472
2683.000000	0.955504
2682.000000	0.955526
2681.000000	0.955540
2680.000000	0.955554
2679.000000	0.955574
2678.000000	0.955594
2677.000000	0.955607
2676.000000	0.955611
2675.000000	0.955612
2674.000000	0.955619
2673.000000	0.955642
2672.000000	0.955681
2671.000000	0.955730
2670.000000	0.955773
2669.000000	0.955802
2668.000000	0.955822
2667.000000	0.955845
2666.000000	0.955878
2665.000000	0.955916
2664.000000	0.955951
2663.000000	0.955983
2662.000000	0.956017
2661.000000	0.956061
2660.000000	0.956116
2659.000000	0.956173
2658.000000	0.956224
2657.000000	0.956272
2656.000000	0.956326
2655.000000	0.956384
2654.000000	0.956441
2653.000000	0.956491
2652.000000	0.956538
2651.000000	0.956583
2650.000000	0.956620
2649.000000	0.956647
2648.000000	0.956679
2647.000000	0.956735
2646.000000	0.956817
2645.000000	0.956903
2644.000000	0.956972
2643.000000	0.957024
2642.000000	0.957069
2641.000000	0.957119
2640.000000	0.957171
2639.000000	0.957224
2638.000000	0.957280
2637.000000	0.957334
2636.000000	0.957376
2635.000000	0.957403
2634.000000	0.957426
2633.000000	0.957467
2632.000000	0.957536
2631.000000	0.957621
2630.000000	0.957697
2629.000000	0.957753
2628.000000	0.957795
2627.000000	0.957838
2626.000000	0.957895
2625.000000	0.957966
2624.000000	0.958047
2623.000000	0.958130
2622.000000	0.958209
2621.000000	0.958280
2620.000000	0.958340
2619.000000	0.958388
2618.000000	0.958430
2617.000000	0.958478
2616.000000	0.958544
2615.000000	0.958624
2614.000000	0.958705
2613.000000	0.958773
2612.000000	0.958830
2611.000000	0.958885
2610.000000	0.958942
2609.000000	0.959001
2608.000000	0.959059
2607.000000	0.959119
2606.000000	0.959185
2605.000000	0.959256
2604.000000	0.959326
2603.000000	0.959393
2602.000000	0.959460
2601.000000	0.959534
2600.000000	0.959617
2599.000000	0.959699
2598.000000	0.959773
2597.000000	0.959839
2596.000000	0.959906
2595.000000	0.959976
2594.000000	0.960041
2593.000000	0.960093
2592.000000	0.960139
2591.000000	0.960192
2590.000000	0.960259
2589.000000	0.960337
2588.000000	0.960423
2587.000000	0.960513
2586.000000	0.960605
2585.000000	0.960697
2584.000000	0.960786
2583.000000	0.960869
2582.000000	0.960946
2581.000000	0.961022
2580.000000	0.961105
2579.000000	0.961197
2578.000000	0.961286
2577.000000	0.961356
2576.000000	0.961404
2575.000000	0.961445
2574.000000	0.961501
2573.000000	0.961585
2572.000000	0.961688
2571.000000	0.961789
2570.000000	0.961870
2569.000000	0.961932
2568.000000	0.961995
2567.000000	0.962080
2566.000000	0.962193
2565.000000	0.962323
2564.000000	0.962449
2563.000000	0.962555
2562.000000	0.962636
2561.000000	0.962697
2560.000000	0.962756
2559.000000	0.962828
2558.000000	0.962915
2557.000000	0.963008
2556.000000	0.963097
2555.000000	0.963183
2554.000000	0.963274
2553.000000	0.963372
2552.000000	0.963477
2551.000000	0.963582
2550.000000	0.963683
2549.000000	0.963780
2548.000000	0.963875
2547.000000	0.963972
2546.000000	0.964071
2545.000000	0.964170
2544.000000	0.964273
2543.000000	0.964383
2542.000000	0.964495
2541.000000	0.964600
2540.000000	0.964695
2539.000000	0.964786
2538.000000	0.964881
2537.000000	0.964981
2536.000000	0.965083
2535.000000	0.965187
2534.000000	0.965303
2533.000000	0.965433
2532.000000	0.965571
2531.000000	0.965705
2530.000000	0.965823
2529.000000	0.965924
2528.000000	0.966018
2527.000000	0.966112
2526.000000	0.966210
2525.000000	0.966312
2524.000000	0.966420
2523.000000	0.966528
2522.000000	0.966630
2521.000000	0.966719
2520.000000	0.966804
2519.000000	0.966903
2518.000000	0.967023
2517.000000	0.967156
2516.000000	0.967282
2515.000000	0.967393
2514.000000	0.967496
2513.000000	0.967604
2512.000000	0.967717
2511.000000	0.967828
2510.000000	0.967926
2509.000000	0.968016
2508.000000	0.968112
2507.000000	0.968222
2506.000000	0.968336
2505.000000	0.968440
2504.000000	0.968531
2503.000000	0.968621
2502.000000	0.968717
2501.000000	0.968814
2500.000000	0.968898
2499.000000	0.968969
2498.000000	0.969042
2497.000000	0.969130
2496.000000	0.969232
2495.000000	0.969338
2494.000000	0.969433
2493.000000	0.969508
2492.000000	0.969564
2491.000000	0.969609
2490.000000	0.969654
2489.000000	0.969714
2488.000000	0.969796
2487.000000	0.969894
2486.000000	0.969995
2485.000000	0.970080
2484.000000	0.970147
2483.000000	0.970200
2482.000000	0.970249
2481.000000	0.970299
2480.000000	0.970358
2479.000000	0.970425
2478.000000	0.970489
2477.000000	0.970532
2476.000000	0.970553
2475.000000	0.970571
2474.000000	0.970608
2473.000000	0.970662
2472.000000	0.970716
2471.000000	0.970757
2470.000000	0.970784
2469.000000	0.970809
2468.000000	0.970840
2467.000000	0.970887
2466.000000	0.970949
2465.000000	0.971015
2464.000000	0.971069
2463.000000	0.971105
2462.000000	0.971131
2461.000000	0.971156
2460.000000	0.971184
2459.000000	0.971211
2458.000000	0.971234
2457.000000	0.971251
2456.000000	0.971261
2455.000000	0.971267
2454.000000	0.971278
2453.000000	0.971298
2452.000000	0.971319
2451.000000	0.971331
2450.000000	0.971326
2449.000000	0.971311
2448.000000	0.971291
2447.000000	0.971272
2446.000000	0.971257
2445.000000	0.971247
2444.000000	0.971244
2443.000000	0.971244
2442.000000	0.971240
2441.000000	0.971231
2440.000000	0.971217
2439.000000	0.971197
2438.000000	0.971171
2437.000000	0.971140
2436.000000	0.971111
2435.000000	0.971084
2434.000000	0.971054
2433.000000	0.971017
2432.000000	0.970977
2431.000000	0.970935
2430.000000	0.970884
2429.000000	0.970819
2428.000000	0.970753
2427.000000	0.970706
2426.000000	0.970689
2425.000000	0.970685
2424.000000	0.970670
2423.000000	0.970631
2422.000000	0.970577
2421.000000	0.970524
2420.000000	0.970486
2419.000000	0.970466
2418.000000	0.970453
2417.000000	0.970435
2416.000000	0.970404
2415.000000	0.970363
2414.000000	0.970317
2413.000000	0.970267
2412.000000	0.970214
2411.000000	0.970158
2410.000000	0.970105
2409.000000	0.970063
2408.000000	0.970033
2407.000000	0.970010
2406.000000	0.969985
2405.000000	0.969958
2404.000000	0.969933
2403.000000	0.969914
2402.000000	0.969890
2401.000000	0.969851
2400.000000	0.969801
2399.000000	0.969757
2398.000000	0.969732
2397.000000	0.969719
2396.000000	0.969710
2395.000000	0.969699
2394.000000	0.969687
2393.000000	0.969671
2392.000000	0.969654
2391.000000	0.969647
2390.000000	0.969660
2389.000000	0.969688
2388.000000	0.969718
2387.000000	0.969741
2386.000000	0.969768
2385.000000	0.969812
2384.000000	0.969884
2383.000000	0.969998
2382.000000	0.970173
2381.000000	0.970429
2380.000000	0.970778
2379.000000	0.971227
2378.000000	0.971781
2377.000000	0.972443
2376.000000	0.973203
2375.000000	0.974042
2374.000000	0.974944
2373.000000	0.975895
2372.000000	0.976888
2371.000000	0.977914
2370.000000	0.978954
2369.000000	0.979972
2368.000000	0.980925
2367.000000	0.981780
2366.000000	0.982518
2365.000000	0.983130
2364.000000	0.983607
2363.000000	0.983934
2362.000000	0.984092
2361.000000	0.984059
2360.000000	0.983815
2359.000000	0.983358
2358.000000	0.982699
2357.000000	0.981862
2356.000000	0.980860
2355.000000	0.979700
2354.000000	0.978393
2353.000000	0.976985
2352.000000	0.975597
2351.000000	0.974445
2350.000000	0.973786
2349.000000	0.973802
2348.000000	0.974508
2347.000000	0.975748
2346.000000	0.977294
2345.000000	0.978943
2344.000000	0.980551
2343.000000	0.982005
2342.000000	0.983191
2341.000000	0.983988
2340.000000	0.984310
2339.000000	0.984170
2338.000000	0.983692
2337.000000	0.983066
2336.000000	0.982452
2335.000000	0.981925
2334.000000	0.981480
2333.000000	0.981087
2332.000000	0.980715
2331.000000	0.980342
2330.000000	0.979956
2329.000000	0.979558
2328.000000	0.979150
2327.000000	0.978724
2326.000000	0.978271
2325.000000	0.977794
2324.000000	0.977317
2323.000000	0.976868
2322.000000	0.976456
2321.000000	0.976073
2320.000000	0.975697
2319.000000	0.975317
2318.000000	0.974935
2317.000000	0.974572
2316.000000	0.974245
2315.000000	0.973960
2314.000000	0.973712
2313.000000	0.973493
2312.000000	0.973296
2311.000000	0.973116
2310.000000	0.972953
2309.000000	0.972811
2308.000000	0.972686
2307.000000	0.972570
2306.000000	0.972459
2305.000000	0.972363
2304.000000	0.972292
2303.000000	0.972244
2302.000000	0.972206
2301.000000	0.972173
2300.000000	0.972150
2299.000000	0.972140
2298.000000	0.972142
2297.000000	0.972151
2296.000000	0.972167
2295.000000	0.972186
2294.000000	0.972203
2293.000000	0.972211
2292.000000	0.972208
2291.000000	0.972193
2290.000000	0.972170
2289.000000	0.972149
2288.000000	0.972140
2287.000000	0.972140
2286.000000	0.972145
2285.000000	0.972155
2284.000000	0.972172
2283.000000	0.972197
2282.000000	0.972233
2281.000000	0.972283
2280.000000	0.972345
2279.000000	0.972409
2278.000000	0.972464
2277.000000	0.972508
2276.000000	0.972550
2275.000000	0.972589
2274.000000	0.972616
2273.000000	0.972626
2272.000000	0.972627
2271.000000	0.972632
2270.000000	0.972646
2269.000000	0.972667
2268.000000	0.972690
2267.000000	0.972715
2266.000000	0.972743
2265.000000	0.972776
2264.000000	0.972812
2263.000000	0.972848
2262.000000	0.972877
2261.000000	0.972898
2260.000000	0.972913
2259.000000	0.972921
2258.000000	0.972922
2257.000000	0.972926
2256.000000	0.972944
2255.000000	0.972976
2254.000000	0.973005
2253.000000	0.973016
2252.000000	0.973013
2251.000000	0.973011
2250.000000	0.973021
2249.000000	0.973038
2248.000000	0.973055
2247.000000	0.973066
2246.000000	0.973070
2245.000000	0.973074
2244.000000	0.973087
2243.000000	0.973111
2242.000000	0.973145
2241.000000	0.973186
2240.000000	0.973225
2239.000000	0.973253
2238.000000	0.973262
2237.000000	0.973256
2236.000000	0.973248
2235.000000	0.973249
2234.000000	0.973260
2233.000000	0.973272
2232.000000	0.973281
2231.000000	0.973287
2230.000000	0.973294
2229.000000	0.973304
2228.000000	0.973315
2227.000000	0.973322
2226.000000	0.973325
2225.000000	0.973336
2224.000000	0.973363
2223.000000	0.973393
2222.000000	0.973405
2221.000000	0.973392
2220.000000	0.973368
2219.000000	0.973357
2218.000000	0.973362
2217.000000	0.973374
2216.000000	0.973385
2215.000000	0.973393
2214.000000	0.973399
2213.000000	0.973403
2212.000000	0.973406
2211.000000	0.973410
2210.000000	0.973409
2209.000000	0.973401
2208.000000	0.973394
2207.000000	0.973395
2206.000000	0.973405
2205.000000	0.973413
2204.000000	0.973414
2203.000000	0.973405
2202.000000	0.973392
2201.000000	0.973378
2200.000000	0.973364
2199.000000	0.973343
2198.000000	0.973313
2197.000000	0.973280
2196.000000	0.973263
2195.000000	0.973271
2194.000000	0.973294
2193.000000	0.973306
2192.000000	0.973290
2191.000000	0.973249
2190.000000	0.973212
2189.000000	0.973204
2188.000000	0.973224
2187.000000	0.973247
2186.000000	0.973246
2185.000000	0.973219
2184.000000	0.973186
2183.000000	0.973158
2182.000000	0.973134
2181.000000	0.973108
2180.000000	0.973085
2179.000000	0.973070
2178.000000	0.973055
2177.000000	0.973029
2176.000000	0.972990
2175.000000	0.972948
2174.000000	0.972909
2173.000000	0.972874
2172.000000	0.972837
2171.000000	0.972789
2170.000000	0.972736
2169.000000	0.972694
2168.000000	0.972678
2167.000000	0.972679
2166.000000	0.972673
2165.000000	0.972641
2164.000000	0.972586
2163.000000	0.972522
2162.000000	0.972461
2161.000000	0.972415
2160.000000	0.972390
2159.000000	0.972382
2158.000000	0.972369
2157.000000	0.972333
2156.000000	0.972277
2155.000000	0.972218
2154.000000	0.972170
2153.000000	0.972134
2152.000000	0.972105
2151.000000	0.972080
2150.000000	0.972047
2149.000000	0.972000
2148.000000	0.971941
2147.000000	0.971877
2146.000000	0.971819
2145.000000	0.971770
2144.000000	0.971729
2143.000000	0.971689
2142.000000	0.971646
2141.000000	0.971596
2140.000000	0.971537
2139.000000	0.971465
2138.000000	0.971377
2137.000000	0.971283
2136.000000	0.971202
2135.000000	0.971143
2134.000000	0.971096
2133.000000	0.971046
2132.000000	0.970988
2131.000000	0.970923
2130.000000	0.970856
2129.000000	0.970788
2128.000000	0.970724
2127.000000	0.970663
2126.000000	0.970597
2125.000000	0.970524
2124.000000	0.970450
2123.000000	0.970381
2122.000000	0.970317
2121.000000	0.970251
2120.000000	0.970183
2119.000000	0.970117
2118.000000	0.970053
2117.000000	0.969986
2116.000000	0.969914
2115.000000	0.969837
2114.000000	0.969754
2113.000000	0.969670
2112.000000	0.969590
2111.000000	0.969514
2110.000000	0.969437
2109.000000	0.969356
2108.000000	0.969273
2107.000000	0.969189
2106.000000	0.969093
2105.000000	0.968984
2104.000000	0.968869
2103.000000	0.968766
2102.000000	0.968679
2101.000000	0.968601
2100.000000	0.968526
2099.000000	0.968451
2098.000000	0.968375
2097.000000	0.968294
2096.000000	0.968206
2095.000000	0.968113
2094.000000	0.968021
2093.000000	0.967930
2092.000000	0.967840
2091.000000	0.967750
2090.000000	0.967662
2089.000000	0.967576
2088.000000	0.967488
2087.000000	0.967389
2086.000000	0.967275
2085.000000	0.967156
2084.000000	0.967045
2083.000000	0.966947
2082.000000	0.966854
2081.000000	0.966760
2080.000000	0.966670
2079.000000	0.966587
2078.000000	0.966504
2077.000000	0.966414
2076.000000	0.966311
2075.000000	0.966198
2074.000000	0.966083
2073.000000	0.965978
2072.000000	0.965888
2071.000000	0.965802
2070.000000	0.965703
2069.000000	0.965592
2068.000000	0.965485
2067.000000	0.965391
2066.000000	0.965299
2065.000000	0.965200
2064.000000	0.965100
2063.000000	0.965003
2062.000000	0.964898
2061.000000	0.964776
2060.000000	0.964653
2059.000000	0.964551
2058.000000	0.964468
2057.000000	0.964381
2056.000000	0.964273
2055.000000	0.964150
2054.000000	0.964030
2053.000000	0.963926
2052.000000	0.963839
2051.000000	0.963760
2050.000000	0.963675
2049.000000	0.963574
2048.000000	0.963464
2047.000000	0.963359
2046.000000	0.963268
2045.000000	0.963185
2044.000000	0.963102
2043.000000	0.963014
2042.000000	0.962921
2041.000000	0.962822
2040.000000	0.962716
2039.000000	0.962605
2038.000000	0.962492
2037.000000	0.962383
2036.000000	0.962284
2035.000000	0.962197
2034.000000	0.962115
2033.000000	0.962037
2032.000000	0.961967
2031.000000	0.961900
2030.000000	0.961823
2029.000000	0.961729
2028.000000	0.961626
2027.000000	0.961528
2026.000000	0.961437
2025.000000	0.961349
2024.000000	0.961263
2023.000000	0.961181
2022.000000	0.961107
2021.000000	0.961042
2020.000000	0.960990
2019.000000	0.960943
2018.000000	0.960880
2017.000000	0.960785
2016.000000	0.960668
2015.000000	0.960556
2014.000000	0.960463
2013.000000	0.960386
2012.000000	0.960311
2011.000000	0.960227
2010.000000	0.960139
2009.000000	0.960056
2008.000000	0.959986
2007.000000	0.959925
2006.000000	0.959865
2005.000000	0.959803
2004.000000	0.959742
2003.000000	0.959681
2002.000000	0.959610
2001.000000	0.959532
2000.000000	0.959462
1999.000000	0.959412
1998.000000	0.959372
1997.000000	0.959330
1996.000000	0.959292
1995.000000	0.959274
1994.000000	0.959267
1993.000000	0.959242
1992.000000	0.959177
1991.000000	0.959081
1990.000000	0.958981
1989.000000	0.958894
1988.000000	0.958826
1987.000000	0.958770
1986.000000	0.958714
1985.000000	0.958652
1984.000000	0.958584
1983.000000	0.958515
1982.000000	0.958453
1981.000000	0.958404
1980.000000	0.958369
1979.000000	0.958342
1978.000000	0.958310
1977.000000	0.958264
1976.000000	0.958209
1975.000000	0.958161
1974.000000	0.958125
1973.000000	0.958095
1972.000000	0.958065
1971.000000	0.958043
1970.000000	0.958043
1969.000000	0.958061
1968.000000	0.958071
1967.000000	0.958043
1966.000000	0.957974
1965.000000	0.957894
1964.000000	0.957838
1963.000000	0.957809
1962.000000	0.957789
1961.000000	0.957756
1960.000000	0.957708
1959.000000	0.957657
1958.000000	0.957615
1957.000000	0.957586
1956.000000	0.957569
1955.000000	0.957559
1954.000000	0.957544
1953.000000	0.957519
1952.000000	0.957488
1951.000000	0.957457
1950.000000	0.957432
1949.000000	0.957415
1948.000000	0.957403
1947.000000	0.957404
1946.000000	0.957432
1945.000000	0.957499
1944.000000	0.957582
1943.000000	0.957621
1942.000000	0.957571
1941.000000	0.957450
1940.000000	0.957326
1939.000000	0.957247
1938.000000	0.957215
1937.000000	0.957204
1936.000000	0.957199
1935.000000	0.957200
1934.000000	0.957210
1933.000000	0.957228
1932.000000	0.957250
1931.000000	0.957261
1930.000000	0.957249
1929.000000	0.957228
1928.000000	0.957225
1927.000000	0.957255
1926.000000	0.957308
1925.000000	0.957360
1924.000000	0.957389
1923.000000	0.957385
1922.000000	0.957377
1921.000000	0.957421
1920.000000	0.957540
1919.000000	0.957670
1918.000000	0.957708
1917.000000	0.957615
1916.000000	0.957460
1915.000000	0.957340
1914.000000	0.957294
1913.000000	0.957309
1912.000000	0.957355
1911.000000	0.957404
1910.000000	0.957425
1909.000000	0.957406
1908.000000	0.957371
1907.000000	0.957354
1906.000000	0.957361
1905.000000	0.957376
1904.000000	0.957386
1903.000000	0.957392
1902.000000	0.957393
1901.000000	0.957392
1900.000000	0.957399
1899.000000	0.957427
1898.000000	0.957473
1897.000000	0.957523
1896.000000	0.957558
1895.000000	0.957561
1894.000000	0.957542
1893.000000	0.957551
1892.000000	0.957631
1891.000000	0.957757
1890.000000	0.957843
1889.000000	0.957833
1888.000000	0.957757
1887.000000	0.957679
1886.000000	0.957631
1885.000000	0.957610
1884.000000	0.957616
1883.000000	0.957646
1882.000000	0.957677
1881.000000	0.957697
1880.000000	0.957714
1879.000000	0.957740
1878.000000	0.957764
1877.000000	0.957772
1876.000000	0.957772
1875.000000	0.957786
1874.000000	0.957836
1873.000000	0.957962
1872.000000	0.958210
1871.000000	0.958545
1870.000000	0.958827
1869.000000	0.958913
1868.000000	0.958792
1867.000000	0.958577
1866.000000	0.958387
1865.000000	0.958273
1864.000000	0.958236
1863.000000	0.958255
1862.000000	0.958291
1861.000000	0.958310
1860.000000	0.958316
1859.000000	0.958330
1858.000000	0.958350
1857.000000	0.958367
1856.000000	0.958390
1855.000000	0.958440
1854.000000	0.958502
1853.000000	0.958550
1852.000000	0.958594
1851.000000	0.958668
1850.000000	0.958777
1849.000000	0.958921
1848.000000	0.959163
1847.000000	0.959574
1846.000000	0.960087
1845.000000	0.960455
1844.000000	0.960458
1843.000000	0.960114
1842.000000	0.959672
1841.000000	0.959372
1840.000000	0.959283
1839.000000	0.959320
1838.000000	0.959378
1837.000000	0.959412
1836.000000	0.959431
1835.000000	0.959472
1834.000000	0.959591
1833.000000	0.959833
1832.000000	0.960177
1831.000000	0.960494
1830.000000	0.960641
1829.000000	0.960610
1828.000000	0.960541
1827.000000	0.960568
1826.000000	0.960667
1825.000000	0.960714
1824.000000	0.960649
1823.000000	0.960530
1822.000000	0.960441
1821.000000	0.960416
1820.000000	0.960452
1819.000000	0.960538
1818.000000	0.960645
1817.000000	0.960733
1816.000000	0.960798
1815.000000	0.960875
1814.000000	0.960995
1813.000000	0.961156
1812.000000	0.961322
1811.000000	0.961452
1810.000000	0.961511
1809.000000	0.961505
1808.000000	0.961484
1807.000000	0.961508
1806.000000	0.961591
1805.000000	0.961724
1804.000000	0.961912
1803.000000	0.962154
1802.000000	0.962398
1801.000000	0.962569
1800.000000	0.962632
1799.000000	0.962610
1798.000000	0.962557
1797.000000	0.962568
1796.000000	0.962777
1795.000000	0.963253
1794.000000	0.963854
1793.000000	0.964275
1792.000000	0.964296
1791.000000	0.963964
1790.000000	0.963527
1789.000000	0.963227
1788.000000	0.963171
1787.000000	0.963315
1786.000000	0.963520
1785.000000	0.963659
1784.000000	0.963722
1783.000000	0.963791
1782.000000	0.963911
1781.000000	0.964042
1780.000000	0.964127
1779.000000	0.964174
1778.000000	0.964251
1777.000000	0.964467
1776.000000	0.964949
1775.000000	0.965741
1774.000000	0.966635
1773.000000	0.967229
1772.000000	0.967266
1771.000000	0.966895
1770.000000	0.966486
1769.000000	0.966241
1768.000000	0.966075
1767.000000	0.965874
1766.000000	0.965725
1765.000000	0.965817
1764.000000	0.966187
1763.000000	0.966632
1762.000000	0.966891
1761.000000	0.966884
1760.000000	0.966775
1759.000000	0.966777
1758.000000	0.966918
1757.000000	0.967048
1756.000000	0.967082
1755.000000	0.967169
1754.000000	0.967527
1753.000000	0.968149
1752.000000	0.968750
1751.000000	0.969045
1750.000000	0.968988
1749.000000	0.968743
1748.000000	0.968484
1747.000000	0.968303
1746.000000	0.968225
1745.000000	0.968251
1744.000000	0.968381
1743.000000	0.968638
1742.000000	0.969027
1741.000000	0.969429
1740.000000	0.969627
1739.000000	0.969582
1738.000000	0.969643
1737.000000	0.970286
1736.000000	0.971527
1735.000000	0.972715
1734.000000	0.973064
1733.000000	0.972412
1732.000000	0.971309
1731.000000	0.970391
1730.000000	0.969863
1729.000000	0.969593
1728.000000	0.969447
1727.000000	0.969406
1726.000000	0.969460
1725.000000	0.969553
1724.000000	0.969639
1723.000000	0.969757
1722.000000	0.970055
1721.000000	0.970751
1720.000000	0.971919
1719.000000	0.973249
1718.000000	0.974125
1717.000000	0.974111
1716.000000	0.973353
1715.000000	0.972360
1714.000000	0.971512
1713.000000	0.970903
1712.000000	0.970536
1711.000000	0.970427
1710.000000	0.970529
1709.000000	0.970755
1708.000000	0.971080
1707.000000	0.971464
1706.000000	0.971747
1705.000000	0.971861
1704.000000	0.972144
1703.000000	0.973068
1702.000000	0.974528
1701.000000	0.975707
1700.000000	0.975948
1699.000000	0.975546
1698.000000	0.975293
1697.000000	0.975385
1696.000000	0.975223
1695.000000	0.974285
1694.000000	0.972852
1693.000000	0.971657
1692.000000	0.971105
1691.000000	0.971036
1690.000000	0.971134
1689.000000	0.971400
1688.000000	0.972159
1687.000000	0.973598
1686.000000	0.975297
1685.000000	0.976332
1684.000000	0.976028
1683.000000	0.974631
1682.000000	0.973035
1681.000000	0.971938
1680.000000	0.971457
1679.000000	0.971446
1678.000000	0.971824
1677.000000	0.972460
1676.000000	0.972988
1675.000000	0.973046
1674.000000	0.972708
1673.000000	0.972434
1672.000000	0.972561
1671.000000	0.972950
1670.000000	0.973170
1669.000000	0.972933
1668.000000	0.972324
1667.000000	0.971703
1666.000000	0.971429
1665.000000	0.971604
1664.000000	0.971988
1663.000000	0.972196
1662.000000	0.972036
1661.000000	0.971654
1660.000000	0.971322
1659.000000	0.971203
1658.000000	0.971426
1657.000000	0.972300
1656.000000	0.974145
1655.000000	0.976696
1654.000000	0.978822
1653.000000	0.979225
1652.000000	0.977675
1651.000000	0.975342
1650.000000	0.973715
1649.000000	0.973402
1648.000000	0.973932
1647.000000	0.974401
1646.000000	0.974222
1645.000000	0.973419
1644.000000	0.972432
1643.000000	0.971710
1642.000000	0.971419
1641.000000	0.971461
1640.000000	0.971760
1639.000000	0.972420
1638.000000	0.973493
1637.000000	0.974628
1636.000000	0.975172
1635.000000	0.974737
1634.000000	0.973594
1633.000000	0.972405
1632.000000	0.971667
1631.000000	0.971464
1630.000000	0.971589
1629.000000	0.971786
1628.000000	0.971914
1627.000000	0.972006
1626.000000	0.972183
1625.000000	0.972470
1624.000000	0.972685
1623.000000	0.972587
1622.000000	0.972183
1621.000000	0.971850
1620.000000	0.972072
1619.000000	0.972972
1618.000000	0.974085
1617.000000	0.974649
1616.000000	0.974254
1615.000000	0.973197
1614.000000	0.972163
1613.000000	0.971598
1612.000000	0.971468
1611.000000	0.971512
1610.000000	0.971564
1609.000000	0.971590
1608.000000	0.971576
1607.000000	0.971511
1606.000000	0.971433
1605.000000	0.971399
1604.000000	0.971405
1603.000000	0.971402
1602.000000	0.971379
1601.000000	0.971365
1600.000000	0.971380
1599.000000	0.971416
1598.000000	0.971462
1597.000000	0.971510
1596.000000	0.971538
1595.000000	0.971526
1594.000000	0.971487
1593.000000	0.971458
1592.000000	0.971451
1591.000000	0.971455
1590.000000	0.971450
1589.000000	0.971431
1588.000000	0.971405
1587.000000	0.971384
1586.000000	0.971383
1585.000000	0.971408
1584.000000	0.971447
1583.000000	0.971470
1582.000000	0.971460
1581.000000	0.971505
1580.000000	0.971850
1579.000000	0.972729
1578.000000	0.974020
1577.000000	0.975090
1576.000000	0.975223
1575.000000	0.974328
1574.000000	0.973110
1573.000000	0.972412
1572.000000	0.972494
1571.000000	0.972963
1570.000000	0.973258
1569.000000	0.973135
1568.000000	0.972737
1567.000000	0.972349
1566.000000	0.972151
1565.000000	0.972167
1564.000000	0.972464
1563.000000	0.973319
1562.000000	0.975014
1561.000000	0.977301
1560.000000	0.979198
1559.000000	0.979639
1558.000000	0.978486
1557.000000	0.976645
1556.000000	0.975107
1555.000000	0.974167
1554.000000	0.973562
1553.000000	0.973055
1552.000000	0.972646
1551.000000	0.972380
1550.000000	0.972210
1549.000000	0.972124
1548.000000	0.972219
1547.000000	0.972570
1546.000000	0.973122
1545.000000	0.973795
1544.000000	0.974634
1543.000000	0.975756
1542.000000	0.977097
1541.000000	0.978204
1540.000000	0.978408
1539.000000	0.977382
1538.000000	0.975574
1537.000000	0.973957
1536.000000	0.973228
1535.000000	0.973290
1534.000000	0.973496
1533.000000	0.973346
1532.000000	0.972869
1531.000000	0.972410
1530.000000	0.972237
1529.000000	0.972398
1528.000000	0.972777
1527.000000	0.973185
1526.000000	0.973505
1525.000000	0.973850
1524.000000	0.974449
1523.000000	0.975270
1522.000000	0.975863
1521.000000	0.975782
1520.000000	0.975104
1519.000000	0.974344
1518.000000	0.973857
1517.000000	0.973557
1516.000000	0.973222
1515.000000	0.972864
1514.000000	0.972657
1513.000000	0.972650
1512.000000	0.972782
1511.000000	0.973132
1510.000000	0.973960
1509.000000	0.975354
1508.000000	0.976884
1507.000000	0.977733
1506.000000	0.977316
1505.000000	0.975811
1504.000000	0.974041
1503.000000	0.972811
1502.000000	0.972403
1501.000000	0.972622
1500.000000	0.973158
