PE IR       SUBTECH     SPECTRUM    ASCII       PEDS        4.00        
   -1
TE108B1_016.ASC
20/02/21
15:19:41.00
20/02/21
15:19:41.00
Administrator
Sample 016 By Administrator Date Friday, February 21 2020
1500.000000
#HDR
-1
-1
#GR
cm-1
A
1.0
0.0
4000.000000
-1.000000
2501
8
1.072370
0.986064
#DATA
4000.000000	1.001219
3999.000000	1.001213
3998.000000	1.001186
3997.000000	1.001147
3996.000000	1.001108
3995.000000	1.001071
3994.000000	1.001030
3993.000000	1.000988
3992.000000	1.000960
3991.000000	1.000964
3990.000000	1.001000
3989.000000	1.001044
3988.000000	1.001066
3987.000000	1.001052
3986.000000	1.001007
3985.000000	1.000954
3984.000000	1.000907
3983.000000	1.000869
3982.000000	1.000830
3981.000000	1.000786
3980.000000	1.000741
3979.000000	1.000702
3978.000000	1.000668
3977.000000	1.000633
3976.000000	1.000593
3975.000000	1.000548
3974.000000	1.000498
3973.000000	1.000442
3972.000000	1.000380
3971.000000	1.000314
3970.000000	1.000251
3969.000000	1.000192
3968.000000	1.000132
3967.000000	1.000063
3966.000000	0.999980
3965.000000	0.999881
3964.000000	0.999776
3963.000000	0.999677
3962.000000	0.999593
3961.000000	0.999526
3960.000000	0.999471
3959.000000	0.999421
3958.000000	0.999366
3957.000000	0.999294
3956.000000	0.999199
3955.000000	0.999087
3954.000000	0.998969
3953.000000	0.998857
3952.000000	0.998752
3951.000000	0.998652
3950.000000	0.998552
3949.000000	0.998455
3948.000000	0.998366
3947.000000	0.998285
3946.000000	0.998198
3945.000000	0.998088
3944.000000	0.997952
3943.000000	0.997813
3942.000000	0.997691
3941.000000	0.997596
3940.000000	0.997516
3939.000000	0.997438
3938.000000	0.997349
3937.000000	0.997242
3936.000000	0.997109
3935.000000	0.996948
3934.000000	0.996764
3933.000000	0.996574
3932.000000	0.996406
3931.000000	0.996279
3930.000000	0.996196
3929.000000	0.996131
3928.000000	0.996050
3927.000000	0.995931
3926.000000	0.995784
3925.000000	0.995642
3924.000000	0.995533
3923.000000	0.995451
3922.000000	0.995354
3921.000000	0.995202
3920.000000	0.994991
3919.000000	0.994759
3918.000000	0.994556
3917.000000	0.994416
3916.000000	0.994341
3915.000000	0.994307
3914.000000	0.994275
3913.000000	0.994212
3912.000000	0.994110
3911.000000	0.993981
3910.000000	0.993841
3909.000000	0.993696
3908.000000	0.993526
3907.000000	0.993308
3906.000000	0.993036
3905.000000	0.992734
3904.000000	0.992449
3903.000000	0.992225
3902.000000	0.992080
3901.000000	0.992003
3900.000000	0.991967
3899.000000	0.991954
3898.000000	0.991951
3897.000000	0.991949
3896.000000	0.991932
3895.000000	0.991870
3894.000000	0.991736
3893.000000	0.991534
3892.000000	0.991313
3891.000000	0.991143
3890.000000	0.991048
3889.000000	0.990988
3888.000000	0.990889
3887.000000	0.990730
3886.000000	0.990562
3885.000000	0.990459
3884.000000	0.990437
3883.000000	0.990436
3882.000000	0.990380
3881.000000	0.990255
3880.000000	0.990118
3879.000000	0.990026
3878.000000	0.989978
3877.000000	0.989928
3876.000000	0.989842
3875.000000	0.989724
3874.000000	0.989581
3873.000000	0.989397
3872.000000	0.989154
3871.000000	0.988888
3870.000000	0.988689
3869.000000	0.988628
3868.000000	0.988681
3867.000000	0.988745
3866.000000	0.988732
3865.000000	0.988639
3864.000000	0.988537
3863.000000	0.988483
3862.000000	0.988474
3861.000000	0.988472
3860.000000	0.988456
3859.000000	0.988412
3858.000000	0.988287
3857.000000	0.987994
3856.000000	0.987499
3855.000000	0.986907
3854.000000	0.986442
3853.000000	0.986306
3852.000000	0.986535
3851.000000	0.986978
3850.000000	0.987418
3849.000000	0.987702
3848.000000	0.987802
3847.000000	0.987768
3846.000000	0.987666
3845.000000	0.987542
3844.000000	0.987431
3843.000000	0.987351
3842.000000	0.987278
3841.000000	0.987153
3840.000000	0.986932
3839.000000	0.986653
3838.000000	0.986425
3837.000000	0.986352
3836.000000	0.986451
3835.000000	0.986635
3834.000000	0.986793
3833.000000	0.986866
3832.000000	0.986878
3831.000000	0.986885
3830.000000	0.986914
3829.000000	0.986946
3828.000000	0.986952
3827.000000	0.986932
3826.000000	0.986901
3825.000000	0.986848
3824.000000	0.986735
3823.000000	0.986556
3822.000000	0.986375
3821.000000	0.986288
3820.000000	0.986323
3819.000000	0.986389
3818.000000	0.986360
3817.000000	0.986212
3816.000000	0.986064
3815.000000	0.986066
3814.000000	0.986259
3813.000000	0.986547
3812.000000	0.986794
3811.000000	0.986917
3810.000000	0.986901
3809.000000	0.986779
3808.000000	0.986626
3807.000000	0.986536
3806.000000	0.986560
3805.000000	0.986641
3804.000000	0.986655
3803.000000	0.986538
3802.000000	0.986375
3801.000000	0.986327
3800.000000	0.986470
3799.000000	0.986728
3798.000000	0.986954
3797.000000	0.987079
3796.000000	0.987151
3795.000000	0.987252
3794.000000	0.987403
3793.000000	0.987551
3792.000000	0.987640
3791.000000	0.987668
3790.000000	0.987672
3789.000000	0.987684
3788.000000	0.987707
3787.000000	0.987733
3786.000000	0.987764
3785.000000	0.987813
3784.000000	0.987885
3783.000000	0.987965
3782.000000	0.988028
3781.000000	0.988063
3780.000000	0.988088
3779.000000	0.988136
3778.000000	0.988229
3777.000000	0.988358
3776.000000	0.988498
3775.000000	0.988626
3774.000000	0.988721
3773.000000	0.988761
3772.000000	0.988738
3771.000000	0.988685
3770.000000	0.988661
3769.000000	0.988701
3768.000000	0.988793
3767.000000	0.988891
3766.000000	0.988972
3765.000000	0.989049
3764.000000	0.989137
3763.000000	0.989226
3762.000000	0.989286
3761.000000	0.989307
3760.000000	0.989310
3759.000000	0.989337
3758.000000	0.989417
3757.000000	0.989529
3756.000000	0.989607
3755.000000	0.989580
3754.000000	0.989420
3753.000000	0.989172
3752.000000	0.988941
3751.000000	0.988842
3750.000000	0.988946
3749.000000	0.989220
3748.000000	0.989513
3747.000000	0.989645
3746.000000	0.989554
3745.000000	0.989383
3744.000000	0.989380
3743.000000	0.989680
3742.000000	0.990188
3741.000000	0.990675
3740.000000	0.990967
3739.000000	0.991044
3738.000000	0.990998
3737.000000	0.990940
3736.000000	0.990944
3735.000000	0.991034
3734.000000	0.991190
3733.000000	0.991380
3732.000000	0.991592
3731.000000	0.991835
3730.000000	0.992095
3729.000000	0.992324
3728.000000	0.992485
3727.000000	0.992594
3726.000000	0.992709
3725.000000	0.992868
3724.000000	0.993059
3723.000000	0.993252
3722.000000	0.993444
3721.000000	0.993654
3720.000000	0.993890
3719.000000	0.994138
3718.000000	0.994377
3717.000000	0.994593
3716.000000	0.994778
3715.000000	0.994920
3714.000000	0.995026
3713.000000	0.995137
3712.000000	0.995317
3711.000000	0.995616
3710.000000	0.996024
3709.000000	0.996490
3708.000000	0.996957
3707.000000	0.997398
3706.000000	0.997810
3705.000000	0.998203
3704.000000	0.998588
3703.000000	0.998986
3702.000000	0.999422
3701.000000	0.999912
3700.000000	1.000438
3699.000000	1.000964
3698.000000	1.001467
3697.000000	1.001950
3696.000000	1.002425
3695.000000	1.002894
3694.000000	1.003341
3693.000000	1.003750
3692.000000	1.004113
3691.000000	1.004437
3690.000000	1.004763
3689.000000	1.005172
3688.000000	1.005749
3687.000000	1.006515
3686.000000	1.007400
3685.000000	1.008290
3684.000000	1.009108
3683.000000	1.009848
3682.000000	1.010542
3681.000000	1.011218
3680.000000	1.011870
3679.000000	1.012458
3678.000000	1.012952
3677.000000	1.013392
3676.000000	1.013902
3675.000000	1.014604
3674.000000	1.015496
3673.000000	1.016436
3672.000000	1.017282
3671.000000	1.018031
3670.000000	1.018802
3669.000000	1.019697
3668.000000	1.020694
3667.000000	1.021694
3666.000000	1.022625
3665.000000	1.023484
3664.000000	1.024298
3663.000000	1.025085
3662.000000	1.025853
3661.000000	1.026600
3660.000000	1.027314
3659.000000	1.027977
3658.000000	1.028594
3657.000000	1.029217
3656.000000	1.029912
3655.000000	1.030689
3654.000000	1.031459
3653.000000	1.032093
3652.000000	1.032528
3651.000000	1.032826
3650.000000	1.033146
3649.000000	1.033627
3648.000000	1.034317
3647.000000	1.035162
3646.000000	1.036051
3645.000000	1.036877
3644.000000	1.037576
3643.000000	1.038144
3642.000000	1.038628
3641.000000	1.039080
3640.000000	1.039532
3639.000000	1.039987
3638.000000	1.040435
3637.000000	1.040867
3636.000000	1.041282
3635.000000	1.041690
3634.000000	1.042092
3633.000000	1.042450
3632.000000	1.042698
3631.000000	1.042811
3630.000000	1.042868
3629.000000	1.043022
3628.000000	1.043378
3627.000000	1.043906
3626.000000	1.044478
3625.000000	1.044980
3624.000000	1.045365
3623.000000	1.045636
3622.000000	1.045805
3621.000000	1.045902
3620.000000	1.045992
3619.000000	1.046151
3618.000000	1.046406
3617.000000	1.046708
3616.000000	1.046979
3615.000000	1.047181
3614.000000	1.047329
3613.000000	1.047462
3612.000000	1.047594
3611.000000	1.047713
3610.000000	1.047820
3609.000000	1.047945
3608.000000	1.048123
3607.000000	1.048360
3606.000000	1.048618
3605.000000	1.048846
3604.000000	1.049016
3603.000000	1.049133
3602.000000	1.049217
3601.000000	1.049286
3600.000000	1.049351
3599.000000	1.049412
3598.000000	1.049472
3597.000000	1.049541
3596.000000	1.049633
3595.000000	1.049753
3594.000000	1.049886
3593.000000	1.050004
3592.000000	1.050082
3591.000000	1.050110
3590.000000	1.050091
3589.000000	1.050042
3588.000000	1.050008
3587.000000	1.050037
3586.000000	1.050149
3585.000000	1.050312
3584.000000	1.050467
3583.000000	1.050564
3582.000000	1.050598
3581.000000	1.050600
3580.000000	1.050613
3579.000000	1.050657
3578.000000	1.050728
3577.000000	1.050802
3576.000000	1.050861
3575.000000	1.050904
3574.000000	1.050939
3573.000000	1.050966
3572.000000	1.050973
3571.000000	1.050948
3570.000000	1.050890
3569.000000	1.050816
3568.000000	1.050764
3567.000000	1.050767
3566.000000	1.050828
3565.000000	1.050918
3564.000000	1.050996
3563.000000	1.051039
3562.000000	1.051057
3561.000000	1.051074
3560.000000	1.051111
3559.000000	1.051167
3558.000000	1.051233
3557.000000	1.051292
3556.000000	1.051334
3555.000000	1.051352
3554.000000	1.051353
3553.000000	1.051346
3552.000000	1.051345
3551.000000	1.051362
3550.000000	1.051395
3549.000000	1.051433
3548.000000	1.051462
3547.000000	1.051478
3546.000000	1.051490
3545.000000	1.051510
3544.000000	1.051544
3543.000000	1.051592
3542.000000	1.051652
3541.000000	1.051717
3540.000000	1.051775
3539.000000	1.051813
3538.000000	1.051827
3537.000000	1.051831
3536.000000	1.051846
3535.000000	1.051883
3534.000000	1.051935
3533.000000	1.051986
3532.000000	1.052028
3531.000000	1.052069
3530.000000	1.052118
3529.000000	1.052175
3528.000000	1.052234
3527.000000	1.052285
3526.000000	1.052324
3525.000000	1.052357
3524.000000	1.052400
3523.000000	1.052470
3522.000000	1.052558
3521.000000	1.052640
3520.000000	1.052693
3519.000000	1.052724
3518.000000	1.052761
3517.000000	1.052820
3516.000000	1.052896
3515.000000	1.052977
3514.000000	1.053053
3513.000000	1.053123
3512.000000	1.053190
3511.000000	1.053256
3510.000000	1.053327
3509.000000	1.053406
3508.000000	1.053484
3507.000000	1.053549
3506.000000	1.053599
3505.000000	1.053650
3504.000000	1.053718
3503.000000	1.053806
3502.000000	1.053906
3501.000000	1.054018
3500.000000	1.054148
3499.000000	1.054292
3498.000000	1.054422
3497.000000	1.054507
3496.000000	1.054545
3495.000000	1.054563
3494.000000	1.054599
3493.000000	1.054671
3492.000000	1.054775
3491.000000	1.054899
3490.000000	1.055029
3489.000000	1.055148
3488.000000	1.055248
3487.000000	1.055337
3486.000000	1.055435
3485.000000	1.055545
3484.000000	1.055659
3483.000000	1.055765
3482.000000	1.055867
3481.000000	1.055972
3480.000000	1.056083
3479.000000	1.056199
3478.000000	1.056324
3477.000000	1.056467
3476.000000	1.056629
3475.000000	1.056795
3474.000000	1.056947
3473.000000	1.057076
3472.000000	1.057184
3471.000000	1.057280
3470.000000	1.057374
3469.000000	1.057472
3468.000000	1.057583
3467.000000	1.057714
3466.000000	1.057864
3465.000000	1.058022
3464.000000	1.058181
3463.000000	1.058341
3462.000000	1.058507
3461.000000	1.058675
3460.000000	1.058828
3459.000000	1.058962
3458.000000	1.059087
3457.000000	1.059220
3456.000000	1.059362
3455.000000	1.059500
3454.000000	1.059622
3453.000000	1.059723
3452.000000	1.059811
3451.000000	1.059902
3450.000000	1.060014
3449.000000	1.060158
3448.000000	1.060328
3447.000000	1.060502
3446.000000	1.060667
3445.000000	1.060819
3444.000000	1.060967
3443.000000	1.061120
3442.000000	1.061276
3441.000000	1.061429
3440.000000	1.061572
3439.000000	1.061709
3438.000000	1.061844
3437.000000	1.061980
3436.000000	1.062112
3435.000000	1.062236
3434.000000	1.062354
3433.000000	1.062477
3432.000000	1.062613
3431.000000	1.062759
3430.000000	1.062907
3429.000000	1.063047
3428.000000	1.063176
3427.000000	1.063299
3426.000000	1.063422
3425.000000	1.063551
3424.000000	1.063683
3423.000000	1.063807
3422.000000	1.063918
3421.000000	1.064023
3420.000000	1.064134
3419.000000	1.064254
3418.000000	1.064377
3417.000000	1.064487
3416.000000	1.064578
3415.000000	1.064658
3414.000000	1.064741
3413.000000	1.064836
3412.000000	1.064944
3411.000000	1.065057
3410.000000	1.065169
3409.000000	1.065277
3408.000000	1.065380
3407.000000	1.065477
3406.000000	1.065570
3405.000000	1.065667
3404.000000	1.065773
3403.000000	1.065888
3402.000000	1.066001
3401.000000	1.066104
3400.000000	1.066193
3399.000000	1.066278
3398.000000	1.066368
3397.000000	1.066464
3396.000000	1.066546
3395.000000	1.066596
3394.000000	1.066616
3393.000000	1.066631
3392.000000	1.066670
3391.000000	1.066735
3390.000000	1.066806
3389.000000	1.066862
3388.000000	1.066905
3387.000000	1.066949
3386.000000	1.067001
3385.000000	1.067055
3384.000000	1.067099
3383.000000	1.067136
3382.000000	1.067180
3381.000000	1.067240
3380.000000	1.067307
3379.000000	1.067358
3378.000000	1.067386
3377.000000	1.067405
3376.000000	1.067433
3375.000000	1.067472
3374.000000	1.067502
3373.000000	1.067517
3372.000000	1.067531
3371.000000	1.067570
3370.000000	1.067639
3369.000000	1.067719
3368.000000	1.067782
3367.000000	1.067813
3366.000000	1.067813
3365.000000	1.067791
3364.000000	1.067764
3363.000000	1.067749
3362.000000	1.067754
3361.000000	1.067777
3360.000000	1.067814
3359.000000	1.067868
3358.000000	1.067943
3357.000000	1.068035
3356.000000	1.068125
3355.000000	1.068191
3354.000000	1.068221
3353.000000	1.068217
3352.000000	1.068200
3351.000000	1.068192
3350.000000	1.068209
3349.000000	1.068251
3348.000000	1.068301
3347.000000	1.068339
3346.000000	1.068351
3345.000000	1.068340
3344.000000	1.068321
3343.000000	1.068308
3342.000000	1.068301
3341.000000	1.068296
3340.000000	1.068298
3339.000000	1.068320
3338.000000	1.068372
3337.000000	1.068440
3336.000000	1.068498
3335.000000	1.068532
3334.000000	1.068548
3333.000000	1.068563
3332.000000	1.068590
3331.000000	1.068628
3330.000000	1.068670
3329.000000	1.068709
3328.000000	1.068747
3327.000000	1.068788
3326.000000	1.068832
3325.000000	1.068872
3324.000000	1.068908
3323.000000	1.068945
3322.000000	1.068989
3321.000000	1.069033
3320.000000	1.069062
3319.000000	1.069074
3318.000000	1.069074
3317.000000	1.069069
3316.000000	1.069066
3315.000000	1.069078
3314.000000	1.069122
3313.000000	1.069196
3312.000000	1.069278
3311.000000	1.069343
3310.000000	1.069389
3309.000000	1.069430
3308.000000	1.069471
3307.000000	1.069502
3306.000000	1.069512
3305.000000	1.069504
3304.000000	1.069499
3303.000000	1.069517
3302.000000	1.069562
3301.000000	1.069625
3300.000000	1.069689
3299.000000	1.069734
3298.000000	1.069756
3297.000000	1.069772
3296.000000	1.069803
3295.000000	1.069862
3294.000000	1.069942
3293.000000	1.070028
3292.000000	1.070107
3291.000000	1.070174
3290.000000	1.070220
3289.000000	1.070238
3288.000000	1.070232
3287.000000	1.070223
3286.000000	1.070241
3285.000000	1.070298
3284.000000	1.070382
3283.000000	1.070462
3282.000000	1.070512
3281.000000	1.070532
3280.000000	1.070541
3279.000000	1.070559
3278.000000	1.070587
3277.000000	1.070608
3276.000000	1.070615
3275.000000	1.070618
3274.000000	1.070631
3273.000000	1.070659
3272.000000	1.070695
3271.000000	1.070740
3270.000000	1.070801
3269.000000	1.070877
3268.000000	1.070948
3267.000000	1.070995
3266.000000	1.071021
3265.000000	1.071035
3264.000000	1.071039
3263.000000	1.071025
3262.000000	1.070993
3261.000000	1.070964
3260.000000	1.070966
3259.000000	1.071015
3258.000000	1.071104
3257.000000	1.071209
3256.000000	1.071304
3255.000000	1.071367
3254.000000	1.071397
3253.000000	1.071409
3252.000000	1.071423
3251.000000	1.071451
3250.000000	1.071491
3249.000000	1.071537
3248.000000	1.071586
3247.000000	1.071627
3246.000000	1.071648
3245.000000	1.071641
3244.000000	1.071617
3243.000000	1.071599
3242.000000	1.071603
3241.000000	1.071629
3240.000000	1.071667
3239.000000	1.071706
3238.000000	1.071741
3237.000000	1.071769
3236.000000	1.071790
3235.000000	1.071810
3234.000000	1.071836
3233.000000	1.071873
3232.000000	1.071912
3231.000000	1.071942
3230.000000	1.071966
3229.000000	1.071994
3228.000000	1.072034
3227.000000	1.072079
3226.000000	1.072111
3225.000000	1.072123
3224.000000	1.072129
3223.000000	1.072145
3222.000000	1.072180
3221.000000	1.072224
3220.000000	1.072261
3219.000000	1.072281
3218.000000	1.072280
3217.000000	1.072266
3216.000000	1.072245
3215.000000	1.072231
3214.000000	1.072231
3213.000000	1.072248
3212.000000	1.072276
3211.000000	1.072301
3210.000000	1.072313
3209.000000	1.072316
3208.000000	1.072315
3207.000000	1.072316
3206.000000	1.072313
3205.000000	1.072301
3204.000000	1.072276
3203.000000	1.072244
3202.000000	1.072212
3201.000000	1.072189
3200.000000	1.072181
3199.000000	1.072188
3198.000000	1.072206
3197.000000	1.072232
3196.000000	1.072265
3195.000000	1.072301
3194.000000	1.072336
3193.000000	1.072361
3192.000000	1.072370
3191.000000	1.072362
3190.000000	1.072340
3189.000000	1.072314
3188.000000	1.072296
3187.000000	1.072300
3186.000000	1.072321
3185.000000	1.072339
3184.000000	1.072337
3183.000000	1.072313
3182.000000	1.072290
3181.000000	1.072284
3180.000000	1.072293
3179.000000	1.072296
3178.000000	1.072275
3177.000000	1.072235
3176.000000	1.072197
3175.000000	1.072174
3174.000000	1.072163
3173.000000	1.072151
3172.000000	1.072135
3171.000000	1.072124
3170.000000	1.072124
3169.000000	1.072131
3168.000000	1.072142
3167.000000	1.072158
3166.000000	1.072177
3165.000000	1.072193
3164.000000	1.072203
3163.000000	1.072211
3162.000000	1.072220
3161.000000	1.072227
3160.000000	1.072223
3159.000000	1.072207
3158.000000	1.072195
3157.000000	1.072198
3156.000000	1.072209
3155.000000	1.072213
3154.000000	1.072199
3153.000000	1.072176
3152.000000	1.072161
3151.000000	1.072165
3150.000000	1.072188
3149.000000	1.072218
3148.000000	1.072240
3147.000000	1.072243
3146.000000	1.072226
3145.000000	1.072201
3144.000000	1.072182
3143.000000	1.072175
3142.000000	1.072174
3141.000000	1.072171
3140.000000	1.072167
3139.000000	1.072163
3138.000000	1.072158
3137.000000	1.072150
3136.000000	1.072137
3135.000000	1.072122
3134.000000	1.072104
3133.000000	1.072084
3132.000000	1.072067
3131.000000	1.072065
3130.000000	1.072082
3129.000000	1.072113
3128.000000	1.072142
3127.000000	1.072153
3126.000000	1.072138
3125.000000	1.072106
3124.000000	1.072075
3123.000000	1.072067
3122.000000	1.072083
3121.000000	1.072103
3120.000000	1.072109
3119.000000	1.072101
3118.000000	1.072089
3117.000000	1.072073
3116.000000	1.072043
3115.000000	1.071991
3114.000000	1.071931
3113.000000	1.071884
3112.000000	1.071869
3111.000000	1.071883
3110.000000	1.071909
3109.000000	1.071918
3108.000000	1.071897
3107.000000	1.071859
3106.000000	1.071829
3105.000000	1.071818
3104.000000	1.071808
3103.000000	1.071772
3102.000000	1.071701
3101.000000	1.071611
3100.000000	1.071529
3099.000000	1.071475
3098.000000	1.071449
3097.000000	1.071437
3096.000000	1.071424
3095.000000	1.071411
3094.000000	1.071402
3093.000000	1.071390
3092.000000	1.071354
3091.000000	1.071283
3090.000000	1.071188
3089.000000	1.071089
3088.000000	1.070994
3087.000000	1.070902
3086.000000	1.070817
3085.000000	1.070753
3084.000000	1.070712
3083.000000	1.070680
3082.000000	1.070632
3081.000000	1.070561
3080.000000	1.070472
3079.000000	1.070382
3078.000000	1.070304
3077.000000	1.070239
3076.000000	1.070185
3075.000000	1.070136
3074.000000	1.070087
3073.000000	1.070031
3072.000000	1.069961
3071.000000	1.069872
3070.000000	1.069770
3069.000000	1.069669
3068.000000	1.069586
3067.000000	1.069528
3066.000000	1.069484
3065.000000	1.069436
3064.000000	1.069373
3063.000000	1.069299
3062.000000	1.069227
3061.000000	1.069162
3060.000000	1.069103
3059.000000	1.069042
3058.000000	1.068976
3057.000000	1.068905
3056.000000	1.068831
3055.000000	1.068754
3054.000000	1.068678
3053.000000	1.068604
3052.000000	1.068536
3051.000000	1.068477
3050.000000	1.068426
3049.000000	1.068377
3048.000000	1.068321
3047.000000	1.068255
3046.000000	1.068177
3045.000000	1.068087
3044.000000	1.067985
3043.000000	1.067880
3042.000000	1.067788
3041.000000	1.067718
3040.000000	1.067661
3039.000000	1.067603
3038.000000	1.067538
3037.000000	1.067462
3036.000000	1.067373
3035.000000	1.067281
3034.000000	1.067206
3033.000000	1.067161
3032.000000	1.067138
3031.000000	1.067112
3030.000000	1.067071
3029.000000	1.067017
3028.000000	1.066956
3027.000000	1.066889
3026.000000	1.066814
3025.000000	1.066733
3024.000000	1.066646
3023.000000	1.066552
3022.000000	1.066458
3021.000000	1.066380
3020.000000	1.066318
3019.000000	1.066258
3018.000000	1.066176
3017.000000	1.066069
3016.000000	1.065951
3015.000000	1.065833
3014.000000	1.065715
3013.000000	1.065598
3012.000000	1.065491
3011.000000	1.065409
3010.000000	1.065352
3009.000000	1.065302
3008.000000	1.065241
3007.000000	1.065167
3006.000000	1.065092
3005.000000	1.065019
3004.000000	1.064939
3003.000000	1.064840
3002.000000	1.064725
3001.000000	1.064604
3000.000000	1.064484
2999.000000	1.064362
2998.000000	1.064237
2997.000000	1.064115
2996.000000	1.064000
2995.000000	1.063893
2994.000000	1.063788
2993.000000	1.063684
2992.000000	1.063581
2991.000000	1.063473
2990.000000	1.063351
2989.000000	1.063213
2988.000000	1.063070
2987.000000	1.062942
2986.000000	1.062834
2985.000000	1.062731
2984.000000	1.062610
2983.000000	1.062462
2982.000000	1.062305
2981.000000	1.062162
2980.000000	1.062042
2979.000000	1.061936
2978.000000	1.061834
2977.000000	1.061733
2976.000000	1.061625
2975.000000	1.061499
2974.000000	1.061355
2973.000000	1.061208
2972.000000	1.061072
2971.000000	1.060954
2970.000000	1.060846
2969.000000	1.060738
2968.000000	1.060617
2967.000000	1.060474
2966.000000	1.060315
2965.000000	1.060145
2964.000000	1.059965
2963.000000	1.059765
2962.000000	1.059550
2961.000000	1.059344
2960.000000	1.059172
2959.000000	1.059030
2958.000000	1.058892
2957.000000	1.058738
2956.000000	1.058569
2955.000000	1.058392
2954.000000	1.058204
2953.000000	1.057999
2952.000000	1.057779
2951.000000	1.057557
2950.000000	1.057353
2949.000000	1.057172
2948.000000	1.057004
2947.000000	1.056833
2946.000000	1.056648
2945.000000	1.056452
2944.000000	1.056263
2943.000000	1.056098
2942.000000	1.055957
2941.000000	1.055821
2940.000000	1.055664
2939.000000	1.055469
2938.000000	1.055241
2937.000000	1.054996
2936.000000	1.054752
2935.000000	1.054519
2934.000000	1.054307
2933.000000	1.054126
2932.000000	1.053972
2931.000000	1.053821
2930.000000	1.053644
2929.000000	1.053426
2928.000000	1.053181
2927.000000	1.052936
2926.000000	1.052709
2925.000000	1.052500
2924.000000	1.052296
2923.000000	1.052082
2922.000000	1.051856
2921.000000	1.051632
2920.000000	1.051425
2919.000000	1.051236
2918.000000	1.051054
2917.000000	1.050867
2916.000000	1.050673
2915.000000	1.050472
2914.000000	1.050262
2913.000000	1.050045
2912.000000	1.049828
2911.000000	1.049614
2910.000000	1.049396
2909.000000	1.049162
2908.000000	1.048921
2907.000000	1.048693
2906.000000	1.048496
2905.000000	1.048322
2904.000000	1.048143
2903.000000	1.047939
2902.000000	1.047711
2901.000000	1.047476
2900.000000	1.047248
2899.000000	1.047030
2898.000000	1.046820
2897.000000	1.046621
2896.000000	1.046435
2895.000000	1.046256
2894.000000	1.046066
2893.000000	1.045855
2892.000000	1.045630
2891.000000	1.045408
2890.000000	1.045203
2889.000000	1.045014
2888.000000	1.044828
2887.000000	1.044639
2886.000000	1.044445
2885.000000	1.044249
2884.000000	1.044050
2883.000000	1.043848
2882.000000	1.043648
2881.000000	1.043457
2880.000000	1.043273
2879.000000	1.043086
2878.000000	1.042892
2877.000000	1.042693
2876.000000	1.042486
2875.000000	1.042268
2874.000000	1.042046
2873.000000	1.041841
2872.000000	1.041671
2871.000000	1.041522
2870.000000	1.041367
2869.000000	1.041193
2868.000000	1.041012
2867.000000	1.040838
2866.000000	1.040664
2865.000000	1.040472
2864.000000	1.040250
2863.000000	1.040011
2862.000000	1.039774
2861.000000	1.039553
2860.000000	1.039356
2859.000000	1.039182
2858.000000	1.039025
2857.000000	1.038876
2856.000000	1.038729
2855.000000	1.038578
2854.000000	1.038416
2853.000000	1.038240
2852.000000	1.038053
2851.000000	1.037864
2850.000000	1.037680
2849.000000	1.037514
2848.000000	1.037376
2847.000000	1.037265
2846.000000	1.037160
2845.000000	1.037034
2844.000000	1.036881
2843.000000	1.036723
2842.000000	1.036587
2841.000000	1.036470
2840.000000	1.036351
2839.000000	1.036211
2838.000000	1.036055
2837.000000	1.035902
2836.000000	1.035765
2835.000000	1.035642
2834.000000	1.035521
2833.000000	1.035393
2832.000000	1.035260
2831.000000	1.035126
2830.000000	1.034995
2829.000000	1.034861
2828.000000	1.034719
2827.000000	1.034571
2826.000000	1.034424
2825.000000	1.034290
2824.000000	1.034174
2823.000000	1.034076
2822.000000	1.033988
2821.000000	1.033901
2820.000000	1.033811
2819.000000	1.033709
2818.000000	1.033591
2817.000000	1.033456
2816.000000	1.033319
2815.000000	1.033202
2814.000000	1.033113
2813.000000	1.033036
2812.000000	1.032946
2811.000000	1.032834
2810.000000	1.032711
2809.000000	1.032594
2808.000000	1.032485
2807.000000	1.032376
2806.000000	1.032263
2805.000000	1.032148
2804.000000	1.032036
2803.000000	1.031934
2802.000000	1.031847
2801.000000	1.031775
2800.000000	1.031707
2799.000000	1.031632
2798.000000	1.031548
2797.000000	1.031464
2796.000000	1.031386
2795.000000	1.031314
2794.000000	1.031240
2793.000000	1.031163
2792.000000	1.031083
2791.000000	1.031003
2790.000000	1.030925
2789.000000	1.030848
2788.000000	1.030775
2787.000000	1.030706
2786.000000	1.030640
2785.000000	1.030571
2784.000000	1.030497
2783.000000	1.030418
2782.000000	1.030336
2781.000000	1.030253
2780.000000	1.030173
2779.000000	1.030101
2778.000000	1.030034
2777.000000	1.029968
2776.000000	1.029897
2775.000000	1.029828
2774.000000	1.029770
2773.000000	1.029725
2772.000000	1.029684
2771.000000	1.029639
2770.000000	1.029588
2769.000000	1.029534
2768.000000	1.029473
2767.000000	1.029405
2766.000000	1.029333
2765.000000	1.029266
2764.000000	1.029208
2763.000000	1.029155
2762.000000	1.029102
2761.000000	1.029048
2760.000000	1.028994
2759.000000	1.028937
2758.000000	1.028885
2757.000000	1.028844
2756.000000	1.028816
2755.000000	1.028790
2754.000000	1.028755
2753.000000	1.028704
2752.000000	1.028642
2751.000000	1.028580
2750.000000	1.028531
2749.000000	1.028501
2748.000000	1.028484
2747.000000	1.028469
2746.000000	1.028444
2745.000000	1.028411
2744.000000	1.028379
2743.000000	1.028356
2742.000000	1.028337
2741.000000	1.028314
2740.000000	1.028283
2739.000000	1.028248
2738.000000	1.028215
2737.000000	1.028189
2736.000000	1.028176
2735.000000	1.028176
2734.000000	1.028184
2733.000000	1.028189
2732.000000	1.028178
2731.000000	1.028143
2730.000000	1.028089
2729.000000	1.028030
2728.000000	1.027984
2727.000000	1.027964
2726.000000	1.027966
2725.000000	1.027971
2724.000000	1.027959
2723.000000	1.027930
2722.000000	1.027907
2721.000000	1.027910
2720.000000	1.027934
2719.000000	1.027956
2718.000000	1.027959
2717.000000	1.027945
2716.000000	1.027925
2715.000000	1.027902
2714.000000	1.027883
2713.000000	1.027874
2712.000000	1.027879
2711.000000	1.027886
2710.000000	1.027885
2709.000000	1.027881
2708.000000	1.027890
2707.000000	1.027919
2706.000000	1.027956
2705.000000	1.027984
2704.000000	1.027998
2703.000000	1.028001
2702.000000	1.027998
2701.000000	1.027992
2700.000000	1.027987
2699.000000	1.027991
2698.000000	1.028003
2697.000000	1.028016
2696.000000	1.028024
2695.000000	1.028029
2694.000000	1.028035
2693.000000	1.028051
2692.000000	1.028080
2691.000000	1.028119
2690.000000	1.028163
2689.000000	1.028205
2688.000000	1.028246
2687.000000	1.028286
2686.000000	1.028327
2685.000000	1.028368
2684.000000	1.028404
2683.000000	1.028434
2682.000000	1.028464
2681.000000	1.028497
2680.000000	1.028532
2679.000000	1.028569
2678.000000	1.028603
2677.000000	1.028632
2676.000000	1.028654
2675.000000	1.028669
2674.000000	1.028684
2673.000000	1.028710
2672.000000	1.028749
2671.000000	1.028801
2670.000000	1.028866
2669.000000	1.028942
2668.000000	1.029024
2667.000000	1.029100
2666.000000	1.029167
2665.000000	1.029223
2664.000000	1.029267
2663.000000	1.029295
2662.000000	1.029315
2661.000000	1.029345
2660.000000	1.029399
2659.000000	1.029474
2658.000000	1.029549
2657.000000	1.029614
2656.000000	1.029677
2655.000000	1.029750
2654.000000	1.029838
2653.000000	1.029936
2652.000000	1.030033
2651.000000	1.030118
2650.000000	1.030186
2649.000000	1.030242
2648.000000	1.030297
2647.000000	1.030364
2646.000000	1.030447
2645.000000	1.030541
2644.000000	1.030636
2643.000000	1.030727
2642.000000	1.030812
2641.000000	1.030896
2640.000000	1.030980
2639.000000	1.031064
2638.000000	1.031152
2637.000000	1.031246
2636.000000	1.031346
2635.000000	1.031440
2634.000000	1.031517
2633.000000	1.031581
2632.000000	1.031647
2631.000000	1.031730
2630.000000	1.031822
2629.000000	1.031910
2628.000000	1.031987
2627.000000	1.032062
2626.000000	1.032151
2625.000000	1.032258
2624.000000	1.032375
2623.000000	1.032489
2622.000000	1.032594
2621.000000	1.032692
2620.000000	1.032790
2619.000000	1.032891
2618.000000	1.032990
2617.000000	1.033078
2616.000000	1.033154
2615.000000	1.033231
2614.000000	1.033322
2613.000000	1.033440
2612.000000	1.033574
2611.000000	1.033702
2610.000000	1.033808
2609.000000	1.033898
2608.000000	1.033995
2607.000000	1.034111
2606.000000	1.034233
2605.000000	1.034345
2604.000000	1.034443
2603.000000	1.034539
2602.000000	1.034642
2601.000000	1.034751
2600.000000	1.034864
2599.000000	1.034979
2598.000000	1.035097
2597.000000	1.035213
2596.000000	1.035323
2595.000000	1.035430
2594.000000	1.035542
2593.000000	1.035665
2592.000000	1.035803
2591.000000	1.035946
2590.000000	1.036079
2589.000000	1.036193
2588.000000	1.036288
2587.000000	1.036377
2586.000000	1.036474
2585.000000	1.036589
2584.000000	1.036724
2583.000000	1.036875
2582.000000	1.037034
2581.000000	1.037191
2580.000000	1.037336
2579.000000	1.037459
2578.000000	1.037559
2577.000000	1.037647
2576.000000	1.037739
2575.000000	1.037851
2574.000000	1.037984
2573.000000	1.038132
2572.000000	1.038289
2571.000000	1.038452
2570.000000	1.038618
2569.000000	1.038782
2568.000000	1.038937
2567.000000	1.039080
2566.000000	1.039213
2565.000000	1.039344
2564.000000	1.039480
2563.000000	1.039624
2562.000000	1.039774
2561.000000	1.039927
2560.000000	1.040087
2559.000000	1.040257
2558.000000	1.040430
2557.000000	1.040589
2556.000000	1.040727
2555.000000	1.040852
2554.000000	1.040981
2553.000000	1.041129
2552.000000	1.041297
2551.000000	1.041484
2550.000000	1.041678
2549.000000	1.041864
2548.000000	1.042038
2547.000000	1.042205
2546.000000	1.042373
2545.000000	1.042538
2544.000000	1.042696
2543.000000	1.042848
2542.000000	1.043007
2541.000000	1.043181
2540.000000	1.043365
2539.000000	1.043551
2538.000000	1.043730
2537.000000	1.043901
2536.000000	1.044062
2535.000000	1.044214
2534.000000	1.044361
2533.000000	1.044509
2532.000000	1.044664
2531.000000	1.044836
2530.000000	1.045023
2529.000000	1.045214
2528.000000	1.045400
2527.000000	1.045582
2526.000000	1.045770
2525.000000	1.045968
2524.000000	1.046167
2523.000000	1.046359
2522.000000	1.046541
2521.000000	1.046718
2520.000000	1.046891
2519.000000	1.047060
2518.000000	1.047220
2517.000000	1.047374
2516.000000	1.047525
2515.000000	1.047684
2514.000000	1.047852
2513.000000	1.048022
2512.000000	1.048183
2511.000000	1.048330
2510.000000	1.048477
2509.000000	1.048636
2508.000000	1.048811
2507.000000	1.048989
2506.000000	1.049158
2505.000000	1.049310
2504.000000	1.049443
2503.000000	1.049562
2502.000000	1.049680
2501.000000	1.049809
2500.000000	1.049950
2499.000000	1.050099
2498.000000	1.050251
2497.000000	1.050401
2496.000000	1.050544
2495.000000	1.050674
2494.000000	1.050794
2493.000000	1.050911
2492.000000	1.051019
2491.000000	1.051108
2490.000000	1.051180
2489.000000	1.051253
2488.000000	1.051350
2487.000000	1.051474
2486.000000	1.051609
2485.000000	1.051737
2484.000000	1.051845
2483.000000	1.051925
2482.000000	1.051975
2481.000000	1.052001
2480.000000	1.052025
2479.000000	1.052076
2478.000000	1.052169
2477.000000	1.052292
2476.000000	1.052410
2475.000000	1.052491
2474.000000	1.052530
2473.000000	1.052549
2472.000000	1.052577
2471.000000	1.052630
2470.000000	1.052701
2469.000000	1.052772
2468.000000	1.052829
2467.000000	1.052867
2466.000000	1.052902
2465.000000	1.052950
2464.000000	1.053007
2463.000000	1.053052
2462.000000	1.053069
2461.000000	1.053067
2460.000000	1.053070
2459.000000	1.053091
2458.000000	1.053115
2457.000000	1.053128
2456.000000	1.053130
2455.000000	1.053133
2454.000000	1.053141
2453.000000	1.053150
2452.000000	1.053159
2451.000000	1.053166
2450.000000	1.053167
2449.000000	1.053151
2448.000000	1.053119
2447.000000	1.053077
2446.000000	1.053029
2445.000000	1.052972
2444.000000	1.052903
2443.000000	1.052834
2442.000000	1.052776
2441.000000	1.052736
2440.000000	1.052708
2439.000000	1.052687
2438.000000	1.052667
2437.000000	1.052646
2436.000000	1.052623
2435.000000	1.052597
2434.000000	1.052571
2433.000000	1.052540
2432.000000	1.052497
2431.000000	1.052442
2430.000000	1.052376
2429.000000	1.052304
2428.000000	1.052230
2427.000000	1.052157
2426.000000	1.052090
2425.000000	1.052033
2424.000000	1.051981
2423.000000	1.051928
2422.000000	1.051871
2421.000000	1.051811
2420.000000	1.051751
2419.000000	1.051689
2418.000000	1.051629
2417.000000	1.051577
2416.000000	1.051538
2415.000000	1.051504
2414.000000	1.051462
2413.000000	1.051403
2412.000000	1.051336
2411.000000	1.051276
2410.000000	1.051227
2409.000000	1.051186
2408.000000	1.051143
2407.000000	1.051097
2406.000000	1.051048
2405.000000	1.050997
2404.000000	1.050946
2403.000000	1.050898
2402.000000	1.050858
2401.000000	1.050827
2400.000000	1.050808
2399.000000	1.050795
2398.000000	1.050783
2397.000000	1.050764
2396.000000	1.050737
2395.000000	1.050706
2394.000000	1.050672
2393.000000	1.050644
2392.000000	1.050631
2391.000000	1.050639
2390.000000	1.050658
2389.000000	1.050669
2388.000000	1.050660
2387.000000	1.050631
2386.000000	1.050589
2385.000000	1.050540
2384.000000	1.050491
2383.000000	1.050448
2382.000000	1.050415
2381.000000	1.050386
2380.000000	1.050342
2379.000000	1.050270
2378.000000	1.050162
2377.000000	1.050018
2376.000000	1.049847
2375.000000	1.049665
2374.000000	1.049484
2373.000000	1.049299
2372.000000	1.049098
2371.000000	1.048886
2370.000000	1.048678
2369.000000	1.048485
2368.000000	1.048304
2367.000000	1.048135
2366.000000	1.047985
2365.000000	1.047866
2364.000000	1.047784
2363.000000	1.047742
2362.000000	1.047740
2361.000000	1.047778
2360.000000	1.047854
2359.000000	1.047968
2358.000000	1.048127
2357.000000	1.048335
2356.000000	1.048586
2355.000000	1.048868
2354.000000	1.049181
2353.000000	1.049530
2352.000000	1.049909
2351.000000	1.050288
2350.000000	1.050627
2349.000000	1.050904
2348.000000	1.051149
2347.000000	1.051440
2346.000000	1.051861
2345.000000	1.052461
2344.000000	1.053217
2343.000000	1.054034
2342.000000	1.054743
2341.000000	1.055139
2340.000000	1.055063
2339.000000	1.054494
2338.000000	1.053597
2337.000000	1.052631
2336.000000	1.051820
2335.000000	1.051261
2334.000000	1.050937
2333.000000	1.050781
2332.000000	1.050731
2331.000000	1.050740
2330.000000	1.050777
2329.000000	1.050832
2328.000000	1.050911
2327.000000	1.051024
2326.000000	1.051162
2325.000000	1.051305
2324.000000	1.051437
2323.000000	1.051561
2322.000000	1.051686
2321.000000	1.051819
2320.000000	1.051961
2319.000000	1.052110
2318.000000	1.052255
2317.000000	1.052374
2316.000000	1.052458
2315.000000	1.052526
2314.000000	1.052612
2313.000000	1.052729
2312.000000	1.052860
2311.000000	1.052975
2310.000000	1.053064
2309.000000	1.053129
2308.000000	1.053173
2307.000000	1.053203
2306.000000	1.053244
2305.000000	1.053320
2304.000000	1.053432
2303.000000	1.053554
2302.000000	1.053652
2301.000000	1.053714
2300.000000	1.053749
2299.000000	1.053775
2298.000000	1.053803
2297.000000	1.053840
2296.000000	1.053885
2295.000000	1.053937
2294.000000	1.053995
2293.000000	1.054057
2292.000000	1.054125
2291.000000	1.054194
2290.000000	1.054254
2289.000000	1.054296
2288.000000	1.054325
2287.000000	1.054359
2286.000000	1.054410
2285.000000	1.054473
2284.000000	1.054534
2283.000000	1.054586
2282.000000	1.054638
2281.000000	1.054694
2280.000000	1.054748
2279.000000	1.054795
2278.000000	1.054841
2277.000000	1.054893
2276.000000	1.054942
2275.000000	1.054977
2274.000000	1.054997
2273.000000	1.055020
2272.000000	1.055061
2271.000000	1.055122
2270.000000	1.055185
2269.000000	1.055230
2268.000000	1.055248
2267.000000	1.055252
2266.000000	1.055269
2265.000000	1.055311
2264.000000	1.055367
2263.000000	1.055420
2262.000000	1.055463
2261.000000	1.055502
2260.000000	1.055541
2259.000000	1.055573
2258.000000	1.055594
2257.000000	1.055606
2256.000000	1.055619
2255.000000	1.055642
2254.000000	1.055682
2253.000000	1.055731
2252.000000	1.055777
2251.000000	1.055813
2250.000000	1.055849
2249.000000	1.055892
2248.000000	1.055937
2247.000000	1.055971
2246.000000	1.055998
2245.000000	1.056034
2244.000000	1.056082
2243.000000	1.056124
2242.000000	1.056150
2241.000000	1.056169
2240.000000	1.056195
2239.000000	1.056224
2238.000000	1.056244
2237.000000	1.056256
2236.000000	1.056275
2235.000000	1.056312
2234.000000	1.056365
2233.000000	1.056420
2232.000000	1.056461
2231.000000	1.056481
2230.000000	1.056484
2229.000000	1.056487
2228.000000	1.056504
2227.000000	1.056527
2226.000000	1.056537
2225.000000	1.056528
2224.000000	1.056513
2223.000000	1.056507
2222.000000	1.056515
2221.000000	1.056535
2220.000000	1.056562
2219.000000	1.056586
2218.000000	1.056596
2217.000000	1.056587
2216.000000	1.056573
2215.000000	1.056576
2214.000000	1.056602
2213.000000	1.056630
2212.000000	1.056634
2211.000000	1.056611
2210.000000	1.056583
2209.000000	1.056574
2208.000000	1.056589
2207.000000	1.056615
2206.000000	1.056638
2205.000000	1.056654
2204.000000	1.056662
2203.000000	1.056664
2202.000000	1.056658
2201.000000	1.056641
2200.000000	1.056611
2199.000000	1.056580
2198.000000	1.056562
2197.000000	1.056564
2196.000000	1.056569
2195.000000	1.056561
2194.000000	1.056538
2193.000000	1.056516
2192.000000	1.056507
2191.000000	1.056502
2190.000000	1.056494
2189.000000	1.056483
2188.000000	1.056476
2187.000000	1.056472
2186.000000	1.056463
2185.000000	1.056445
2184.000000	1.056424
2183.000000	1.056410
2182.000000	1.056408
2181.000000	1.056416
2180.000000	1.056425
2179.000000	1.056416
2178.000000	1.056378
2177.000000	1.056313
2176.000000	1.056235
2175.000000	1.056161
2174.000000	1.056112
2173.000000	1.056096
2172.000000	1.056106
2171.000000	1.056119
2170.000000	1.056110
2169.000000	1.056067
2168.000000	1.056000
2167.000000	1.055922
2166.000000	1.055845
2165.000000	1.055775
2164.000000	1.055718
2163.000000	1.055669
2162.000000	1.055624
2161.000000	1.055582
2160.000000	1.055543
2159.000000	1.055508
2158.000000	1.055468
2157.000000	1.055416
2156.000000	1.055355
2155.000000	1.055299
2154.000000	1.055257
2153.000000	1.055230
2152.000000	1.055203
2151.000000	1.055160
2150.000000	1.055090
2149.000000	1.055000
2148.000000	1.054909
2147.000000	1.054838
2146.000000	1.054790
2145.000000	1.054752
2144.000000	1.054708
2143.000000	1.054655
2142.000000	1.054600
2141.000000	1.054542
2140.000000	1.054466
2139.000000	1.054366
2138.000000	1.054253
2137.000000	1.054150
2136.000000	1.054075
2135.000000	1.054022
2134.000000	1.053971
2133.000000	1.053907
2132.000000	1.053827
2131.000000	1.053738
2130.000000	1.053654
2129.000000	1.053583
2128.000000	1.053526
2127.000000	1.053469
2126.000000	1.053392
2125.000000	1.053287
2124.000000	1.053164
2123.000000	1.053042
2122.000000	1.052932
2121.000000	1.052828
2120.000000	1.052723
2119.000000	1.052621
2118.000000	1.052536
2117.000000	1.052470
2116.000000	1.052410
2115.000000	1.052337
2114.000000	1.052247
2113.000000	1.052141
2112.000000	1.052010
2111.000000	1.051849
2110.000000	1.051667
2109.000000	1.051495
2108.000000	1.051357
2107.000000	1.051248
2106.000000	1.051142
2105.000000	1.051021
2104.000000	1.050895
2103.000000	1.050782
2102.000000	1.050692
2101.000000	1.050613
2100.000000	1.050521
2099.000000	1.050392
2098.000000	1.050222
2097.000000	1.050030
2096.000000	1.049848
2095.000000	1.049702
2094.000000	1.049590
2093.000000	1.049494
2092.000000	1.049397
2091.000000	1.049297
2090.000000	1.049192
2089.000000	1.049067
2088.000000	1.048912
2087.000000	1.048735
2086.000000	1.048568
2085.000000	1.048435
2084.000000	1.048331
2083.000000	1.048225
2082.000000	1.048092
2081.000000	1.047932
2080.000000	1.047764
2079.000000	1.047611
2078.000000	1.047476
2077.000000	1.047342
2076.000000	1.047189
2075.000000	1.047016
2074.000000	1.046845
2073.000000	1.046687
2072.000000	1.046536
2071.000000	1.046384
2070.000000	1.046232
2069.000000	1.046087
2068.000000	1.045940
2067.000000	1.045776
2066.000000	1.045603
2065.000000	1.045442
2064.000000	1.045308
2063.000000	1.045190
2062.000000	1.045072
2061.000000	1.044946
2060.000000	1.044812
2059.000000	1.044662
2058.000000	1.044489
2057.000000	1.044295
2056.000000	1.044095
2055.000000	1.043906
2054.000000	1.043748
2053.000000	1.043631
2052.000000	1.043548
2051.000000	1.043470
2050.000000	1.043370
2049.000000	1.043232
2048.000000	1.043061
2047.000000	1.042871
2046.000000	1.042683
2045.000000	1.042518
2044.000000	1.042380
2043.000000	1.042258
2042.000000	1.042139
2041.000000	1.042021
2040.000000	1.041915
2039.000000	1.041816
2038.000000	1.041707
2037.000000	1.041567
2036.000000	1.041392
2035.000000	1.041200
2034.000000	1.041019
2033.000000	1.040871
2032.000000	1.040762
2031.000000	1.040682
2030.000000	1.040609
2029.000000	1.040515
2028.000000	1.040381
2027.000000	1.040212
2026.000000	1.040030
2025.000000	1.039865
2024.000000	1.039728
2023.000000	1.039611
2022.000000	1.039502
2021.000000	1.039395
2020.000000	1.039282
2019.000000	1.039153
2018.000000	1.039004
2017.000000	1.038854
2016.000000	1.038729
2015.000000	1.038640
2014.000000	1.038564
2013.000000	1.038466
2012.000000	1.038333
2011.000000	1.038188
2010.000000	1.038069
2009.000000	1.037989
2008.000000	1.037930
2007.000000	1.037865
2006.000000	1.037783
2005.000000	1.037693
2004.000000	1.037602
2003.000000	1.037509
2002.000000	1.037408
2001.000000	1.037296
2000.000000	1.037179
1999.000000	1.037064
1998.000000	1.036955
1997.000000	1.036853
1996.000000	1.036752
1995.000000	1.036648
1994.000000	1.036540
1993.000000	1.036439
1992.000000	1.036355
1991.000000	1.036292
1990.000000	1.036238
1989.000000	1.036173
1988.000000	1.036089
1987.000000	1.035994
1986.000000	1.035905
1985.000000	1.035838
1984.000000	1.035791
1983.000000	1.035754
1982.000000	1.035714
1981.000000	1.035667
1980.000000	1.035609
1979.000000	1.035538
1978.000000	1.035459
1977.000000	1.035382
1976.000000	1.035312
1975.000000	1.035246
1974.000000	1.035178
1973.000000	1.035114
1972.000000	1.035063
1971.000000	1.035024
1970.000000	1.034975
1969.000000	1.034901
1968.000000	1.034817
1967.000000	1.034754
1966.000000	1.034724
1965.000000	1.034709
1964.000000	1.034682
1963.000000	1.034638
1962.000000	1.034592
1961.000000	1.034546
1960.000000	1.034496
1959.000000	1.034442
1958.000000	1.034396
1957.000000	1.034371
1956.000000	1.034361
1955.000000	1.034347
1954.000000	1.034316
1953.000000	1.034269
1952.000000	1.034220
1951.000000	1.034184
1950.000000	1.034170
1949.000000	1.034168
1948.000000	1.034160
1947.000000	1.034136
1946.000000	1.034099
1945.000000	1.034055
1944.000000	1.034013
1943.000000	1.033981
1942.000000	1.033968
1941.000000	1.033972
1940.000000	1.033982
1939.000000	1.033987
1938.000000	1.033990
1937.000000	1.033999
1936.000000	1.034013
1935.000000	1.034024
1934.000000	1.034028
1933.000000	1.034025
1932.000000	1.034016
1931.000000	1.034004
1930.000000	1.033993
1929.000000	1.033982
1928.000000	1.033968
1927.000000	1.033952
1926.000000	1.033933
1925.000000	1.033909
1924.000000	1.033883
1923.000000	1.033868
1922.000000	1.033872
1921.000000	1.033879
1920.000000	1.033861
1919.000000	1.033828
1918.000000	1.033818
1917.000000	1.033855
1916.000000	1.033916
1915.000000	1.033964
1914.000000	1.033989
1913.000000	1.034008
1912.000000	1.034030
1911.000000	1.034054
1910.000000	1.034084
1909.000000	1.034121
1908.000000	1.034156
1907.000000	1.034175
1906.000000	1.034185
1905.000000	1.034203
1904.000000	1.034234
1903.000000	1.034265
1902.000000	1.034290
1901.000000	1.034317
1900.000000	1.034354
1899.000000	1.034399
1898.000000	1.034439
1897.000000	1.034459
1896.000000	1.034448
1895.000000	1.034419
1894.000000	1.034405
1893.000000	1.034425
1892.000000	1.034461
1891.000000	1.034483
1890.000000	1.034495
1889.000000	1.034527
1888.000000	1.034586
1887.000000	1.034650
1886.000000	1.034702
1885.000000	1.034744
1884.000000	1.034784
1883.000000	1.034818
1882.000000	1.034842
1881.000000	1.034867
1880.000000	1.034902
1879.000000	1.034954
1878.000000	1.035020
1877.000000	1.035097
1876.000000	1.035172
1875.000000	1.035235
1874.000000	1.035285
1873.000000	1.035316
1872.000000	1.035308
1871.000000	1.035253
1870.000000	1.035194
1869.000000	1.035206
1868.000000	1.035323
1867.000000	1.035501
1866.000000	1.035672
1865.000000	1.035797
1864.000000	1.035872
1863.000000	1.035910
1862.000000	1.035930
1861.000000	1.035964
1860.000000	1.036033
1859.000000	1.036130
1858.000000	1.036232
1857.000000	1.036319
1856.000000	1.036384
1855.000000	1.036428
1854.000000	1.036462
1853.000000	1.036503
1852.000000	1.036553
1851.000000	1.036600
1850.000000	1.036640
1849.000000	1.036685
1848.000000	1.036730
1847.000000	1.036745
1846.000000	1.036719
1845.000000	1.036701
1844.000000	1.036769
1843.000000	1.036951
1842.000000	1.037193
1841.000000	1.037409
1840.000000	1.037563
1839.000000	1.037668
1838.000000	1.037753
1837.000000	1.037827
1836.000000	1.037891
1835.000000	1.037957
1834.000000	1.038033
1833.000000	1.038106
1832.000000	1.038146
1831.000000	1.038162
1830.000000	1.038205
1829.000000	1.038317
1828.000000	1.038469
1827.000000	1.038602
1826.000000	1.038698
1825.000000	1.038804
1824.000000	1.038963
1823.000000	1.039158
1822.000000	1.039341
1821.000000	1.039482
1820.000000	1.039587
1819.000000	1.039681
1818.000000	1.039786
1817.000000	1.039921
1816.000000	1.040080
1815.000000	1.040235
1814.000000	1.040357
1813.000000	1.040447
1812.000000	1.040529
1811.000000	1.040628
1810.000000	1.040749
1809.000000	1.040884
1808.000000	1.041026
1807.000000	1.041174
1806.000000	1.041329
1805.000000	1.041484
1804.000000	1.041609
1803.000000	1.041690
1802.000000	1.041748
1801.000000	1.041832
1800.000000	1.041966
1799.000000	1.042140
1798.000000	1.042335
1797.000000	1.042526
1796.000000	1.042668
1795.000000	1.042719
1794.000000	1.042696
1793.000000	1.042694
1792.000000	1.042807
1791.000000	1.043049
1790.000000	1.043356
1789.000000	1.043646
1788.000000	1.043858
1787.000000	1.043982
1786.000000	1.044063
1785.000000	1.044172
1784.000000	1.044338
1783.000000	1.044525
1782.000000	1.044693
1781.000000	1.044849
1780.000000	1.045029
1779.000000	1.045238
1778.000000	1.045447
1777.000000	1.045625
1776.000000	1.045738
1775.000000	1.045754
1774.000000	1.045699
1773.000000	1.045682
1772.000000	1.045818
1771.000000	1.046105
1770.000000	1.046429
1769.000000	1.046699
1768.000000	1.046934
1767.000000	1.047188
1766.000000	1.047457
1765.000000	1.047675
1764.000000	1.047802
1763.000000	1.047873
1762.000000	1.047962
1761.000000	1.048118
1760.000000	1.048327
1759.000000	1.048541
1758.000000	1.048735
1757.000000	1.048938
1756.000000	1.049181
1755.000000	1.049419
1754.000000	1.049558
1753.000000	1.049569
1752.000000	1.049544
1751.000000	1.049616
1750.000000	1.049825
1749.000000	1.050109
1748.000000	1.050387
1747.000000	1.050628
1746.000000	1.050834
1745.000000	1.051006
1744.000000	1.051147
1743.000000	1.051265
1742.000000	1.051360
1741.000000	1.051438
1740.000000	1.051542
1739.000000	1.051714
1738.000000	1.051900
1737.000000	1.051949
1736.000000	1.051779
1735.000000	1.051535
1734.000000	1.051498
1733.000000	1.051798
1732.000000	1.052280
1731.000000	1.052697
1730.000000	1.052952
1729.000000	1.053121
1728.000000	1.053285
1727.000000	1.053444
1726.000000	1.053562
1725.000000	1.053641
1724.000000	1.053707
1723.000000	1.053775
1722.000000	1.053822
1721.000000	1.053779
1720.000000	1.053586
1719.000000	1.053285
1718.000000	1.053059
1717.000000	1.053088
1716.000000	1.053372
1715.000000	1.053743
1714.000000	1.054056
1713.000000	1.054287
1712.000000	1.054455
1711.000000	1.054552
1710.000000	1.054572
1709.000000	1.054543
1708.000000	1.054484
1707.000000	1.054398
1706.000000	1.054339
1705.000000	1.054376
1704.000000	1.054443
1703.000000	1.054339
1702.000000	1.053986
1701.000000	1.053612
1700.000000	1.053521
1699.000000	1.053707
1698.000000	1.053883
1697.000000	1.053881
1696.000000	1.053861
1695.000000	1.054057
1694.000000	1.054460
1693.000000	1.054841
1692.000000	1.055033
1691.000000	1.055070
1690.000000	1.055072
1689.000000	1.055073
1688.000000	1.054969
1687.000000	1.054644
1686.000000	1.054152
1685.000000	1.053765
1684.000000	1.053762
1683.000000	1.054152
1682.000000	1.054661
1681.000000	1.055028
1680.000000	1.055203
1679.000000	1.055258
1678.000000	1.055215
1677.000000	1.055057
1676.000000	1.054871
1675.000000	1.054818
1674.000000	1.054944
1673.000000	1.055108
1672.000000	1.055146
1671.000000	1.055052
1670.000000	1.054957
1669.000000	1.054979
1668.000000	1.055122
1667.000000	1.055301
1666.000000	1.055415
1665.000000	1.055416
1664.000000	1.055338
1663.000000	1.055276
1662.000000	1.055308
1661.000000	1.055422
1660.000000	1.055546
1659.000000	1.055629
1658.000000	1.055648
1657.000000	1.055529
1656.000000	1.055144
1655.000000	1.054480
1654.000000	1.053809
1653.000000	1.053563
1652.000000	1.053932
1651.000000	1.054638
1650.000000	1.055194
1649.000000	1.055333
1648.000000	1.055165
1647.000000	1.054981
1646.000000	1.054988
1645.000000	1.055199
1644.000000	1.055495
1643.000000	1.055732
1642.000000	1.055836
1641.000000	1.055835
1640.000000	1.055782
1639.000000	1.055657
1638.000000	1.055398
1637.000000	1.055052
1636.000000	1.054818
1635.000000	1.054876
1634.000000	1.055200
1633.000000	1.055587
1632.000000	1.055846
1631.000000	1.055920
1630.000000	1.055859
1629.000000	1.055748
1628.000000	1.055659
1627.000000	1.055612
1626.000000	1.055574
1625.000000	1.055504
1624.000000	1.055424
1623.000000	1.055403
1622.000000	1.055471
1621.000000	1.055550
1620.000000	1.055514
1619.000000	1.055301
1618.000000	1.055012
1617.000000	1.054853
1616.000000	1.054973
1615.000000	1.055314
1614.000000	1.055666
1613.000000	1.055861
1612.000000	1.055900
1611.000000	1.055885
1610.000000	1.055883
1609.000000	1.055893
1608.000000	1.055905
1607.000000	1.055927
1606.000000	1.055958
1605.000000	1.055978
1604.000000	1.055977
1603.000000	1.055968
1602.000000	1.055964
1601.000000	1.055967
1600.000000	1.055978
1599.000000	1.055996
1598.000000	1.056015
1597.000000	1.056028
1596.000000	1.056038
1595.000000	1.056048
1594.000000	1.056048
1593.000000	1.056025
1592.000000	1.055992
1591.000000	1.055975
1590.000000	1.055979
1589.000000	1.055990
1588.000000	1.055992
1587.000000	1.055990
1586.000000	1.055989
1585.000000	1.055987
1584.000000	1.055981
1583.000000	1.055974
1582.000000	1.055976
1581.000000	1.055980
1580.000000	1.055931
1579.000000	1.055743
1578.000000	1.055405
1577.000000	1.055070
1576.000000	1.054975
1575.000000	1.055199
1574.000000	1.055558
1573.000000	1.055782
1572.000000	1.055774
1571.000000	1.055655
1570.000000	1.055591
1569.000000	1.055640
1568.000000	1.055754
1567.000000	1.055865
1566.000000	1.055926
1565.000000	1.055925
1564.000000	1.055859
1563.000000	1.055673
1562.000000	1.055266
1561.000000	1.054643
1560.000000	1.054045
1559.000000	1.053828
1558.000000	1.054110
1557.000000	1.054640
1556.000000	1.055069
1555.000000	1.055282
1554.000000	1.055395
1553.000000	1.055523
1552.000000	1.055654
1551.000000	1.055738
1550.000000	1.055787
1549.000000	1.055835
1548.000000	1.055865
1547.000000	1.055827
1546.000000	1.055705
1545.000000	1.055529
1544.000000	1.055322
1543.000000	1.055064
1542.000000	1.054738
1541.000000	1.054407
1540.000000	1.054245
1539.000000	1.054413
1538.000000	1.054873
1537.000000	1.055362
1536.000000	1.055607
1535.000000	1.055566
1534.000000	1.055434
1533.000000	1.055410
1532.000000	1.055518
1531.000000	1.055656
1530.000000	1.055729
1529.000000	1.055706
1528.000000	1.055606
1527.000000	1.055486
1526.000000	1.055412
1525.000000	1.055372
1524.000000	1.055266
1523.000000	1.055040
1522.000000	1.054809
1521.000000	1.054765
1520.000000	1.054953
1519.000000	1.055214
1518.000000	1.055383
1517.000000	1.055452
1516.000000	1.055511
1515.000000	1.055583
1514.000000	1.055616
1513.000000	1.055591
1512.000000	1.055558
1511.000000	1.055527
1510.000000	1.055406
1509.000000	1.055097
1508.000000	1.054661
1507.000000	1.054335
1506.000000	1.054354
1505.000000	1.054736
1504.000000	1.055262
1503.000000	1.055672
1502.000000	1.055859
1501.000000	1.055882
1500.000000	1.055828
