PE IR       SUBTECH     SPECTRUM    ASCII       PEDS        4.00        
   -1
TE108B1_003.ASC
20/02/21
14:24:04.00
20/02/21
14:24:05.00
Administrator
Sample 003 By Administrator Date Friday, February 21 2020
1500.000000
#HDR
-1
-1
#GR
cm-1
A
1.0
0.0
4000.000000
-1.000000
2501
8
1.063524
0.976987
#DATA
4000.000000	0.991315
3999.000000	0.991287
3998.000000	0.991255
3997.000000	0.991234
3996.000000	0.991229
3995.000000	0.991232
3994.000000	0.991233
3993.000000	0.991224
3992.000000	0.991212
3991.000000	0.991205
3990.000000	0.991206
3989.000000	0.991205
3988.000000	0.991192
3987.000000	0.991167
3986.000000	0.991143
3985.000000	0.991132
3984.000000	0.991132
3983.000000	0.991132
3982.000000	0.991117
3981.000000	0.991084
3980.000000	0.991037
3979.000000	0.990986
3978.000000	0.990936
3977.000000	0.990889
3976.000000	0.990845
3975.000000	0.990803
3974.000000	0.990762
3973.000000	0.990718
3972.000000	0.990672
3971.000000	0.990621
3970.000000	0.990565
3969.000000	0.990507
3968.000000	0.990449
3967.000000	0.990395
3966.000000	0.990342
3965.000000	0.990283
3964.000000	0.990215
3963.000000	0.990137
3962.000000	0.990053
3961.000000	0.989971
3960.000000	0.989899
3959.000000	0.989836
3958.000000	0.989776
3957.000000	0.989711
3956.000000	0.989634
3955.000000	0.989545
3954.000000	0.989448
3953.000000	0.989345
3952.000000	0.989238
3951.000000	0.989127
3950.000000	0.989014
3949.000000	0.988906
3948.000000	0.988807
3947.000000	0.988717
3946.000000	0.988633
3945.000000	0.988546
3944.000000	0.988450
3943.000000	0.988349
3942.000000	0.988248
3941.000000	0.988153
3940.000000	0.988059
3939.000000	0.987961
3938.000000	0.987855
3937.000000	0.987739
3936.000000	0.987616
3935.000000	0.987484
3934.000000	0.987345
3933.000000	0.987207
3932.000000	0.987079
3931.000000	0.986964
3930.000000	0.986856
3929.000000	0.986748
3928.000000	0.986631
3927.000000	0.986505
3926.000000	0.986374
3925.000000	0.986241
3924.000000	0.986113
3923.000000	0.985987
3922.000000	0.985860
3921.000000	0.985723
3920.000000	0.985576
3919.000000	0.985419
3918.000000	0.985264
3917.000000	0.985123
3916.000000	0.985004
3915.000000	0.984900
3914.000000	0.984795
3913.000000	0.984675
3912.000000	0.984542
3911.000000	0.984409
3910.000000	0.984285
3909.000000	0.984165
3908.000000	0.984029
3907.000000	0.983857
3906.000000	0.983643
3905.000000	0.983404
3904.000000	0.983174
3903.000000	0.982983
3902.000000	0.982841
3901.000000	0.982743
3900.000000	0.982686
3899.000000	0.982665
3898.000000	0.982672
3897.000000	0.982681
3896.000000	0.982656
3895.000000	0.982569
3894.000000	0.982409
3893.000000	0.982205
3892.000000	0.982012
3891.000000	0.981881
3890.000000	0.981817
3889.000000	0.981764
3888.000000	0.981652
3887.000000	0.981461
3886.000000	0.981252
3885.000000	0.981112
3884.000000	0.981071
3883.000000	0.981073
3882.000000	0.981037
3881.000000	0.980941
3880.000000	0.980832
3879.000000	0.980766
3878.000000	0.980735
3877.000000	0.980689
3876.000000	0.980592
3875.000000	0.980456
3874.000000	0.980307
3873.000000	0.980136
3872.000000	0.979922
3871.000000	0.979683
3870.000000	0.979494
3869.000000	0.979420
3868.000000	0.979447
3867.000000	0.979483
3866.000000	0.979447
3865.000000	0.979341
3864.000000	0.979237
3863.000000	0.979199
3862.000000	0.979226
3861.000000	0.979278
3860.000000	0.979315
3859.000000	0.979310
3858.000000	0.979208
3857.000000	0.978927
3856.000000	0.978437
3855.000000	0.977836
3854.000000	0.977338
3853.000000	0.977147
3852.000000	0.977316
3851.000000	0.977716
3850.000000	0.978138
3849.000000	0.978425
3848.000000	0.978538
3847.000000	0.978521
3846.000000	0.978438
3845.000000	0.978331
3844.000000	0.978228
3843.000000	0.978139
3842.000000	0.978045
3841.000000	0.977902
3840.000000	0.977686
3839.000000	0.977437
3838.000000	0.977255
3837.000000	0.977221
3836.000000	0.977336
3835.000000	0.977517
3834.000000	0.977664
3833.000000	0.977733
3832.000000	0.977749
3831.000000	0.977758
3830.000000	0.977779
3829.000000	0.977799
3828.000000	0.977804
3827.000000	0.977803
3826.000000	0.977800
3825.000000	0.977766
3824.000000	0.977651
3823.000000	0.977450
3822.000000	0.977237
3821.000000	0.977119
3820.000000	0.977131
3819.000000	0.977192
3818.000000	0.977182
3817.000000	0.977080
3816.000000	0.976987
3815.000000	0.977034
3814.000000	0.977240
3813.000000	0.977504
3812.000000	0.977703
3811.000000	0.977774
3810.000000	0.977727
3809.000000	0.977601
3808.000000	0.977458
3807.000000	0.977376
3806.000000	0.977399
3805.000000	0.977479
3804.000000	0.977499
3803.000000	0.977394
3802.000000	0.977238
3801.000000	0.977185
3800.000000	0.977318
3799.000000	0.977573
3798.000000	0.977812
3797.000000	0.977954
3796.000000	0.978021
3795.000000	0.978080
3794.000000	0.978165
3793.000000	0.978260
3792.000000	0.978342
3791.000000	0.978414
3790.000000	0.978483
3789.000000	0.978545
3788.000000	0.978589
3787.000000	0.978617
3786.000000	0.978648
3785.000000	0.978698
3784.000000	0.978767
3783.000000	0.978830
3782.000000	0.978865
3781.000000	0.978869
3780.000000	0.978871
3779.000000	0.978904
3778.000000	0.978986
3777.000000	0.979099
3776.000000	0.979218
3775.000000	0.979323
3774.000000	0.979401
3773.000000	0.979439
3772.000000	0.979425
3771.000000	0.979380
3770.000000	0.979355
3769.000000	0.979392
3768.000000	0.979488
3767.000000	0.979606
3766.000000	0.979715
3765.000000	0.979817
3764.000000	0.979921
3763.000000	0.980020
3762.000000	0.980088
3761.000000	0.980115
3760.000000	0.980124
3759.000000	0.980161
3758.000000	0.980251
3757.000000	0.980373
3756.000000	0.980458
3755.000000	0.980437
3754.000000	0.980284
3753.000000	0.980049
3752.000000	0.979829
3751.000000	0.979733
3750.000000	0.979820
3749.000000	0.980061
3748.000000	0.980321
3747.000000	0.980437
3746.000000	0.980351
3745.000000	0.980191
3744.000000	0.980186
3743.000000	0.980470
3742.000000	0.980957
3741.000000	0.981427
3740.000000	0.981699
3739.000000	0.981742
3738.000000	0.981650
3737.000000	0.981551
3736.000000	0.981530
3735.000000	0.981607
3734.000000	0.981747
3733.000000	0.981913
3732.000000	0.982102
3731.000000	0.982335
3730.000000	0.982607
3729.000000	0.982869
3728.000000	0.983066
3727.000000	0.983193
3726.000000	0.983300
3725.000000	0.983433
3724.000000	0.983599
3723.000000	0.983777
3722.000000	0.983958
3721.000000	0.984153
3720.000000	0.984371
3719.000000	0.984603
3718.000000	0.984838
3717.000000	0.985058
3716.000000	0.985229
3715.000000	0.985313
3714.000000	0.985344
3713.000000	0.985506
3712.000000	0.986063
3711.000000	0.987134
3710.000000	0.988497
3709.000000	0.989682
3708.000000	0.990301
3707.000000	0.990331
3706.000000	0.990068
3705.000000	0.989835
3704.000000	0.989773
3703.000000	0.989856
3702.000000	0.990043
3701.000000	0.990334
3700.000000	0.990736
3699.000000	0.991205
3698.000000	0.991683
3697.000000	0.992136
3696.000000	0.992566
3695.000000	0.992982
3694.000000	0.993380
3693.000000	0.993744
3692.000000	0.994056
3691.000000	0.994317
3690.000000	0.994578
3689.000000	0.994938
3688.000000	0.995485
3687.000000	0.996228
3686.000000	0.997077
3685.000000	0.997916
3684.000000	0.998678
3683.000000	0.999371
3682.000000	1.000037
3681.000000	1.000702
3680.000000	1.001351
3679.000000	1.001939
3678.000000	1.002437
3677.000000	1.002890
3676.000000	1.003419
3675.000000	1.004136
3674.000000	1.005023
3673.000000	1.005934
3672.000000	1.006737
3671.000000	1.007444
3670.000000	1.008193
3669.000000	1.009094
3668.000000	1.010120
3667.000000	1.011152
3666.000000	1.012092
3665.000000	1.012925
3664.000000	1.013691
3663.000000	1.014438
3662.000000	1.015195
3661.000000	1.015963
3660.000000	1.016715
3659.000000	1.017407
3658.000000	1.018034
3657.000000	1.018647
3656.000000	1.019321
3655.000000	1.020082
3654.000000	1.020864
3653.000000	1.021550
3652.000000	1.022075
3651.000000	1.022484
3650.000000	1.022909
3649.000000	1.023469
3648.000000	1.024198
3647.000000	1.025038
3646.000000	1.025888
3645.000000	1.026671
3644.000000	1.027354
3643.000000	1.027952
3642.000000	1.028495
3641.000000	1.029007
3640.000000	1.029505
3639.000000	1.030000
3638.000000	1.030500
3637.000000	1.031001
3636.000000	1.031490
3635.000000	1.031961
3634.000000	1.032400
3633.000000	1.032775
3632.000000	1.033034
3631.000000	1.033172
3630.000000	1.033280
3629.000000	1.033505
3628.000000	1.033940
3627.000000	1.034533
3626.000000	1.035141
3625.000000	1.035642
3624.000000	1.036008
3623.000000	1.036271
3622.000000	1.036469
3621.000000	1.036629
3620.000000	1.036795
3619.000000	1.037021
3618.000000	1.037329
3617.000000	1.037677
3616.000000	1.037986
3615.000000	1.038212
3614.000000	1.038372
3613.000000	1.038515
3612.000000	1.038666
3611.000000	1.038817
3610.000000	1.038959
3609.000000	1.039111
3608.000000	1.039304
3607.000000	1.039535
3606.000000	1.039771
3605.000000	1.039994
3604.000000	1.040246
3603.000000	1.040598
3602.000000	1.041057
3601.000000	1.041524
3600.000000	1.041854
3599.000000	1.041971
3598.000000	1.041917
3597.000000	1.041803
3596.000000	1.041721
3595.000000	1.041701
3594.000000	1.041732
3593.000000	1.041788
3592.000000	1.041843
3591.000000	1.041870
3590.000000	1.041857
3589.000000	1.041819
3588.000000	1.041796
3587.000000	1.041826
3586.000000	1.041921
3585.000000	1.042058
3584.000000	1.042195
3583.000000	1.042300
3582.000000	1.042371
3581.000000	1.042425
3580.000000	1.042480
3579.000000	1.042538
3578.000000	1.042586
3577.000000	1.042612
3576.000000	1.042621
3575.000000	1.042632
3574.000000	1.042662
3573.000000	1.042712
3572.000000	1.042758
3571.000000	1.042766
3570.000000	1.042721
3569.000000	1.042637
3568.000000	1.042563
3567.000000	1.042547
3566.000000	1.042605
3565.000000	1.042710
3564.000000	1.042815
3563.000000	1.042887
3562.000000	1.042926
3561.000000	1.042952
3560.000000	1.042983
3559.000000	1.043016
3558.000000	1.043041
3557.000000	1.043050
3556.000000	1.043043
3555.000000	1.043024
3554.000000	1.043001
3553.000000	1.042988
3552.000000	1.042998
3551.000000	1.043030
3550.000000	1.043062
3549.000000	1.043069
3548.000000	1.043044
3547.000000	1.043006
3546.000000	1.042990
3545.000000	1.043014
3544.000000	1.043076
3543.000000	1.043155
3542.000000	1.043231
3541.000000	1.043287
3540.000000	1.043318
3539.000000	1.043325
3538.000000	1.043320
3537.000000	1.043320
3536.000000	1.043341
3535.000000	1.043380
3534.000000	1.043421
3533.000000	1.043445
3532.000000	1.043452
3531.000000	1.043457
3530.000000	1.043472
3529.000000	1.043493
3528.000000	1.043511
3527.000000	1.043524
3526.000000	1.043537
3525.000000	1.043555
3524.000000	1.043578
3523.000000	1.043609
3522.000000	1.043652
3521.000000	1.043711
3520.000000	1.043775
3519.000000	1.043834
3518.000000	1.043881
3517.000000	1.043919
3516.000000	1.043955
3515.000000	1.043993
3514.000000	1.044032
3513.000000	1.044069
3512.000000	1.044100
3511.000000	1.044130
3510.000000	1.044166
3509.000000	1.044218
3508.000000	1.044286
3507.000000	1.044361
3506.000000	1.044429
3505.000000	1.044487
3504.000000	1.044541
3503.000000	1.044601
3502.000000	1.044670
3501.000000	1.044745
3500.000000	1.044821
3499.000000	1.044891
3498.000000	1.044950
3497.000000	1.044993
3496.000000	1.045032
3495.000000	1.045080
3494.000000	1.045150
3493.000000	1.045238
3492.000000	1.045333
3491.000000	1.045427
3490.000000	1.045512
3489.000000	1.045584
3488.000000	1.045644
3487.000000	1.045702
3486.000000	1.045769
3485.000000	1.045844
3484.000000	1.045917
3483.000000	1.045982
3482.000000	1.046045
3481.000000	1.046120
3480.000000	1.046212
3479.000000	1.046315
3478.000000	1.046417
3477.000000	1.046505
3476.000000	1.046576
3475.000000	1.046638
3474.000000	1.046704
3473.000000	1.046786
3472.000000	1.046882
3471.000000	1.046986
3470.000000	1.047092
3469.000000	1.047199
3468.000000	1.047306
3467.000000	1.047410
3466.000000	1.047512
3465.000000	1.047614
3464.000000	1.047723
3463.000000	1.047846
3462.000000	1.047983
3461.000000	1.048118
3460.000000	1.048237
3459.000000	1.048337
3458.000000	1.048434
3457.000000	1.048543
3456.000000	1.048668
3455.000000	1.048798
3454.000000	1.048925
3453.000000	1.049051
3452.000000	1.049181
3451.000000	1.049314
3450.000000	1.049443
3449.000000	1.049561
3448.000000	1.049672
3447.000000	1.049787
3446.000000	1.049916
3445.000000	1.050059
3444.000000	1.050206
3443.000000	1.050347
3442.000000	1.050480
3441.000000	1.050604
3440.000000	1.050721
3439.000000	1.050830
3438.000000	1.050934
3437.000000	1.051037
3436.000000	1.051151
3435.000000	1.051288
3434.000000	1.051448
3433.000000	1.051618
3432.000000	1.051774
3431.000000	1.051906
3430.000000	1.052031
3429.000000	1.052172
3428.000000	1.052337
3427.000000	1.052512
3426.000000	1.052676
3425.000000	1.052820
3424.000000	1.052946
3423.000000	1.053062
3422.000000	1.053171
3421.000000	1.053282
3420.000000	1.053405
3419.000000	1.053545
3418.000000	1.053696
3417.000000	1.053838
3416.000000	1.053957
3415.000000	1.054058
3414.000000	1.054156
3413.000000	1.054263
3412.000000	1.054379
3411.000000	1.054499
3410.000000	1.054617
3409.000000	1.054729
3408.000000	1.054830
3407.000000	1.054918
3406.000000	1.054994
3405.000000	1.055066
3404.000000	1.055139
3403.000000	1.055216
3402.000000	1.055297
3401.000000	1.055379
3400.000000	1.055461
3399.000000	1.055546
3398.000000	1.055638
3397.000000	1.055738
3396.000000	1.055834
3395.000000	1.055914
3394.000000	1.055973
3393.000000	1.056024
3392.000000	1.056083
3391.000000	1.056164
3390.000000	1.056263
3389.000000	1.056363
3388.000000	1.056445
3387.000000	1.056498
3386.000000	1.056532
3385.000000	1.056563
3384.000000	1.056604
3383.000000	1.056656
3382.000000	1.056710
3381.000000	1.056761
3380.000000	1.056811
3379.000000	1.056867
3378.000000	1.056935
3377.000000	1.057009
3376.000000	1.057079
3375.000000	1.057140
3374.000000	1.057194
3373.000000	1.057246
3372.000000	1.057295
3371.000000	1.057336
3370.000000	1.057366
3369.000000	1.057390
3368.000000	1.057424
3367.000000	1.057471
3366.000000	1.057527
3365.000000	1.057578
3364.000000	1.057617
3363.000000	1.057649
3362.000000	1.057680
3361.000000	1.057714
3360.000000	1.057750
3359.000000	1.057787
3358.000000	1.057825
3357.000000	1.057860
3356.000000	1.057890
3355.000000	1.057914
3354.000000	1.057938
3353.000000	1.057964
3352.000000	1.057992
3351.000000	1.058020
3350.000000	1.058051
3349.000000	1.058086
3348.000000	1.058119
3347.000000	1.058140
3346.000000	1.058147
3345.000000	1.058150
3344.000000	1.058165
3343.000000	1.058196
3342.000000	1.058237
3341.000000	1.058274
3340.000000	1.058295
3339.000000	1.058298
3338.000000	1.058297
3337.000000	1.058309
3336.000000	1.058342
3335.000000	1.058389
3334.000000	1.058437
3333.000000	1.058474
3332.000000	1.058500
3331.000000	1.058518
3330.000000	1.058532
3329.000000	1.058550
3328.000000	1.058578
3327.000000	1.058613
3326.000000	1.058646
3325.000000	1.058675
3324.000000	1.058700
3323.000000	1.058727
3322.000000	1.058755
3321.000000	1.058783
3320.000000	1.058814
3319.000000	1.058856
3318.000000	1.058909
3317.000000	1.058964
3316.000000	1.059012
3315.000000	1.059049
3314.000000	1.059083
3313.000000	1.059117
3312.000000	1.059151
3311.000000	1.059188
3310.000000	1.059229
3309.000000	1.059273
3308.000000	1.059313
3307.000000	1.059343
3306.000000	1.059370
3305.000000	1.059406
3304.000000	1.059462
3303.000000	1.059531
3302.000000	1.059598
3301.000000	1.059649
3300.000000	1.059688
3299.000000	1.059728
3298.000000	1.059775
3297.000000	1.059818
3296.000000	1.059842
3295.000000	1.059849
3294.000000	1.059859
3293.000000	1.059895
3292.000000	1.059962
3291.000000	1.060045
3290.000000	1.060121
3289.000000	1.060175
3288.000000	1.060205
3287.000000	1.060220
3286.000000	1.060233
3285.000000	1.060256
3284.000000	1.060294
3283.000000	1.060343
3282.000000	1.060398
3281.000000	1.060451
3280.000000	1.060498
3279.000000	1.060541
3278.000000	1.060582
3277.000000	1.060621
3276.000000	1.060653
3275.000000	1.060676
3274.000000	1.060694
3273.000000	1.060708
3272.000000	1.060720
3271.000000	1.060735
3270.000000	1.060762
3269.000000	1.060809
3268.000000	1.060875
3267.000000	1.060943
3266.000000	1.060997
3265.000000	1.061037
3264.000000	1.061072
3263.000000	1.061113
3262.000000	1.061162
3261.000000	1.061213
3260.000000	1.061256
3259.000000	1.061280
3258.000000	1.061289
3257.000000	1.061297
3256.000000	1.061323
3255.000000	1.061375
3254.000000	1.061438
3253.000000	1.061488
3252.000000	1.061518
3251.000000	1.061540
3250.000000	1.061567
3249.000000	1.061603
3248.000000	1.061642
3247.000000	1.061675
3246.000000	1.061703
3245.000000	1.061732
3244.000000	1.061767
3243.000000	1.061811
3242.000000	1.061858
3241.000000	1.061909
3240.000000	1.061967
3239.000000	1.062034
3238.000000	1.062100
3237.000000	1.062151
3236.000000	1.062178
3235.000000	1.062192
3234.000000	1.062211
3233.000000	1.062247
3232.000000	1.062300
3231.000000	1.062364
3230.000000	1.062431
3229.000000	1.062494
3228.000000	1.062555
3227.000000	1.062619
3226.000000	1.062686
3225.000000	1.062749
3224.000000	1.062801
3223.000000	1.062839
3222.000000	1.062872
3221.000000	1.062908
3220.000000	1.062954
3219.000000	1.063004
3218.000000	1.063047
3217.000000	1.063071
3216.000000	1.063074
3215.000000	1.063070
3214.000000	1.063080
3213.000000	1.063109
3212.000000	1.063148
3211.000000	1.063187
3210.000000	1.063222
3209.000000	1.063252
3208.000000	1.063271
3207.000000	1.063276
3206.000000	1.063271
3205.000000	1.063263
3204.000000	1.063258
3203.000000	1.063252
3202.000000	1.063239
3201.000000	1.063216
3200.000000	1.063192
3199.000000	1.063181
3198.000000	1.063185
3197.000000	1.063198
3196.000000	1.063210
3195.000000	1.063215
3194.000000	1.063214
3193.000000	1.063209
3192.000000	1.063200
3191.000000	1.063187
3190.000000	1.063177
3189.000000	1.063174
3188.000000	1.063177
3187.000000	1.063179
3186.000000	1.063176
3185.000000	1.063167
3184.000000	1.063157
3183.000000	1.063149
3182.000000	1.063148
3181.000000	1.063150
3180.000000	1.063150
3179.000000	1.063141
3178.000000	1.063129
3177.000000	1.063124
3176.000000	1.063138
3175.000000	1.063170
3174.000000	1.063205
3173.000000	1.063220
3172.000000	1.063206
3171.000000	1.063172
3170.000000	1.063138
3169.000000	1.063116
3168.000000	1.063108
3167.000000	1.063108
3166.000000	1.063114
3165.000000	1.063126
3164.000000	1.063141
3163.000000	1.063160
3162.000000	1.063178
3161.000000	1.063193
3160.000000	1.063200
3159.000000	1.063200
3158.000000	1.063195
3157.000000	1.063188
3156.000000	1.063177
3155.000000	1.063160
3154.000000	1.063140
3153.000000	1.063126
3152.000000	1.063126
3151.000000	1.063145
3150.000000	1.063179
3149.000000	1.063219
3148.000000	1.063251
3147.000000	1.063268
3146.000000	1.063271
3145.000000	1.063266
3144.000000	1.063256
3143.000000	1.063242
3142.000000	1.063231
3141.000000	1.063232
3140.000000	1.063245
3139.000000	1.063263
3138.000000	1.063275
3137.000000	1.063281
3136.000000	1.063286
3135.000000	1.063298
3134.000000	1.063317
3133.000000	1.063341
3132.000000	1.063365
3131.000000	1.063388
3130.000000	1.063410
3129.000000	1.063432
3128.000000	1.063454
3127.000000	1.063470
3126.000000	1.063472
3125.000000	1.063465
3124.000000	1.063462
3123.000000	1.063474
3122.000000	1.063498
3121.000000	1.063518
3120.000000	1.063524
3119.000000	1.063519
3118.000000	1.063514
3117.000000	1.063512
3116.000000	1.063509
3115.000000	1.063503
3114.000000	1.063499
3113.000000	1.063501
3112.000000	1.063507
3111.000000	1.063514
3110.000000	1.063512
3109.000000	1.063501
3108.000000	1.063486
3107.000000	1.063478
3106.000000	1.063481
3105.000000	1.063483
3104.000000	1.063468
3103.000000	1.063428
3102.000000	1.063372
3101.000000	1.063314
3100.000000	1.063262
3099.000000	1.063219
3098.000000	1.063187
3097.000000	1.063167
3096.000000	1.063153
3095.000000	1.063132
3094.000000	1.063096
3093.000000	1.063043
3092.000000	1.062979
3091.000000	1.062918
3090.000000	1.062871
3089.000000	1.062843
3088.000000	1.062825
3087.000000	1.062799
3086.000000	1.062751
3085.000000	1.062685
3084.000000	1.062616
3083.000000	1.062558
3082.000000	1.062509
3081.000000	1.062455
3080.000000	1.062385
3079.000000	1.062306
3078.000000	1.062237
3077.000000	1.062188
3076.000000	1.062152
3075.000000	1.062111
3074.000000	1.062051
3073.000000	1.061975
3072.000000	1.061892
3071.000000	1.061812
3070.000000	1.061738
3069.000000	1.061666
3068.000000	1.061592
3067.000000	1.061516
3066.000000	1.061445
3065.000000	1.061383
3064.000000	1.061330
3063.000000	1.061282
3062.000000	1.061232
3061.000000	1.061175
3060.000000	1.061105
3059.000000	1.061027
3058.000000	1.060946
3057.000000	1.060869
3056.000000	1.060799
3055.000000	1.060731
3054.000000	1.060657
3053.000000	1.060572
3052.000000	1.060479
3051.000000	1.060392
3050.000000	1.060324
3049.000000	1.060273
3048.000000	1.060227
3047.000000	1.060169
3046.000000	1.060093
3045.000000	1.060003
3044.000000	1.059906
3043.000000	1.059810
3042.000000	1.059725
3041.000000	1.059654
3040.000000	1.059594
3039.000000	1.059537
3038.000000	1.059474
3037.000000	1.059405
3036.000000	1.059332
3035.000000	1.059257
3034.000000	1.059177
3033.000000	1.059090
3032.000000	1.058999
3031.000000	1.058912
3030.000000	1.058830
3029.000000	1.058743
3028.000000	1.058647
3027.000000	1.058549
3026.000000	1.058464
3025.000000	1.058390
3024.000000	1.058308
3023.000000	1.058206
3022.000000	1.058090
3021.000000	1.057974
3020.000000	1.057861
3019.000000	1.057742
3018.000000	1.057607
3017.000000	1.057462
3016.000000	1.057318
3015.000000	1.057189
3014.000000	1.057079
3013.000000	1.056988
3012.000000	1.056904
3011.000000	1.056813
3010.000000	1.056702
3009.000000	1.056571
3008.000000	1.056429
3007.000000	1.056290
3006.000000	1.056164
3005.000000	1.056047
3004.000000	1.055930
3003.000000	1.055803
3002.000000	1.055664
3001.000000	1.055512
3000.000000	1.055350
2999.000000	1.055177
2998.000000	1.054998
2997.000000	1.054821
2996.000000	1.054651
2995.000000	1.054490
2994.000000	1.054337
2993.000000	1.054187
2992.000000	1.054035
2991.000000	1.053878
2990.000000	1.053713
2989.000000	1.053541
2988.000000	1.053366
2987.000000	1.053196
2986.000000	1.053036
2985.000000	1.052888
2984.000000	1.052744
2983.000000	1.052599
2982.000000	1.052452
2981.000000	1.052298
2980.000000	1.052131
2979.000000	1.051947
2978.000000	1.051751
2977.000000	1.051556
2976.000000	1.051373
2975.000000	1.051206
2974.000000	1.051049
2973.000000	1.050896
2972.000000	1.050740
2971.000000	1.050571
2970.000000	1.050390
2969.000000	1.050200
2968.000000	1.050008
2967.000000	1.049819
2966.000000	1.049629
2965.000000	1.049433
2964.000000	1.049226
2963.000000	1.049007
2962.000000	1.048783
2961.000000	1.048558
2960.000000	1.048339
2959.000000	1.048129
2958.000000	1.047924
2957.000000	1.047721
2956.000000	1.047514
2955.000000	1.047303
2954.000000	1.047083
2953.000000	1.046858
2952.000000	1.046636
2951.000000	1.046426
2950.000000	1.046231
2949.000000	1.046036
2948.000000	1.045828
2947.000000	1.045606
2946.000000	1.045381
2945.000000	1.045168
2944.000000	1.044968
2943.000000	1.044776
2942.000000	1.044582
2941.000000	1.044382
2940.000000	1.044173
2939.000000	1.043958
2938.000000	1.043746
2937.000000	1.043544
2936.000000	1.043351
2935.000000	1.043160
2934.000000	1.042965
2933.000000	1.042767
2932.000000	1.042568
2931.000000	1.042372
2930.000000	1.042182
2929.000000	1.041988
2928.000000	1.041777
2927.000000	1.041542
2926.000000	1.041291
2925.000000	1.041042
2924.000000	1.040811
2923.000000	1.040599
2922.000000	1.040401
2921.000000	1.040212
2920.000000	1.040025
2919.000000	1.039830
2918.000000	1.039627
2917.000000	1.039419
2916.000000	1.039216
2915.000000	1.039019
2914.000000	1.038825
2913.000000	1.038633
2912.000000	1.038444
2911.000000	1.038261
2910.000000	1.038081
2909.000000	1.037900
2908.000000	1.037716
2907.000000	1.037528
2906.000000	1.037336
2905.000000	1.037141
2904.000000	1.036948
2903.000000	1.036763
2902.000000	1.036585
2901.000000	1.036408
2900.000000	1.036231
2899.000000	1.036055
2898.000000	1.035881
2897.000000	1.035709
2896.000000	1.035539
2895.000000	1.035374
2894.000000	1.035213
2893.000000	1.035050
2892.000000	1.034883
2891.000000	1.034708
2890.000000	1.034526
2889.000000	1.034340
2888.000000	1.034159
2887.000000	1.033991
2886.000000	1.033840
2885.000000	1.033696
2884.000000	1.033546
2883.000000	1.033387
2882.000000	1.033228
2881.000000	1.033075
2880.000000	1.032925
2879.000000	1.032771
2878.000000	1.032610
2877.000000	1.032445
2876.000000	1.032277
2875.000000	1.032109
2874.000000	1.031946
2873.000000	1.031795
2872.000000	1.031658
2871.000000	1.031532
2870.000000	1.031408
2869.000000	1.031277
2868.000000	1.031137
2867.000000	1.030990
2866.000000	1.030835
2865.000000	1.030668
2864.000000	1.030486
2863.000000	1.030298
2862.000000	1.030120
2861.000000	1.029956
2860.000000	1.029800
2859.000000	1.029644
2858.000000	1.029494
2857.000000	1.029362
2856.000000	1.029254
2855.000000	1.029161
2854.000000	1.029066
2853.000000	1.028955
2852.000000	1.028827
2851.000000	1.028691
2850.000000	1.028560
2849.000000	1.028439
2848.000000	1.028327
2847.000000	1.028217
2846.000000	1.028107
2845.000000	1.027999
2844.000000	1.027898
2843.000000	1.027804
2842.000000	1.027715
2841.000000	1.027624
2840.000000	1.027527
2839.000000	1.027423
2838.000000	1.027318
2837.000000	1.027216
2836.000000	1.027122
2835.000000	1.027038
2834.000000	1.026961
2833.000000	1.026885
2832.000000	1.026802
2831.000000	1.026709
2830.000000	1.026609
2829.000000	1.026502
2828.000000	1.026395
2827.000000	1.026292
2826.000000	1.026199
2825.000000	1.026116
2824.000000	1.026040
2823.000000	1.025964
2822.000000	1.025887
2821.000000	1.025802
2820.000000	1.025710
2819.000000	1.025615
2818.000000	1.025525
2817.000000	1.025443
2816.000000	1.025362
2815.000000	1.025280
2814.000000	1.025201
2813.000000	1.025128
2812.000000	1.025055
2811.000000	1.024974
2810.000000	1.024887
2809.000000	1.024803
2808.000000	1.024726
2807.000000	1.024652
2806.000000	1.024577
2805.000000	1.024501
2804.000000	1.024428
2803.000000	1.024359
2802.000000	1.024293
2801.000000	1.024225
2800.000000	1.024153
2799.000000	1.024081
2798.000000	1.024016
2797.000000	1.023961
2796.000000	1.023912
2795.000000	1.023857
2794.000000	1.023792
2793.000000	1.023723
2792.000000	1.023660
2791.000000	1.023607
2790.000000	1.023561
2789.000000	1.023516
2788.000000	1.023469
2787.000000	1.023415
2786.000000	1.023353
2785.000000	1.023284
2784.000000	1.023219
2783.000000	1.023170
2782.000000	1.023139
2781.000000	1.023118
2780.000000	1.023093
2779.000000	1.023058
2778.000000	1.023016
2777.000000	1.022973
2776.000000	1.022931
2775.000000	1.022888
2774.000000	1.022840
2773.000000	1.022786
2772.000000	1.022728
2771.000000	1.022675
2770.000000	1.022637
2769.000000	1.022612
2768.000000	1.022590
2767.000000	1.022559
2766.000000	1.022517
2765.000000	1.022473
2764.000000	1.022432
2763.000000	1.022391
2762.000000	1.022345
2761.000000	1.022295
2760.000000	1.022248
2759.000000	1.022207
2758.000000	1.022176
2757.000000	1.022153
2756.000000	1.022131
2755.000000	1.022105
2754.000000	1.022076
2753.000000	1.022049
2752.000000	1.022034
2751.000000	1.022030
2750.000000	1.022030
2749.000000	1.022024
2748.000000	1.022006
2747.000000	1.021983
2746.000000	1.021962
2745.000000	1.021945
2744.000000	1.021927
2743.000000	1.021906
2742.000000	1.021881
2741.000000	1.021857
2740.000000	1.021835
2739.000000	1.021813
2738.000000	1.021793
2737.000000	1.021780
2736.000000	1.021779
2735.000000	1.021787
2734.000000	1.021795
2733.000000	1.021795
2732.000000	1.021784
2731.000000	1.021769
2730.000000	1.021755
2729.000000	1.021742
2728.000000	1.021726
2727.000000	1.021706
2726.000000	1.021691
2725.000000	1.021691
2724.000000	1.021709
2723.000000	1.021733
2722.000000	1.021752
2721.000000	1.021762
2720.000000	1.021762
2719.000000	1.021757
2718.000000	1.021754
2717.000000	1.021759
2716.000000	1.021776
2715.000000	1.021799
2714.000000	1.021813
2713.000000	1.021818
2712.000000	1.021820
2711.000000	1.021828
2710.000000	1.021841
2709.000000	1.021849
2708.000000	1.021846
2707.000000	1.021838
2706.000000	1.021837
2705.000000	1.021850
2704.000000	1.021877
2703.000000	1.021911
2702.000000	1.021942
2701.000000	1.021965
2700.000000	1.021982
2699.000000	1.022000
2698.000000	1.022027
2697.000000	1.022063
2696.000000	1.022102
2695.000000	1.022135
2694.000000	1.022159
2693.000000	1.022179
2692.000000	1.022200
2691.000000	1.022227
2690.000000	1.022260
2689.000000	1.022297
2688.000000	1.022335
2687.000000	1.022374
2686.000000	1.022418
2685.000000	1.022466
2684.000000	1.022518
2683.000000	1.022567
2682.000000	1.022610
2681.000000	1.022646
2680.000000	1.022679
2679.000000	1.022714
2678.000000	1.022752
2677.000000	1.022795
2676.000000	1.022840
2675.000000	1.022886
2674.000000	1.022932
2673.000000	1.022979
2672.000000	1.023028
2671.000000	1.023080
2670.000000	1.023134
2669.000000	1.023190
2668.000000	1.023250
2667.000000	1.023315
2666.000000	1.023383
2665.000000	1.023449
2664.000000	1.023507
2663.000000	1.023561
2662.000000	1.023614
2661.000000	1.023672
2660.000000	1.023735
2659.000000	1.023802
2658.000000	1.023875
2657.000000	1.023951
2656.000000	1.024027
2655.000000	1.024101
2654.000000	1.024176
2653.000000	1.024258
2652.000000	1.024345
2651.000000	1.024433
2650.000000	1.024519
2649.000000	1.024604
2648.000000	1.024689
2647.000000	1.024774
2646.000000	1.024860
2645.000000	1.024944
2644.000000	1.025025
2643.000000	1.025106
2642.000000	1.025190
2641.000000	1.025278
2640.000000	1.025365
2639.000000	1.025452
2638.000000	1.025541
2637.000000	1.025637
2636.000000	1.025734
2635.000000	1.025825
2634.000000	1.025908
2633.000000	1.025989
2632.000000	1.026073
2631.000000	1.026164
2630.000000	1.026260
2629.000000	1.026359
2628.000000	1.026461
2627.000000	1.026567
2626.000000	1.026677
2625.000000	1.026785
2624.000000	1.026883
2623.000000	1.026965
2622.000000	1.027040
2621.000000	1.027121
2620.000000	1.027219
2619.000000	1.027328
2618.000000	1.027439
2617.000000	1.027543
2616.000000	1.027638
2615.000000	1.027730
2614.000000	1.027827
2613.000000	1.027934
2612.000000	1.028045
2611.000000	1.028151
2610.000000	1.028244
2609.000000	1.028330
2608.000000	1.028419
2607.000000	1.028519
2606.000000	1.028635
2605.000000	1.028760
2604.000000	1.028885
2603.000000	1.029005
2602.000000	1.029126
2601.000000	1.029258
2600.000000	1.029396
2599.000000	1.029528
2598.000000	1.029647
2597.000000	1.029755
2596.000000	1.029860
2595.000000	1.029965
2594.000000	1.030069
2593.000000	1.030173
2592.000000	1.030277
2591.000000	1.030385
2590.000000	1.030500
2589.000000	1.030622
2588.000000	1.030749
2587.000000	1.030870
2586.000000	1.030985
2585.000000	1.031101
2584.000000	1.031224
2583.000000	1.031354
2582.000000	1.031481
2581.000000	1.031603
2580.000000	1.031723
2579.000000	1.031846
2578.000000	1.031974
2577.000000	1.032103
2576.000000	1.032230
2575.000000	1.032356
2574.000000	1.032487
2573.000000	1.032625
2572.000000	1.032765
2571.000000	1.032900
2570.000000	1.033026
2569.000000	1.033146
2568.000000	1.033263
2567.000000	1.033383
2566.000000	1.033508
2565.000000	1.033643
2564.000000	1.033787
2563.000000	1.033939
2562.000000	1.034093
2561.000000	1.034242
2560.000000	1.034385
2559.000000	1.034524
2558.000000	1.034665
2557.000000	1.034814
2556.000000	1.034971
2555.000000	1.035130
2554.000000	1.035288
2553.000000	1.035447
2552.000000	1.035607
2551.000000	1.035765
2550.000000	1.035918
2549.000000	1.036069
2548.000000	1.036224
2547.000000	1.036384
2546.000000	1.036541
2545.000000	1.036689
2544.000000	1.036834
2543.000000	1.036988
2542.000000	1.037158
2541.000000	1.037344
2540.000000	1.037533
2539.000000	1.037712
2538.000000	1.037879
2537.000000	1.038034
2536.000000	1.038187
2535.000000	1.038340
2534.000000	1.038498
2533.000000	1.038659
2532.000000	1.038827
2531.000000	1.038999
2530.000000	1.039174
2529.000000	1.039348
2528.000000	1.039519
2527.000000	1.039685
2526.000000	1.039848
2525.000000	1.040010
2524.000000	1.040176
2523.000000	1.040350
2522.000000	1.040526
2521.000000	1.040698
2520.000000	1.040867
2519.000000	1.041038
2518.000000	1.041213
2517.000000	1.041388
2516.000000	1.041556
2515.000000	1.041716
2514.000000	1.041871
2513.000000	1.042025
2512.000000	1.042179
2511.000000	1.042333
2510.000000	1.042488
2509.000000	1.042645
2508.000000	1.042806
2507.000000	1.042972
2506.000000	1.043140
2505.000000	1.043301
2504.000000	1.043448
2503.000000	1.043582
2502.000000	1.043711
2501.000000	1.043844
2500.000000	1.043981
2499.000000	1.044114
2498.000000	1.044238
2497.000000	1.044354
2496.000000	1.044467
2495.000000	1.044582
2494.000000	1.044698
2493.000000	1.044809
2492.000000	1.044910
2491.000000	1.045001
2490.000000	1.045088
2489.000000	1.045179
2488.000000	1.045279
2487.000000	1.045389
2486.000000	1.045494
2485.000000	1.045578
2484.000000	1.045633
2483.000000	1.045674
2482.000000	1.045724
2481.000000	1.045794
2480.000000	1.045876
2479.000000	1.045955
2478.000000	1.046029
2477.000000	1.046104
2476.000000	1.046181
2475.000000	1.046251
2474.000000	1.046306
2473.000000	1.046347
2472.000000	1.046382
2471.000000	1.046422
2470.000000	1.046471
2469.000000	1.046524
2468.000000	1.046573
2467.000000	1.046614
2466.000000	1.046653
2465.000000	1.046694
2464.000000	1.046738
2463.000000	1.046777
2462.000000	1.046812
2461.000000	1.046845
2460.000000	1.046878
2459.000000	1.046907
2458.000000	1.046926
2457.000000	1.046935
2456.000000	1.046936
2455.000000	1.046930
2454.000000	1.046919
2453.000000	1.046905
2452.000000	1.046889
2451.000000	1.046872
2450.000000	1.046849
2449.000000	1.046817
2448.000000	1.046777
2447.000000	1.046734
2446.000000	1.046695
2445.000000	1.046657
2444.000000	1.046614
2443.000000	1.046565
2442.000000	1.046509
2441.000000	1.046447
2440.000000	1.046375
2439.000000	1.046291
2438.000000	1.046203
2437.000000	1.046118
2436.000000	1.046040
2435.000000	1.045970
2434.000000	1.045904
2433.000000	1.045839
2432.000000	1.045771
2431.000000	1.045697
2430.000000	1.045620
2429.000000	1.045546
2428.000000	1.045475
2427.000000	1.045402
2426.000000	1.045322
2425.000000	1.045235
2424.000000	1.045143
2423.000000	1.045049
2422.000000	1.044957
2421.000000	1.044871
2420.000000	1.044791
2419.000000	1.044715
2418.000000	1.044636
2417.000000	1.044552
2416.000000	1.044463
2415.000000	1.044372
2414.000000	1.044284
2413.000000	1.044206
2412.000000	1.044135
2411.000000	1.044067
2410.000000	1.043999
2409.000000	1.043928
2408.000000	1.043854
2407.000000	1.043775
2406.000000	1.043685
2405.000000	1.043586
2404.000000	1.043480
2403.000000	1.043376
2402.000000	1.043279
2401.000000	1.043188
2400.000000	1.043099
2399.000000	1.043011
2398.000000	1.042928
2397.000000	1.042853
2396.000000	1.042784
2395.000000	1.042717
2394.000000	1.042658
2393.000000	1.042615
2392.000000	1.042591
2391.000000	1.042579
2390.000000	1.042568
2389.000000	1.042554
2388.000000	1.042547
2387.000000	1.042563
2386.000000	1.042632
2385.000000	1.042803
2384.000000	1.043139
2383.000000	1.043692
2382.000000	1.044474
2381.000000	1.045433
2380.000000	1.046458
2379.000000	1.047413
2378.000000	1.048195
2377.000000	1.048763
2376.000000	1.049138
2375.000000	1.049370
2374.000000	1.049506
2373.000000	1.049574
2372.000000	1.049589
2371.000000	1.049561
2370.000000	1.049495
2369.000000	1.049398
2368.000000	1.049288
2367.000000	1.049196
2366.000000	1.049156
2365.000000	1.049195
2364.000000	1.049337
2363.000000	1.049587
2362.000000	1.049930
2361.000000	1.050332
2360.000000	1.050757
2359.000000	1.051188
2358.000000	1.051632
2357.000000	1.052102
2356.000000	1.052606
2355.000000	1.053139
2354.000000	1.053690
2353.000000	1.054248
2352.000000	1.054791
2351.000000	1.055269
2350.000000	1.055609
2349.000000	1.055753
2348.000000	1.055707
2347.000000	1.055554
2346.000000	1.055421
2345.000000	1.055408
2344.000000	1.055554
2343.000000	1.055827
2342.000000	1.056129
2341.000000	1.056327
2340.000000	1.056298
2339.000000	1.055992
2338.000000	1.055466
2337.000000	1.054845
2336.000000	1.054258
2335.000000	1.053781
2334.000000	1.053426
2333.000000	1.053171
2332.000000	1.052998
2331.000000	1.052893
2330.000000	1.052842
2329.000000	1.052818
2328.000000	1.052793
2327.000000	1.052761
2326.000000	1.052728
2325.000000	1.052700
2324.000000	1.052674
2323.000000	1.052651
2322.000000	1.052645
2321.000000	1.052660
2320.000000	1.052690
2319.000000	1.052723
2318.000000	1.052755
2317.000000	1.052784
2316.000000	1.052801
2315.000000	1.052800
2314.000000	1.052790
2313.000000	1.052788
2312.000000	1.052799
2311.000000	1.052820
2310.000000	1.052844
2309.000000	1.052867
2308.000000	1.052886
2307.000000	1.052900
2306.000000	1.052907
2305.000000	1.052907
2304.000000	1.052900
2303.000000	1.052891
2302.000000	1.052886
2301.000000	1.052884
2300.000000	1.052875
2299.000000	1.052852
2298.000000	1.052822
2297.000000	1.052797
2296.000000	1.052783
2295.000000	1.052775
2294.000000	1.052769
2293.000000	1.052768
2292.000000	1.052770
2291.000000	1.052767
2290.000000	1.052752
2289.000000	1.052721
2288.000000	1.052683
2287.000000	1.052674
2286.000000	1.052755
2285.000000	1.052969
2284.000000	1.053288
2283.000000	1.053603
2282.000000	1.053799
2281.000000	1.053833
2280.000000	1.053749
2279.000000	1.053630
2278.000000	1.053533
2277.000000	1.053472
2276.000000	1.053437
2275.000000	1.053418
2274.000000	1.053408
2273.000000	1.053401
2272.000000	1.053392
2271.000000	1.053380
2270.000000	1.053373
2269.000000	1.053377
2268.000000	1.053389
2267.000000	1.053401
2266.000000	1.053411
2265.000000	1.053420
2264.000000	1.053431
2263.000000	1.053444
2262.000000	1.053456
2261.000000	1.053463
2260.000000	1.053466
2259.000000	1.053470
2258.000000	1.053480
2257.000000	1.053497
2256.000000	1.053516
2255.000000	1.053530
2254.000000	1.053537
2253.000000	1.053545
2252.000000	1.053562
2251.000000	1.053589
2250.000000	1.053622
2249.000000	1.053653
2248.000000	1.053672
2247.000000	1.053674
2246.000000	1.053666
2245.000000	1.053664
2244.000000	1.053679
2243.000000	1.053706
2242.000000	1.053734
2241.000000	1.053754
2240.000000	1.053770
2239.000000	1.053786
2238.000000	1.053800
2237.000000	1.053805
2236.000000	1.053802
2235.000000	1.053798
2234.000000	1.053803
2233.000000	1.053814
2232.000000	1.053819
2231.000000	1.053813
2230.000000	1.053805
2229.000000	1.053809
2228.000000	1.053828
2227.000000	1.053846
2226.000000	1.053849
2225.000000	1.053833
2224.000000	1.053812
2223.000000	1.053799
2222.000000	1.053806
2221.000000	1.053827
2220.000000	1.053847
2219.000000	1.053857
2218.000000	1.053856
2217.000000	1.053856
2216.000000	1.053863
2215.000000	1.053877
2214.000000	1.053888
2213.000000	1.053891
2212.000000	1.053887
2211.000000	1.053880
2210.000000	1.053874
2209.000000	1.053866
2208.000000	1.053852
2207.000000	1.053830
2206.000000	1.053803
2205.000000	1.053776
2204.000000	1.053753
2203.000000	1.053734
2202.000000	1.053720
2201.000000	1.053707
2200.000000	1.053693
2199.000000	1.053675
2198.000000	1.053657
2197.000000	1.053645
2196.000000	1.053637
2195.000000	1.053629
2194.000000	1.053617
2193.000000	1.053600
2192.000000	1.053579
2191.000000	1.053557
2190.000000	1.053540
2189.000000	1.053531
2188.000000	1.053526
2187.000000	1.053514
2186.000000	1.053491
2185.000000	1.053460
2184.000000	1.053427
2183.000000	1.053399
2182.000000	1.053381
2181.000000	1.053371
2180.000000	1.053364
2179.000000	1.053353
2178.000000	1.053337
2177.000000	1.053313
2176.000000	1.053278
2175.000000	1.053228
2174.000000	1.053169
2173.000000	1.053111
2172.000000	1.053061
2171.000000	1.053018
2170.000000	1.052978
2169.000000	1.052944
2168.000000	1.052913
2167.000000	1.052878
2166.000000	1.052834
2165.000000	1.052786
2164.000000	1.052740
2163.000000	1.052699
2162.000000	1.052661
2161.000000	1.052623
2160.000000	1.052581
2159.000000	1.052532
2158.000000	1.052476
2157.000000	1.052417
2156.000000	1.052361
2155.000000	1.052305
2154.000000	1.052249
2153.000000	1.052192
2152.000000	1.052130
2151.000000	1.052063
2150.000000	1.051989
2149.000000	1.051913
2148.000000	1.051839
2147.000000	1.051773
2146.000000	1.051717
2145.000000	1.051667
2144.000000	1.051614
2143.000000	1.051549
2142.000000	1.051474
2141.000000	1.051400
2140.000000	1.051329
2139.000000	1.051259
2138.000000	1.051182
2137.000000	1.051096
2136.000000	1.051006
2135.000000	1.050917
2134.000000	1.050835
2133.000000	1.050764
2132.000000	1.050699
2131.000000	1.050632
2130.000000	1.050551
2129.000000	1.050457
2128.000000	1.050356
2127.000000	1.050258
2126.000000	1.050163
2125.000000	1.050071
2124.000000	1.049974
2123.000000	1.049872
2122.000000	1.049770
2121.000000	1.049672
2120.000000	1.049579
2119.000000	1.049482
2118.000000	1.049379
2117.000000	1.049269
2116.000000	1.049153
2115.000000	1.049034
2114.000000	1.048921
2113.000000	1.048819
2112.000000	1.048719
2111.000000	1.048608
2110.000000	1.048481
2109.000000	1.048350
2108.000000	1.048224
2107.000000	1.048105
2106.000000	1.047984
2105.000000	1.047858
2104.000000	1.047732
2103.000000	1.047606
2102.000000	1.047480
2101.000000	1.047355
2100.000000	1.047234
2099.000000	1.047118
2098.000000	1.047000
2097.000000	1.046875
2096.000000	1.046743
2095.000000	1.046612
2094.000000	1.046483
2093.000000	1.046353
2092.000000	1.046218
2091.000000	1.046080
2090.000000	1.045944
2089.000000	1.045811
2088.000000	1.045674
2087.000000	1.045529
2086.000000	1.045381
2085.000000	1.045234
2084.000000	1.045093
2083.000000	1.044953
2082.000000	1.044816
2081.000000	1.044682
2080.000000	1.044550
2079.000000	1.044416
2078.000000	1.044279
2077.000000	1.044137
2076.000000	1.043989
2075.000000	1.043834
2074.000000	1.043674
2073.000000	1.043517
2072.000000	1.043366
2071.000000	1.043217
2070.000000	1.043069
2069.000000	1.042925
2068.000000	1.042785
2067.000000	1.042643
2066.000000	1.042497
2065.000000	1.042349
2064.000000	1.042202
2063.000000	1.042053
2062.000000	1.041902
2061.000000	1.041749
2060.000000	1.041599
2059.000000	1.041452
2058.000000	1.041306
2057.000000	1.041159
2056.000000	1.041008
2055.000000	1.040854
2054.000000	1.040708
2053.000000	1.040576
2052.000000	1.040452
2051.000000	1.040322
2050.000000	1.040184
2049.000000	1.040041
2048.000000	1.039897
2047.000000	1.039751
2046.000000	1.039601
2045.000000	1.039454
2044.000000	1.039314
2043.000000	1.039180
2042.000000	1.039050
2041.000000	1.038921
2040.000000	1.038790
2039.000000	1.038655
2038.000000	1.038516
2037.000000	1.038378
2036.000000	1.038242
2035.000000	1.038104
2034.000000	1.037968
2033.000000	1.037841
2032.000000	1.037729
2031.000000	1.037623
2030.000000	1.037507
2029.000000	1.037375
2028.000000	1.037232
2027.000000	1.037087
2026.000000	1.036949
2025.000000	1.036823
2024.000000	1.036706
2023.000000	1.036595
2022.000000	1.036484
2021.000000	1.036368
2020.000000	1.036244
2019.000000	1.036114
2018.000000	1.035987
2017.000000	1.035872
2016.000000	1.035769
2015.000000	1.035668
2014.000000	1.035561
2013.000000	1.035448
2012.000000	1.035334
2011.000000	1.035220
2010.000000	1.035103
2009.000000	1.034988
2008.000000	1.034885
2007.000000	1.034796
2006.000000	1.034716
2005.000000	1.034636
2004.000000	1.034549
2003.000000	1.034450
2002.000000	1.034342
2001.000000	1.034235
2000.000000	1.034141
1999.000000	1.034059
1998.000000	1.033983
1997.000000	1.033902
1996.000000	1.033815
1995.000000	1.033721
1994.000000	1.033620
1993.000000	1.033520
1992.000000	1.033431
1991.000000	1.033361
1990.000000	1.033300
1989.000000	1.033234
1988.000000	1.033159
1987.000000	1.033081
1986.000000	1.033011
1985.000000	1.032951
1984.000000	1.032896
1983.000000	1.032843
1982.000000	1.032788
1981.000000	1.032726
1980.000000	1.032655
1979.000000	1.032578
1978.000000	1.032501
1977.000000	1.032431
1976.000000	1.032369
1975.000000	1.032314
1974.000000	1.032266
1973.000000	1.032220
1972.000000	1.032173
1971.000000	1.032121
1970.000000	1.032062
1969.000000	1.031996
1968.000000	1.031931
1967.000000	1.031882
1966.000000	1.031848
1965.000000	1.031819
1964.000000	1.031784
1963.000000	1.031748
1962.000000	1.031718
1961.000000	1.031689
1960.000000	1.031649
1959.000000	1.031598
1958.000000	1.031548
1957.000000	1.031508
1956.000000	1.031480
1955.000000	1.031458
1954.000000	1.031444
1953.000000	1.031430
1952.000000	1.031407
1951.000000	1.031375
1950.000000	1.031343
1949.000000	1.031320
1948.000000	1.031296
1947.000000	1.031265
1946.000000	1.031227
1945.000000	1.031189
1944.000000	1.031160
1943.000000	1.031146
1942.000000	1.031151
1941.000000	1.031170
1940.000000	1.031182
1939.000000	1.031176
1938.000000	1.031161
1937.000000	1.031152
1936.000000	1.031151
1935.000000	1.031149
1934.000000	1.031138
1933.000000	1.031123
1932.000000	1.031109
1931.000000	1.031100
1930.000000	1.031099
1929.000000	1.031107
1928.000000	1.031118
1927.000000	1.031125
1926.000000	1.031120
1925.000000	1.031104
1924.000000	1.031082
1923.000000	1.031069
1922.000000	1.031073
1921.000000	1.031081
1920.000000	1.031069
1919.000000	1.031041
1918.000000	1.031034
1917.000000	1.031075
1916.000000	1.031146
1915.000000	1.031210
1914.000000	1.031246
1913.000000	1.031263
1912.000000	1.031270
1911.000000	1.031270
1910.000000	1.031272
1909.000000	1.031290
1908.000000	1.031327
1907.000000	1.031373
1906.000000	1.031419
1905.000000	1.031464
1904.000000	1.031503
1903.000000	1.031533
1902.000000	1.031554
1901.000000	1.031570
1900.000000	1.031586
1899.000000	1.031603
1898.000000	1.031626
1897.000000	1.031657
1896.000000	1.031689
1895.000000	1.031718
1894.000000	1.031749
1893.000000	1.031783
1892.000000	1.031803
1891.000000	1.031800
1890.000000	1.031794
1889.000000	1.031817
1888.000000	1.031876
1887.000000	1.031948
1886.000000	1.032009
1885.000000	1.032057
1884.000000	1.032098
1883.000000	1.032134
1882.000000	1.032169
1881.000000	1.032210
1880.000000	1.032254
1879.000000	1.032292
1878.000000	1.032324
1877.000000	1.032363
1876.000000	1.032419
1875.000000	1.032488
1874.000000	1.032557
1873.000000	1.032607
1872.000000	1.032617
1871.000000	1.032582
1870.000000	1.032533
1869.000000	1.032523
1868.000000	1.032586
1867.000000	1.032706
1866.000000	1.032844
1865.000000	1.032970
1864.000000	1.033070
1863.000000	1.033147
1862.000000	1.033213
1861.000000	1.033282
1860.000000	1.033349
1859.000000	1.033407
1858.000000	1.033459
1857.000000	1.033519
1856.000000	1.033589
1855.000000	1.033658
1854.000000	1.033720
1853.000000	1.033785
1852.000000	1.033856
1851.000000	1.033923
1850.000000	1.033988
1849.000000	1.034062
1848.000000	1.034129
1847.000000	1.034146
1846.000000	1.034100
1845.000000	1.034048
1844.000000	1.034084
1843.000000	1.034243
1842.000000	1.034472
1841.000000	1.034680
1840.000000	1.034823
1839.000000	1.034913
1838.000000	1.034990
1837.000000	1.035078
1836.000000	1.035174
1835.000000	1.035273
1834.000000	1.035362
1833.000000	1.035421
1832.000000	1.035434
1831.000000	1.035428
1830.000000	1.035474
1829.000000	1.035612
1828.000000	1.035799
1827.000000	1.035959
1826.000000	1.036071
1825.000000	1.036186
1824.000000	1.036346
1823.000000	1.036530
1822.000000	1.036692
1821.000000	1.036821
1820.000000	1.036936
1819.000000	1.037050
1818.000000	1.037163
1817.000000	1.037280
1816.000000	1.037403
1815.000000	1.037524
1814.000000	1.037630
1813.000000	1.037723
1812.000000	1.037821
1811.000000	1.037936
1810.000000	1.038071
1809.000000	1.038220
1808.000000	1.038369
1807.000000	1.038502
1806.000000	1.038618
1805.000000	1.038723
1804.000000	1.038818
1803.000000	1.038898
1802.000000	1.038978
1801.000000	1.039086
1800.000000	1.039237
1799.000000	1.039409
1798.000000	1.039581
1797.000000	1.039744
1796.000000	1.039876
1795.000000	1.039942
1794.000000	1.039947
1793.000000	1.039964
1792.000000	1.040080
1791.000000	1.040312
1790.000000	1.040599
1789.000000	1.040862
1788.000000	1.041060
1787.000000	1.041197
1786.000000	1.041312
1785.000000	1.041452
1784.000000	1.041633
1783.000000	1.041823
1782.000000	1.041991
1781.000000	1.042147
1780.000000	1.042320
1779.000000	1.042514
1778.000000	1.042709
1777.000000	1.042876
1776.000000	1.042984
1775.000000	1.042996
1774.000000	1.042932
1773.000000	1.042904
1772.000000	1.043035
1771.000000	1.043330
1770.000000	1.043665
1769.000000	1.043938
1768.000000	1.044164
1767.000000	1.044413
1766.000000	1.044693
1765.000000	1.044930
1764.000000	1.045071
1763.000000	1.045151
1762.000000	1.045253
1761.000000	1.045427
1760.000000	1.045642
1759.000000	1.045831
1758.000000	1.045974
1757.000000	1.046118
1756.000000	1.046313
1755.000000	1.046527
1754.000000	1.046669
1753.000000	1.046696
1752.000000	1.046685
1751.000000	1.046759
1750.000000	1.046967
1749.000000	1.047254
1748.000000	1.047539
1747.000000	1.047780
1746.000000	1.047973
1745.000000	1.048125
1744.000000	1.048250
1743.000000	1.048357
1742.000000	1.048441
1741.000000	1.048505
1740.000000	1.048597
1739.000000	1.048765
1738.000000	1.048957
1737.000000	1.049017
1736.000000	1.048853
1735.000000	1.048601
1734.000000	1.048542
1733.000000	1.048822
1732.000000	1.049308
1731.000000	1.049752
1730.000000	1.050039
1729.000000	1.050213
1728.000000	1.050348
1727.000000	1.050461
1726.000000	1.050544
1725.000000	1.050609
1724.000000	1.050675
1723.000000	1.050743
1722.000000	1.050781
1721.000000	1.050729
1720.000000	1.050536
1719.000000	1.050242
1718.000000	1.050015
1717.000000	1.050023
1716.000000	1.050268
1715.000000	1.050596
1714.000000	1.050874
1713.000000	1.051082
1712.000000	1.051242
1711.000000	1.051342
1710.000000	1.051373
1709.000000	1.051365
1708.000000	1.051336
1707.000000	1.051279
1706.000000	1.051233
1705.000000	1.051258
1704.000000	1.051302
1703.000000	1.051179
1702.000000	1.050817
1701.000000	1.050438
1700.000000	1.050340
1699.000000	1.050521
1698.000000	1.050689
1697.000000	1.050671
1696.000000	1.050631
1695.000000	1.050829
1694.000000	1.051260
1693.000000	1.051675
1692.000000	1.051879
1691.000000	1.051900
1690.000000	1.051880
1689.000000	1.051876
1688.000000	1.051796
1687.000000	1.051513
1686.000000	1.051058
1685.000000	1.050681
1684.000000	1.050657
1683.000000	1.051013
1682.000000	1.051498
1681.000000	1.051856
1680.000000	1.052028
1679.000000	1.052083
1678.000000	1.052046
1677.000000	1.051905
1676.000000	1.051734
1675.000000	1.051679
1674.000000	1.051784
1673.000000	1.051920
1672.000000	1.051939
1671.000000	1.051841
1670.000000	1.051756
1669.000000	1.051793
1668.000000	1.051951
1667.000000	1.052140
1666.000000	1.052257
1665.000000	1.052248
1664.000000	1.052154
1663.000000	1.052081
1662.000000	1.052114
1661.000000	1.052239
1660.000000	1.052375
1659.000000	1.052462
1658.000000	1.052479
1657.000000	1.052362
1656.000000	1.051990
1655.000000	1.051350
1654.000000	1.050696
1653.000000	1.050444
1652.000000	1.050787
1651.000000	1.051473
1650.000000	1.052029
1649.000000	1.052183
1648.000000	1.052029
1647.000000	1.051852
1646.000000	1.051859
1645.000000	1.052066
1644.000000	1.052354
1643.000000	1.052590
1642.000000	1.052708
1641.000000	1.052726
1640.000000	1.052681
1639.000000	1.052555
1638.000000	1.052302
1637.000000	1.051976
1636.000000	1.051760
1635.000000	1.051814
1634.000000	1.052109
1633.000000	1.052455
1632.000000	1.052681
1631.000000	1.052745
1630.000000	1.052704
1629.000000	1.052633
1628.000000	1.052584
1627.000000	1.052566
1626.000000	1.052540
1625.000000	1.052469
1624.000000	1.052377
1623.000000	1.052344
1622.000000	1.052413
1621.000000	1.052516
1620.000000	1.052511
1619.000000	1.052322
1618.000000	1.052037
1617.000000	1.051863
1616.000000	1.051952
1615.000000	1.052261
1614.000000	1.052595
1613.000000	1.052794
1612.000000	1.052845
1611.000000	1.052832
1610.000000	1.052819
1609.000000	1.052811
1608.000000	1.052803
1607.000000	1.052804
1606.000000	1.052816
1605.000000	1.052824
1604.000000	1.052825
1603.000000	1.052833
1602.000000	1.052856
1601.000000	1.052883
1600.000000	1.052904
1599.000000	1.052916
1598.000000	1.052922
1597.000000	1.052917
1596.000000	1.052908
1595.000000	1.052905
1594.000000	1.052909
1593.000000	1.052911
1592.000000	1.052906
1591.000000	1.052902
1590.000000	1.052911
1589.000000	1.052934
1588.000000	1.052963
1587.000000	1.052992
1586.000000	1.053013
1585.000000	1.053018
1584.000000	1.053006
1583.000000	1.052982
1582.000000	1.052961
1581.000000	1.052946
1580.000000	1.052893
1579.000000	1.052722
1578.000000	1.052412
1577.000000	1.052094
1576.000000	1.051995
1575.000000	1.052209
1574.000000	1.052572
1573.000000	1.052807
1572.000000	1.052795
1571.000000	1.052646
1570.000000	1.052549
1569.000000	1.052591
1568.000000	1.052720
1567.000000	1.052843
1566.000000	1.052909
1565.000000	1.052923
1564.000000	1.052892
1563.000000	1.052754
1562.000000	1.052392
1561.000000	1.051794
1560.000000	1.051191
1559.000000	1.050934
1558.000000	1.051158
1557.000000	1.051648
1556.000000	1.052076
1555.000000	1.052320
1554.000000	1.052468
1553.000000	1.052608
1552.000000	1.052720
1551.000000	1.052763
1550.000000	1.052770
1549.000000	1.052789
1548.000000	1.052806
1547.000000	1.052770
1546.000000	1.052664
1545.000000	1.052516
1544.000000	1.052336
1543.000000	1.052094
1542.000000	1.051768
1541.000000	1.051440
1540.000000	1.051291
1539.000000	1.051475
1538.000000	1.051945
1537.000000	1.052439
1536.000000	1.052700
1535.000000	1.052692
1534.000000	1.052595
1533.000000	1.052590
1532.000000	1.052694
1531.000000	1.052813
1530.000000	1.052870
1529.000000	1.052847
1528.000000	1.052758
1527.000000	1.052647
1526.000000	1.052570
1525.000000	1.052523
1524.000000	1.052419
1523.000000	1.052202
1522.000000	1.051971
1521.000000	1.051906
1520.000000	1.052060
1519.000000	1.052293
1518.000000	1.052452
1517.000000	1.052529
1516.000000	1.052603
1515.000000	1.052693
1514.000000	1.052743
1513.000000	1.052733
1512.000000	1.052708
1511.000000	1.052679
1510.000000	1.052558
1509.000000	1.052252
1508.000000	1.051827
1507.000000	1.051520
1506.000000	1.051560
1505.000000	1.051960
1504.000000	1.052497
1503.000000	1.052910
1502.000000	1.053093
1501.000000	1.053103
1500.000000	1.053028
