PE IR       SUBTECH     SPECTRUM    ASCII       PEDS        4.00        
   -1
TE108B1_018.ASC
20/02/21
15:24:07.00
20/02/21
15:24:07.00
Administrator
Sample 018 By Administrator Date Friday, February 21 2020
1500.000000
#HDR
-1
-1
#GR
cm-1
A
1.0
0.0
4000.000000
-1.000000
2501
8
1.074139
0.988196
#DATA
4000.000000	1.003367
3999.000000	1.003372
3998.000000	1.003364
3997.000000	1.003347
3996.000000	1.003323
3995.000000	1.003296
3994.000000	1.003270
3993.000000	1.003251
3992.000000	1.003241
3991.000000	1.003239
3990.000000	1.003237
3989.000000	1.003226
3988.000000	1.003196
3987.000000	1.003145
3986.000000	1.003081
3985.000000	1.003018
3984.000000	1.002965
3983.000000	1.002930
3982.000000	1.002911
3981.000000	1.002905
3980.000000	1.002908
3979.000000	1.002913
3978.000000	1.002909
3977.000000	1.002888
3976.000000	1.002849
3975.000000	1.002792
3974.000000	1.002721
3973.000000	1.002642
3972.000000	1.002566
3971.000000	1.002507
3970.000000	1.002472
3969.000000	1.002451
3968.000000	1.002425
3967.000000	1.002374
3966.000000	1.002292
3965.000000	1.002179
3964.000000	1.002047
3963.000000	1.001914
3962.000000	1.001801
3961.000000	1.001715
3960.000000	1.001648
3959.000000	1.001579
3958.000000	1.001498
3957.000000	1.001409
3956.000000	1.001329
3955.000000	1.001255
3954.000000	1.001170
3953.000000	1.001057
3952.000000	1.000919
3951.000000	1.000782
3950.000000	1.000664
3949.000000	1.000566
3948.000000	1.000473
3947.000000	1.000375
3946.000000	1.000267
3945.000000	1.000145
3944.000000	1.000007
3943.000000	0.999858
3942.000000	0.999719
3941.000000	0.999611
3940.000000	0.999537
3939.000000	0.999484
3938.000000	0.999426
3937.000000	0.999343
3936.000000	0.999229
3935.000000	0.999087
3934.000000	0.998926
3933.000000	0.998761
3932.000000	0.998610
3931.000000	0.998483
3930.000000	0.998377
3929.000000	0.998275
3928.000000	0.998157
3927.000000	0.998012
3926.000000	0.997846
3925.000000	0.997679
3924.000000	0.997530
3923.000000	0.997403
3922.000000	0.997287
3921.000000	0.997164
3920.000000	0.997025
3919.000000	0.996871
3918.000000	0.996715
3917.000000	0.996572
3916.000000	0.996455
3915.000000	0.996362
3914.000000	0.996282
3913.000000	0.996195
3912.000000	0.996088
3911.000000	0.995963
3910.000000	0.995833
3909.000000	0.995702
3908.000000	0.995562
3907.000000	0.995389
3906.000000	0.995170
3905.000000	0.994915
3904.000000	0.994660
3903.000000	0.994438
3902.000000	0.994264
3901.000000	0.994136
3900.000000	0.994053
3899.000000	0.994017
3898.000000	0.994022
3897.000000	0.994042
3896.000000	0.994031
3895.000000	0.993950
3894.000000	0.993786
3893.000000	0.993569
3892.000000	0.993365
3891.000000	0.993233
3890.000000	0.993179
3889.000000	0.993145
3888.000000	0.993052
3887.000000	0.992872
3886.000000	0.992659
3885.000000	0.992499
3884.000000	0.992426
3883.000000	0.992398
3882.000000	0.992342
3881.000000	0.992236
3880.000000	0.992126
3879.000000	0.992064
3878.000000	0.992046
3877.000000	0.992019
3876.000000	0.991942
3875.000000	0.991820
3874.000000	0.991672
3873.000000	0.991495
3872.000000	0.991279
3871.000000	0.991052
3870.000000	0.990885
3869.000000	0.990832
3868.000000	0.990871
3867.000000	0.990915
3866.000000	0.990888
3865.000000	0.990786
3864.000000	0.990667
3863.000000	0.990581
3862.000000	0.990536
3861.000000	0.990514
3860.000000	0.990507
3859.000000	0.990494
3858.000000	0.990404
3857.000000	0.990130
3856.000000	0.989628
3855.000000	0.989010
3854.000000	0.988515
3853.000000	0.988359
3852.000000	0.988581
3851.000000	0.989022
3850.000000	0.989452
3849.000000	0.989727
3848.000000	0.989831
3847.000000	0.989819
3846.000000	0.989746
3845.000000	0.989637
3844.000000	0.989518
3843.000000	0.989414
3842.000000	0.989323
3841.000000	0.989194
3840.000000	0.988982
3839.000000	0.988713
3838.000000	0.988499
3837.000000	0.988448
3836.000000	0.988572
3835.000000	0.988772
3834.000000	0.988921
3833.000000	0.988964
3832.000000	0.988939
3831.000000	0.988919
3830.000000	0.988935
3829.000000	0.988960
3828.000000	0.988962
3827.000000	0.988946
3826.000000	0.988930
3825.000000	0.988900
3824.000000	0.988810
3823.000000	0.988638
3822.000000	0.988441
3821.000000	0.988325
3820.000000	0.988332
3819.000000	0.988389
3818.000000	0.988379
3817.000000	0.988278
3816.000000	0.988196
3815.000000	0.988278
3814.000000	0.988550
3813.000000	0.988892
3812.000000	0.989139
3811.000000	0.989204
3810.000000	0.989098
3809.000000	0.988896
3808.000000	0.988696
3807.000000	0.988597
3806.000000	0.988634
3805.000000	0.988736
3804.000000	0.988762
3803.000000	0.988633
3802.000000	0.988424
3801.000000	0.988309
3800.000000	0.988399
3799.000000	0.988651
3798.000000	0.988930
3797.000000	0.989138
3796.000000	0.989280
3795.000000	0.989407
3794.000000	0.989542
3793.000000	0.989664
3792.000000	0.989743
3791.000000	0.989777
3790.000000	0.989788
3789.000000	0.989800
3788.000000	0.989826
3787.000000	0.989871
3786.000000	0.989936
3785.000000	0.990012
3784.000000	0.990085
3783.000000	0.990136
3782.000000	0.990152
3781.000000	0.990141
3780.000000	0.990138
3779.000000	0.990183
3778.000000	0.990290
3777.000000	0.990432
3776.000000	0.990564
3775.000000	0.990663
3774.000000	0.990726
3773.000000	0.990752
3772.000000	0.990736
3771.000000	0.990693
3770.000000	0.990664
3769.000000	0.990688
3768.000000	0.990762
3767.000000	0.990855
3766.000000	0.990947
3765.000000	0.991050
3764.000000	0.991177
3763.000000	0.991308
3762.000000	0.991401
3761.000000	0.991438
3760.000000	0.991444
3759.000000	0.991478
3758.000000	0.991573
3757.000000	0.991702
3756.000000	0.991786
3755.000000	0.991745
3754.000000	0.991558
3753.000000	0.991289
3752.000000	0.991060
3751.000000	0.990995
3750.000000	0.991148
3749.000000	0.991447
3748.000000	0.991717
3747.000000	0.991781
3746.000000	0.991611
3745.000000	0.991388
3744.000000	0.991381
3743.000000	0.991715
3742.000000	0.992267
3741.000000	0.992776
3740.000000	0.993055
3739.000000	0.993095
3738.000000	0.993011
3737.000000	0.992925
3736.000000	0.992902
3735.000000	0.992955
3734.000000	0.993075
3733.000000	0.993255
3732.000000	0.993493
3731.000000	0.993782
3730.000000	0.994082
3729.000000	0.994335
3728.000000	0.994506
3727.000000	0.994617
3726.000000	0.994727
3725.000000	0.994884
3724.000000	0.995091
3723.000000	0.995328
3722.000000	0.995575
3721.000000	0.995823
3720.000000	0.996066
3719.000000	0.996309
3718.000000	0.996562
3717.000000	0.996822
3716.000000	0.997054
3715.000000	0.997205
3714.000000	0.997260
3713.000000	0.997282
3712.000000	0.997380
3711.000000	0.997639
3710.000000	0.998061
3709.000000	0.998575
3708.000000	0.999097
3707.000000	0.999573
3706.000000	0.999988
3705.000000	1.000348
3704.000000	1.000673
3703.000000	1.001008
3702.000000	1.001402
3701.000000	1.001880
3700.000000	1.002417
3699.000000	1.002963
3698.000000	1.003489
3697.000000	1.003999
3696.000000	1.004510
3695.000000	1.005016
3694.000000	1.005490
3693.000000	1.005904
3692.000000	1.006249
3691.000000	1.006541
3690.000000	1.006842
3689.000000	1.007252
3688.000000	1.007860
3687.000000	1.008666
3686.000000	1.009570
3685.000000	1.010445
3684.000000	1.011228
3683.000000	1.011945
3682.000000	1.012655
3681.000000	1.013378
3680.000000	1.014074
3679.000000	1.014675
3678.000000	1.015153
3677.000000	1.015575
3676.000000	1.016092
3675.000000	1.016824
3674.000000	1.017743
3673.000000	1.018681
3672.000000	1.019491
3671.000000	1.020185
3670.000000	1.020910
3669.000000	1.021792
3668.000000	1.022820
3667.000000	1.023879
3666.000000	1.024859
3665.000000	1.025726
3664.000000	1.026510
3663.000000	1.027262
3662.000000	1.028020
3661.000000	1.028790
3660.000000	1.029533
3659.000000	1.030198
3658.000000	1.030774
3657.000000	1.031324
3656.000000	1.031944
3655.000000	1.032674
3654.000000	1.033447
3653.000000	1.034131
3652.000000	1.034648
3651.000000	1.035041
3650.000000	1.035445
3649.000000	1.035977
3648.000000	1.036665
3647.000000	1.037456
3646.000000	1.038267
3645.000000	1.039030
3644.000000	1.039710
3643.000000	1.040306
3642.000000	1.040835
3641.000000	1.041318
3640.000000	1.041765
3639.000000	1.042186
3638.000000	1.042592
3637.000000	1.042990
3636.000000	1.043385
3635.000000	1.043775
3634.000000	1.044152
3633.000000	1.044481
3632.000000	1.044712
3631.000000	1.044833
3630.000000	1.044919
3629.000000	1.045106
3628.000000	1.045481
3627.000000	1.046008
3626.000000	1.046557
3625.000000	1.047013
3624.000000	1.047341
3623.000000	1.047567
3622.000000	1.047729
3621.000000	1.047864
3620.000000	1.048028
3619.000000	1.048268
3618.000000	1.048589
3617.000000	1.048927
3616.000000	1.049201
3615.000000	1.049374
3614.000000	1.049474
3613.000000	1.049561
3612.000000	1.049669
3611.000000	1.049803
3610.000000	1.049955
3609.000000	1.050129
3608.000000	1.050332
3607.000000	1.050545
3606.000000	1.050734
3605.000000	1.050881
3604.000000	1.051005
3603.000000	1.051139
3602.000000	1.051288
3601.000000	1.051430
3600.000000	1.051539
3599.000000	1.051611
3598.000000	1.051656
3597.000000	1.051684
3596.000000	1.051708
3595.000000	1.051755
3594.000000	1.051846
3593.000000	1.051969
3592.000000	1.052074
3591.000000	1.052114
3590.000000	1.052086
3589.000000	1.052042
3588.000000	1.052044
3587.000000	1.052123
3586.000000	1.052260
3585.000000	1.052411
3584.000000	1.052537
3583.000000	1.052622
3582.000000	1.052667
3581.000000	1.052686
3580.000000	1.052696
3579.000000	1.052714
3578.000000	1.052746
3577.000000	1.052787
3576.000000	1.052835
3575.000000	1.052888
3574.000000	1.052946
3573.000000	1.053000
3572.000000	1.053028
3571.000000	1.053006
3570.000000	1.052928
3569.000000	1.052819
3568.000000	1.052726
3567.000000	1.052699
3566.000000	1.052751
3565.000000	1.052850
3564.000000	1.052944
3563.000000	1.053000
3562.000000	1.053024
3561.000000	1.053044
3560.000000	1.053082
3559.000000	1.053128
3558.000000	1.053162
3557.000000	1.053174
3556.000000	1.053178
3555.000000	1.053195
3554.000000	1.053231
3553.000000	1.053269
3552.000000	1.053294
3551.000000	1.053305
3550.000000	1.053311
3549.000000	1.053320
3548.000000	1.053332
3547.000000	1.053351
3546.000000	1.053386
3545.000000	1.053444
3544.000000	1.053525
3543.000000	1.053621
3542.000000	1.053717
3541.000000	1.053797
3540.000000	1.053846
3539.000000	1.053859
3538.000000	1.053842
3537.000000	1.053817
3536.000000	1.053814
3535.000000	1.053856
3534.000000	1.053939
3533.000000	1.054030
3532.000000	1.054096
3531.000000	1.054122
3530.000000	1.054114
3529.000000	1.054095
3528.000000	1.054090
3527.000000	1.054113
3526.000000	1.054163
3525.000000	1.054225
3524.000000	1.054287
3523.000000	1.054356
3522.000000	1.054447
3521.000000	1.054557
3520.000000	1.054664
3519.000000	1.054748
3518.000000	1.054811
3517.000000	1.054865
3516.000000	1.054922
3515.000000	1.054981
3514.000000	1.055047
3513.000000	1.055124
3512.000000	1.055209
3511.000000	1.055288
3510.000000	1.055348
3509.000000	1.055395
3508.000000	1.055447
3507.000000	1.055515
3506.000000	1.055591
3505.000000	1.055667
3504.000000	1.055739
3503.000000	1.055815
3502.000000	1.055902
3501.000000	1.056002
3500.000000	1.056117
3499.000000	1.056243
3498.000000	1.056363
3497.000000	1.056457
3496.000000	1.056519
3495.000000	1.056562
3494.000000	1.056611
3493.000000	1.056687
3492.000000	1.056793
3491.000000	1.056920
3490.000000	1.057050
3489.000000	1.057172
3488.000000	1.057288
3487.000000	1.057401
3486.000000	1.057506
3485.000000	1.057597
3484.000000	1.057675
3483.000000	1.057751
3482.000000	1.057837
3481.000000	1.057942
3480.000000	1.058074
3479.000000	1.058239
3478.000000	1.058424
3477.000000	1.058598
3476.000000	1.058728
3475.000000	1.058806
3474.000000	1.058846
3473.000000	1.058878
3472.000000	1.058932
3471.000000	1.059034
3470.000000	1.059182
3469.000000	1.059345
3468.000000	1.059490
3467.000000	1.059607
3466.000000	1.059716
3465.000000	1.059837
3464.000000	1.059975
3463.000000	1.060127
3462.000000	1.060292
3461.000000	1.060469
3460.000000	1.060644
3459.000000	1.060802
3458.000000	1.060937
3457.000000	1.061064
3456.000000	1.061202
3455.000000	1.061360
3454.000000	1.061530
3453.000000	1.061691
3452.000000	1.061823
3451.000000	1.061923
3450.000000	1.062011
3449.000000	1.062115
3448.000000	1.062248
3447.000000	1.062403
3446.000000	1.062560
3445.000000	1.062709
3444.000000	1.062848
3443.000000	1.062986
3442.000000	1.063131
3441.000000	1.063285
3440.000000	1.063441
3439.000000	1.063590
3438.000000	1.063724
3437.000000	1.063842
3436.000000	1.063951
3435.000000	1.064065
3434.000000	1.064190
3433.000000	1.064331
3432.000000	1.064490
3431.000000	1.064659
3430.000000	1.064821
3429.000000	1.064959
3428.000000	1.065075
3427.000000	1.065188
3426.000000	1.065320
3425.000000	1.065467
3424.000000	1.065613
3423.000000	1.065749
3422.000000	1.065878
3421.000000	1.066008
3420.000000	1.066140
3419.000000	1.066272
3418.000000	1.066401
3417.000000	1.066527
3416.000000	1.066643
3415.000000	1.066744
3414.000000	1.066832
3413.000000	1.066916
3412.000000	1.067003
3411.000000	1.067097
3410.000000	1.067200
3409.000000	1.067313
3408.000000	1.067431
3407.000000	1.067541
3406.000000	1.067628
3405.000000	1.067685
3404.000000	1.067724
3403.000000	1.067765
3402.000000	1.067819
3401.000000	1.067890
3400.000000	1.067969
3399.000000	1.068047
3398.000000	1.068116
3397.000000	1.068173
3396.000000	1.068225
3395.000000	1.068282
3394.000000	1.068350
3393.000000	1.068431
3392.000000	1.068522
3391.000000	1.068620
3390.000000	1.068719
3389.000000	1.068805
3388.000000	1.068869
3387.000000	1.068909
3386.000000	1.068935
3385.000000	1.068955
3384.000000	1.068979
3383.000000	1.069016
3382.000000	1.069070
3381.000000	1.069132
3380.000000	1.069182
3379.000000	1.069211
3378.000000	1.069233
3377.000000	1.069264
3376.000000	1.069312
3375.000000	1.069370
3374.000000	1.069426
3373.000000	1.069472
3372.000000	1.069504
3371.000000	1.069527
3370.000000	1.069551
3369.000000	1.069585
3368.000000	1.069635
3367.000000	1.069692
3366.000000	1.069741
3365.000000	1.069764
3364.000000	1.069757
3363.000000	1.069730
3362.000000	1.069707
3361.000000	1.069703
3360.000000	1.069720
3359.000000	1.069747
3358.000000	1.069775
3357.000000	1.069804
3356.000000	1.069841
3355.000000	1.069891
3354.000000	1.069942
3353.000000	1.069982
3352.000000	1.070008
3351.000000	1.070035
3350.000000	1.070073
3349.000000	1.070119
3348.000000	1.070160
3347.000000	1.070187
3346.000000	1.070199
3345.000000	1.070199
3344.000000	1.070194
3343.000000	1.070198
3342.000000	1.070217
3341.000000	1.070245
3340.000000	1.070269
3339.000000	1.070283
3338.000000	1.070294
3337.000000	1.070310
3336.000000	1.070336
3335.000000	1.070371
3334.000000	1.070409
3333.000000	1.070441
3332.000000	1.070461
3331.000000	1.070474
3330.000000	1.070483
3329.000000	1.070487
3328.000000	1.070484
3327.000000	1.070484
3326.000000	1.070507
3325.000000	1.070561
3324.000000	1.070627
3323.000000	1.070679
3322.000000	1.070709
3321.000000	1.070736
3320.000000	1.070777
3319.000000	1.070833
3318.000000	1.070892
3317.000000	1.070940
3316.000000	1.070969
3315.000000	1.070978
3314.000000	1.070977
3313.000000	1.070990
3312.000000	1.071032
3311.000000	1.071098
3310.000000	1.071159
3309.000000	1.071192
3308.000000	1.071200
3307.000000	1.071206
3306.000000	1.071235
3305.000000	1.071296
3304.000000	1.071380
3303.000000	1.071466
3302.000000	1.071532
3301.000000	1.071572
3300.000000	1.071596
3299.000000	1.071621
3298.000000	1.071650
3297.000000	1.071674
3296.000000	1.071695
3295.000000	1.071732
3294.000000	1.071795
3293.000000	1.071872
3292.000000	1.071940
3291.000000	1.071985
3290.000000	1.072009
3289.000000	1.072023
3288.000000	1.072038
3287.000000	1.072063
3286.000000	1.072102
3285.000000	1.072149
3284.000000	1.072192
3283.000000	1.072228
3282.000000	1.072261
3281.000000	1.072297
3280.000000	1.072332
3279.000000	1.072359
3278.000000	1.072378
3277.000000	1.072391
3276.000000	1.072400
3275.000000	1.072399
3274.000000	1.072391
3273.000000	1.072391
3272.000000	1.072422
3271.000000	1.072493
3270.000000	1.072586
3269.000000	1.072668
3268.000000	1.072716
3267.000000	1.072733
3266.000000	1.072743
3265.000000	1.072762
3264.000000	1.072792
3263.000000	1.072828
3262.000000	1.072865
3261.000000	1.072892
3260.000000	1.072906
3259.000000	1.072913
3258.000000	1.072930
3257.000000	1.072970
3256.000000	1.073024
3255.000000	1.073071
3254.000000	1.073093
3253.000000	1.073090
3252.000000	1.073084
3251.000000	1.073097
3250.000000	1.073135
3249.000000	1.073180
3248.000000	1.073212
3247.000000	1.073230
3246.000000	1.073251
3245.000000	1.073283
3244.000000	1.073315
3243.000000	1.073338
3242.000000	1.073356
3241.000000	1.073385
3240.000000	1.073431
3239.000000	1.073482
3238.000000	1.073529
3237.000000	1.073569
3236.000000	1.073604
3235.000000	1.073634
3234.000000	1.073658
3233.000000	1.073677
3232.000000	1.073699
3231.000000	1.073726
3230.000000	1.073761
3229.000000	1.073801
3228.000000	1.073845
3227.000000	1.073888
3226.000000	1.073923
3225.000000	1.073945
3224.000000	1.073955
3223.000000	1.073959
3222.000000	1.073969
3221.000000	1.073991
3220.000000	1.074029
3219.000000	1.074075
3218.000000	1.074109
3217.000000	1.074114
3216.000000	1.074083
3215.000000	1.074035
3214.000000	1.073999
3213.000000	1.073993
3212.000000	1.074017
3211.000000	1.074052
3210.000000	1.074079
3209.000000	1.074094
3208.000000	1.074106
3207.000000	1.074121
3206.000000	1.074135
3205.000000	1.074139
3204.000000	1.074124
3203.000000	1.074088
3202.000000	1.074033
3201.000000	1.073967
3200.000000	1.073911
3199.000000	1.073891
3198.000000	1.073918
3197.000000	1.073977
3196.000000	1.074034
3195.000000	1.074062
3194.000000	1.074056
3193.000000	1.074028
3192.000000	1.073996
3191.000000	1.073974
3190.000000	1.073968
3189.000000	1.073977
3188.000000	1.073996
3187.000000	1.074016
3186.000000	1.074027
3185.000000	1.074018
3184.000000	1.073993
3183.000000	1.073960
3182.000000	1.073926
3181.000000	1.073890
3180.000000	1.073860
3179.000000	1.073854
3178.000000	1.073884
3177.000000	1.073934
3176.000000	1.073974
3175.000000	1.073977
3174.000000	1.073948
3173.000000	1.073904
3172.000000	1.073865
3171.000000	1.073839
3170.000000	1.073826
3169.000000	1.073822
3168.000000	1.073827
3167.000000	1.073848
3166.000000	1.073887
3165.000000	1.073934
3164.000000	1.073975
3163.000000	1.074000
3162.000000	1.074002
3161.000000	1.073979
3160.000000	1.073939
3159.000000	1.073904
3158.000000	1.073896
3157.000000	1.073918
3156.000000	1.073941
3155.000000	1.073937
3154.000000	1.073906
3153.000000	1.073871
3152.000000	1.073857
3151.000000	1.073862
3150.000000	1.073870
3149.000000	1.073866
3148.000000	1.073851
3147.000000	1.073842
3146.000000	1.073848
3145.000000	1.073862
3144.000000	1.073865
3143.000000	1.073846
3142.000000	1.073814
3141.000000	1.073792
3140.000000	1.073799
3139.000000	1.073837
3138.000000	1.073885
3137.000000	1.073914
3136.000000	1.073906
3135.000000	1.073865
3134.000000	1.073813
3133.000000	1.073783
3132.000000	1.073787
3131.000000	1.073816
3130.000000	1.073846
3129.000000	1.073856
3128.000000	1.073845
3127.000000	1.073825
3126.000000	1.073805
3125.000000	1.073787
3124.000000	1.073777
3123.000000	1.073784
3122.000000	1.073808
3121.000000	1.073829
3120.000000	1.073821
3119.000000	1.073782
3118.000000	1.073734
3117.000000	1.073701
3116.000000	1.073683
3115.000000	1.073671
3114.000000	1.073659
3113.000000	1.073652
3112.000000	1.073657
3111.000000	1.073669
3110.000000	1.073674
3109.000000	1.073662
3108.000000	1.073631
3107.000000	1.073587
3106.000000	1.073541
3105.000000	1.073501
3104.000000	1.073470
3103.000000	1.073443
3102.000000	1.073409
3101.000000	1.073362
3100.000000	1.073301
3099.000000	1.073236
3098.000000	1.073174
3097.000000	1.073115
3096.000000	1.073060
3095.000000	1.073011
3094.000000	1.072973
3093.000000	1.072941
3092.000000	1.072909
3091.000000	1.072874
3090.000000	1.072841
3089.000000	1.072812
3088.000000	1.072781
3087.000000	1.072735
3086.000000	1.072661
3085.000000	1.072563
3084.000000	1.072460
3083.000000	1.072374
3082.000000	1.072307
3081.000000	1.072245
3080.000000	1.072175
3079.000000	1.072101
3078.000000	1.072032
3077.000000	1.071971
3076.000000	1.071907
3075.000000	1.071828
3074.000000	1.071733
3073.000000	1.071631
3072.000000	1.071540
3071.000000	1.071473
3070.000000	1.071425
3069.000000	1.071376
3068.000000	1.071311
3067.000000	1.071233
3066.000000	1.071160
3065.000000	1.071100
3064.000000	1.071050
3063.000000	1.071007
3062.000000	1.070966
3061.000000	1.070918
3060.000000	1.070853
3059.000000	1.070774
3058.000000	1.070694
3057.000000	1.070628
3056.000000	1.070581
3055.000000	1.070540
3054.000000	1.070487
3053.000000	1.070406
3052.000000	1.070301
3051.000000	1.070191
3050.000000	1.070094
3049.000000	1.070011
3048.000000	1.069928
3047.000000	1.069841
3046.000000	1.069758
3045.000000	1.069685
3044.000000	1.069622
3043.000000	1.069566
3042.000000	1.069512
3041.000000	1.069457
3040.000000	1.069402
3039.000000	1.069351
3038.000000	1.069310
3037.000000	1.069267
3036.000000	1.069205
3035.000000	1.069123
3034.000000	1.069046
3033.000000	1.068998
3032.000000	1.068975
3031.000000	1.068950
3030.000000	1.068898
3029.000000	1.068812
3028.000000	1.068704
3027.000000	1.068594
3026.000000	1.068501
3025.000000	1.068429
3024.000000	1.068371
3023.000000	1.068310
3022.000000	1.068233
3021.000000	1.068135
3020.000000	1.068027
3019.000000	1.067922
3018.000000	1.067830
3017.000000	1.067748
3016.000000	1.067663
3015.000000	1.067578
3014.000000	1.067500
3013.000000	1.067433
3012.000000	1.067364
3011.000000	1.067285
3010.000000	1.067204
3009.000000	1.067134
3008.000000	1.067071
3007.000000	1.066999
3006.000000	1.066903
3005.000000	1.066789
3004.000000	1.066676
3003.000000	1.066577
3002.000000	1.066493
3001.000000	1.066413
3000.000000	1.066320
2999.000000	1.066204
2998.000000	1.066069
2997.000000	1.065929
2996.000000	1.065798
2995.000000	1.065684
2994.000000	1.065579
2993.000000	1.065469
2992.000000	1.065346
2991.000000	1.065215
2990.000000	1.065095
2989.000000	1.064996
2988.000000	1.064913
2987.000000	1.064830
2986.000000	1.064727
2985.000000	1.064595
2984.000000	1.064444
2983.000000	1.064299
2982.000000	1.064183
2981.000000	1.064096
2980.000000	1.064013
2979.000000	1.063912
2978.000000	1.063789
2977.000000	1.063652
2976.000000	1.063512
2975.000000	1.063372
2974.000000	1.063236
2973.000000	1.063105
2972.000000	1.062980
2971.000000	1.062860
2970.000000	1.062742
2969.000000	1.062617
2968.000000	1.062476
2967.000000	1.062318
2966.000000	1.062160
2965.000000	1.062014
2964.000000	1.061877
2963.000000	1.061724
2962.000000	1.061546
2961.000000	1.061354
2960.000000	1.061168
2959.000000	1.060991
2958.000000	1.060811
2957.000000	1.060620
2956.000000	1.060423
2955.000000	1.060232
2954.000000	1.060047
2953.000000	1.059857
2952.000000	1.059654
2951.000000	1.059448
2950.000000	1.059261
2949.000000	1.059108
2948.000000	1.058976
2947.000000	1.058837
2946.000000	1.058665
2945.000000	1.058455
2944.000000	1.058227
2943.000000	1.058010
2942.000000	1.057821
2941.000000	1.057655
2940.000000	1.057497
2939.000000	1.057334
2938.000000	1.057167
2937.000000	1.056997
2936.000000	1.056821
2935.000000	1.056636
2934.000000	1.056445
2933.000000	1.056256
2932.000000	1.056068
2931.000000	1.055873
2930.000000	1.055667
2929.000000	1.055452
2928.000000	1.055231
2927.000000	1.054994
2926.000000	1.054736
2925.000000	1.054465
2924.000000	1.054208
2923.000000	1.053993
2922.000000	1.053817
2921.000000	1.053652
2920.000000	1.053471
2919.000000	1.053269
2918.000000	1.053053
2917.000000	1.052831
2916.000000	1.052598
2915.000000	1.052357
2914.000000	1.052129
2913.000000	1.051931
2912.000000	1.051759
2911.000000	1.051585
2910.000000	1.051384
2909.000000	1.051158
2908.000000	1.050927
2907.000000	1.050705
2906.000000	1.050489
2905.000000	1.050273
2904.000000	1.050058
2903.000000	1.049855
2902.000000	1.049658
2901.000000	1.049453
2900.000000	1.049235
2899.000000	1.049018
2898.000000	1.048820
2897.000000	1.048636
2896.000000	1.048442
2895.000000	1.048230
2894.000000	1.048010
2893.000000	1.047799
2892.000000	1.047597
2891.000000	1.047393
2890.000000	1.047187
2889.000000	1.046985
2888.000000	1.046791
2887.000000	1.046597
2886.000000	1.046394
2885.000000	1.046183
2884.000000	1.045975
2883.000000	1.045779
2882.000000	1.045587
2881.000000	1.045382
2880.000000	1.045158
2879.000000	1.044932
2878.000000	1.044730
2877.000000	1.044560
2876.000000	1.044408
2875.000000	1.044256
2874.000000	1.044095
2873.000000	1.043922
2872.000000	1.043735
2871.000000	1.043530
2870.000000	1.043313
2869.000000	1.043096
2868.000000	1.042885
2867.000000	1.042676
2866.000000	1.042464
2865.000000	1.042248
2864.000000	1.042034
2863.000000	1.041831
2862.000000	1.041644
2861.000000	1.041470
2860.000000	1.041301
2859.000000	1.041127
2858.000000	1.040948
2857.000000	1.040768
2856.000000	1.040596
2855.000000	1.040436
2854.000000	1.040286
2853.000000	1.040132
2852.000000	1.039959
2851.000000	1.039769
2850.000000	1.039579
2849.000000	1.039411
2848.000000	1.039267
2847.000000	1.039135
2846.000000	1.039001
2845.000000	1.038858
2844.000000	1.038714
2843.000000	1.038574
2842.000000	1.038437
2841.000000	1.038298
2840.000000	1.038156
2839.000000	1.038019
2838.000000	1.037890
2837.000000	1.037762
2836.000000	1.037625
2835.000000	1.037485
2834.000000	1.037350
2833.000000	1.037223
2832.000000	1.037094
2831.000000	1.036959
2830.000000	1.036821
2829.000000	1.036686
2828.000000	1.036556
2827.000000	1.036431
2826.000000	1.036311
2825.000000	1.036193
2824.000000	1.036077
2823.000000	1.035962
2822.000000	1.035847
2821.000000	1.035726
2820.000000	1.035593
2819.000000	1.035459
2818.000000	1.035341
2817.000000	1.035245
2816.000000	1.035154
2815.000000	1.035046
2814.000000	1.034917
2813.000000	1.034779
2812.000000	1.034646
2811.000000	1.034525
2810.000000	1.034412
2809.000000	1.034302
2808.000000	1.034190
2807.000000	1.034081
2806.000000	1.033988
2805.000000	1.033913
2804.000000	1.033844
2803.000000	1.033763
2802.000000	1.033667
2801.000000	1.033564
2800.000000	1.033461
2799.000000	1.033354
2798.000000	1.033246
2797.000000	1.033142
2796.000000	1.033051
2795.000000	1.032971
2794.000000	1.032891
2793.000000	1.032802
2792.000000	1.032701
2791.000000	1.032596
2790.000000	1.032503
2789.000000	1.032430
2788.000000	1.032373
2787.000000	1.032318
2786.000000	1.032254
2785.000000	1.032181
2784.000000	1.032100
2783.000000	1.032018
2782.000000	1.031945
2781.000000	1.031887
2780.000000	1.031847
2779.000000	1.031812
2778.000000	1.031765
2777.000000	1.031691
2776.000000	1.031592
2775.000000	1.031486
2774.000000	1.031397
2773.000000	1.031340
2772.000000	1.031307
2771.000000	1.031276
2770.000000	1.031232
2769.000000	1.031179
2768.000000	1.031125
2767.000000	1.031074
2766.000000	1.031022
2765.000000	1.030958
2764.000000	1.030876
2763.000000	1.030780
2762.000000	1.030684
2761.000000	1.030607
2760.000000	1.030557
2759.000000	1.030527
2758.000000	1.030502
2757.000000	1.030468
2756.000000	1.030423
2755.000000	1.030377
2754.000000	1.030340
2753.000000	1.030316
2752.000000	1.030301
2751.000000	1.030288
2750.000000	1.030271
2749.000000	1.030241
2748.000000	1.030197
2747.000000	1.030145
2746.000000	1.030096
2745.000000	1.030058
2744.000000	1.030032
2743.000000	1.030014
2742.000000	1.029996
2741.000000	1.029970
2740.000000	1.029930
2739.000000	1.029880
2738.000000	1.029829
2737.000000	1.029789
2736.000000	1.029768
2735.000000	1.029765
2734.000000	1.029771
2733.000000	1.029770
2732.000000	1.029749
2731.000000	1.029711
2730.000000	1.029666
2729.000000	1.029624
2728.000000	1.029587
2727.000000	1.029555
2726.000000	1.029530
2725.000000	1.029510
2724.000000	1.029492
2723.000000	1.029481
2722.000000	1.029487
2721.000000	1.029511
2720.000000	1.029534
2719.000000	1.029533
2718.000000	1.029496
2717.000000	1.029441
2716.000000	1.029399
2715.000000	1.029392
2714.000000	1.029417
2713.000000	1.029446
2712.000000	1.029455
2711.000000	1.029438
2710.000000	1.029412
2709.000000	1.029394
2708.000000	1.029391
2707.000000	1.029406
2706.000000	1.029437
2705.000000	1.029475
2704.000000	1.029506
2703.000000	1.029518
2702.000000	1.029515
2701.000000	1.029512
2700.000000	1.029519
2699.000000	1.029536
2698.000000	1.029556
2697.000000	1.029571
2696.000000	1.029584
2695.000000	1.029598
2694.000000	1.029610
2693.000000	1.029618
2692.000000	1.029621
2691.000000	1.029635
2690.000000	1.029671
2689.000000	1.029720
2688.000000	1.029765
2687.000000	1.029798
2686.000000	1.029828
2685.000000	1.029862
2684.000000	1.029898
2683.000000	1.029930
2682.000000	1.029967
2681.000000	1.030018
2680.000000	1.030082
2679.000000	1.030141
2678.000000	1.030181
2677.000000	1.030199
2676.000000	1.030203
2675.000000	1.030212
2674.000000	1.030241
2673.000000	1.030290
2672.000000	1.030341
2671.000000	1.030377
2670.000000	1.030400
2669.000000	1.030430
2668.000000	1.030480
2667.000000	1.030548
2666.000000	1.030619
2665.000000	1.030682
2664.000000	1.030733
2663.000000	1.030774
2662.000000	1.030816
2661.000000	1.030875
2660.000000	1.030955
2659.000000	1.031046
2658.000000	1.031130
2657.000000	1.031199
2656.000000	1.031256
2655.000000	1.031318
2654.000000	1.031396
2653.000000	1.031488
2652.000000	1.031581
2651.000000	1.031669
2650.000000	1.031755
2649.000000	1.031842
2648.000000	1.031921
2647.000000	1.031984
2646.000000	1.032035
2645.000000	1.032082
2644.000000	1.032136
2643.000000	1.032200
2642.000000	1.032280
2641.000000	1.032372
2640.000000	1.032465
2639.000000	1.032550
2638.000000	1.032632
2637.000000	1.032723
2636.000000	1.032819
2635.000000	1.032908
2634.000000	1.032982
2633.000000	1.033046
2632.000000	1.033108
2631.000000	1.033174
2630.000000	1.033249
2629.000000	1.033336
2628.000000	1.033437
2627.000000	1.033545
2626.000000	1.033656
2625.000000	1.033762
2624.000000	1.033855
2623.000000	1.033931
2622.000000	1.034005
2621.000000	1.034092
2620.000000	1.034194
2619.000000	1.034294
2618.000000	1.034382
2617.000000	1.034473
2616.000000	1.034582
2615.000000	1.034704
2614.000000	1.034824
2613.000000	1.034937
2612.000000	1.035046
2611.000000	1.035147
2610.000000	1.035237
2609.000000	1.035323
2608.000000	1.035421
2607.000000	1.035541
2606.000000	1.035674
2605.000000	1.035804
2604.000000	1.035921
2603.000000	1.036030
2602.000000	1.036138
2601.000000	1.036252
2600.000000	1.036370
2599.000000	1.036481
2598.000000	1.036575
2597.000000	1.036656
2596.000000	1.036746
2595.000000	1.036864
2594.000000	1.037009
2593.000000	1.037164
2592.000000	1.037309
2591.000000	1.037433
2590.000000	1.037536
2589.000000	1.037630
2588.000000	1.037727
2587.000000	1.037841
2586.000000	1.037970
2585.000000	1.038105
2584.000000	1.038235
2583.000000	1.038355
2582.000000	1.038468
2581.000000	1.038584
2580.000000	1.038710
2579.000000	1.038843
2578.000000	1.038973
2577.000000	1.039091
2576.000000	1.039205
2575.000000	1.039329
2574.000000	1.039473
2573.000000	1.039626
2572.000000	1.039775
2571.000000	1.039912
2570.000000	1.040044
2569.000000	1.040180
2568.000000	1.040317
2567.000000	1.040450
2566.000000	1.040575
2565.000000	1.040698
2564.000000	1.040830
2563.000000	1.040975
2562.000000	1.041129
2561.000000	1.041285
2560.000000	1.041438
2559.000000	1.041592
2558.000000	1.041751
2557.000000	1.041913
2556.000000	1.042073
2555.000000	1.042236
2554.000000	1.042406
2553.000000	1.042582
2552.000000	1.042753
2551.000000	1.042911
2550.000000	1.043065
2549.000000	1.043226
2548.000000	1.043392
2547.000000	1.043550
2546.000000	1.043699
2545.000000	1.043853
2544.000000	1.044018
2543.000000	1.044184
2542.000000	1.044330
2541.000000	1.044463
2540.000000	1.044610
2539.000000	1.044794
2538.000000	1.045004
2537.000000	1.045213
2536.000000	1.045400
2535.000000	1.045568
2534.000000	1.045730
2533.000000	1.045899
2532.000000	1.046083
2531.000000	1.046282
2530.000000	1.046485
2529.000000	1.046677
2528.000000	1.046853
2527.000000	1.047019
2526.000000	1.047186
2525.000000	1.047362
2524.000000	1.047542
2523.000000	1.047718
2522.000000	1.047878
2521.000000	1.048018
2520.000000	1.048149
2519.000000	1.048289
2518.000000	1.048452
2517.000000	1.048633
2516.000000	1.048824
2515.000000	1.049019
2514.000000	1.049215
2513.000000	1.049409
2512.000000	1.049594
2511.000000	1.049772
2510.000000	1.049945
2509.000000	1.050110
2508.000000	1.050265
2507.000000	1.050412
2506.000000	1.050560
2505.000000	1.050713
2504.000000	1.050865
2503.000000	1.051006
2502.000000	1.051134
2501.000000	1.051254
2500.000000	1.051377
2499.000000	1.051509
2498.000000	1.051648
2497.000000	1.051784
2496.000000	1.051912
2495.000000	1.052039
2494.000000	1.052165
2493.000000	1.052285
2492.000000	1.052389
2491.000000	1.052483
2490.000000	1.052582
2489.000000	1.052694
2488.000000	1.052810
2487.000000	1.052918
2486.000000	1.053016
2485.000000	1.053109
2484.000000	1.053199
2483.000000	1.053283
2482.000000	1.053360
2481.000000	1.053433
2480.000000	1.053499
2479.000000	1.053556
2478.000000	1.053601
2477.000000	1.053639
2476.000000	1.053680
2475.000000	1.053730
2474.000000	1.053790
2473.000000	1.053859
2472.000000	1.053923
2471.000000	1.053969
2470.000000	1.053991
2469.000000	1.054005
2468.000000	1.054036
2467.000000	1.054095
2466.000000	1.054166
2465.000000	1.054223
2464.000000	1.054258
2463.000000	1.054285
2462.000000	1.054316
2461.000000	1.054351
2460.000000	1.054383
2459.000000	1.054406
2458.000000	1.054417
2457.000000	1.054415
2456.000000	1.054410
2455.000000	1.054410
2454.000000	1.054417
2453.000000	1.054419
2452.000000	1.054410
2451.000000	1.054397
2450.000000	1.054390
2449.000000	1.054390
2448.000000	1.054392
2447.000000	1.054394
2446.000000	1.054393
2445.000000	1.054384
2444.000000	1.054357
2443.000000	1.054314
2442.000000	1.054260
2441.000000	1.054199
2440.000000	1.054126
2439.000000	1.054044
2438.000000	1.053961
2437.000000	1.053887
2436.000000	1.053829
2435.000000	1.053793
2434.000000	1.053772
2433.000000	1.053750
2432.000000	1.053714
2431.000000	1.053666
2430.000000	1.053621
2429.000000	1.053583
2428.000000	1.053545
2427.000000	1.053500
2426.000000	1.053451
2425.000000	1.053401
2424.000000	1.053347
2423.000000	1.053291
2422.000000	1.053237
2421.000000	1.053189
2420.000000	1.053146
2419.000000	1.053103
2418.000000	1.053054
2417.000000	1.052993
2416.000000	1.052920
2415.000000	1.052842
2414.000000	1.052772
2413.000000	1.052715
2412.000000	1.052664
2411.000000	1.052614
2410.000000	1.052559
2409.000000	1.052500
2408.000000	1.052436
2407.000000	1.052373
2406.000000	1.052318
2405.000000	1.052278
2404.000000	1.052252
2403.000000	1.052242
2402.000000	1.052241
2401.000000	1.052233
2400.000000	1.052196
2399.000000	1.052131
2398.000000	1.052054
2397.000000	1.051989
2396.000000	1.051948
2395.000000	1.051933
2394.000000	1.051940
2393.000000	1.051955
2392.000000	1.051956
2391.000000	1.051932
2390.000000	1.051892
2389.000000	1.051852
2388.000000	1.051829
2387.000000	1.051824
2386.000000	1.051831
2385.000000	1.051836
2384.000000	1.051823
2383.000000	1.051786
2382.000000	1.051729
2381.000000	1.051663
2380.000000	1.051591
2379.000000	1.051511
2378.000000	1.051420
2377.000000	1.051310
2376.000000	1.051169
2375.000000	1.050998
2374.000000	1.050806
2373.000000	1.050609
2372.000000	1.050411
2371.000000	1.050212
2370.000000	1.050010
2369.000000	1.049802
2368.000000	1.049586
2367.000000	1.049369
2366.000000	1.049177
2365.000000	1.049034
2364.000000	1.048946
2363.000000	1.048903
2362.000000	1.048895
2361.000000	1.048923
2360.000000	1.048991
2359.000000	1.049103
2358.000000	1.049259
2357.000000	1.049463
2356.000000	1.049716
2355.000000	1.050014
2354.000000	1.050354
2353.000000	1.050735
2352.000000	1.051146
2351.000000	1.051561
2350.000000	1.051937
2349.000000	1.052237
2348.000000	1.052473
2347.000000	1.052717
2346.000000	1.053071
2345.000000	1.053606
2344.000000	1.054321
2343.000000	1.055127
2342.000000	1.055850
2341.000000	1.056275
2340.000000	1.056228
2339.000000	1.055685
2338.000000	1.054802
2337.000000	1.053832
2336.000000	1.052995
2335.000000	1.052398
2334.000000	1.052041
2333.000000	1.051869
2332.000000	1.051814
2331.000000	1.051828
2330.000000	1.051890
2329.000000	1.051995
2328.000000	1.052135
2327.000000	1.052291
2326.000000	1.052439
2325.000000	1.052564
2324.000000	1.052666
2323.000000	1.052764
2322.000000	1.052881
2321.000000	1.053023
2320.000000	1.053174
2319.000000	1.053311
2318.000000	1.053425
2317.000000	1.053524
2316.000000	1.053619
2315.000000	1.053716
2314.000000	1.053819
2313.000000	1.053936
2312.000000	1.054064
2311.000000	1.054190
2310.000000	1.054299
2309.000000	1.054388
2308.000000	1.054459
2307.000000	1.054520
2306.000000	1.054580
2305.000000	1.054647
2304.000000	1.054724
2303.000000	1.054804
2302.000000	1.054876
2301.000000	1.054927
2300.000000	1.054962
2299.000000	1.054997
2298.000000	1.055050
2297.000000	1.055126
2296.000000	1.055216
2295.000000	1.055305
2294.000000	1.055381
2293.000000	1.055435
2292.000000	1.055466
2291.000000	1.055485
2290.000000	1.055508
2289.000000	1.055542
2288.000000	1.055583
2287.000000	1.055627
2286.000000	1.055676
2285.000000	1.055730
2284.000000	1.055784
2283.000000	1.055835
2282.000000	1.055888
2281.000000	1.055945
2280.000000	1.055996
2279.000000	1.056037
2278.000000	1.056078
2277.000000	1.056131
2276.000000	1.056191
2275.000000	1.056245
2274.000000	1.056289
2273.000000	1.056333
2272.000000	1.056387
2271.000000	1.056444
2270.000000	1.056495
2269.000000	1.056539
2268.000000	1.056582
2267.000000	1.056624
2266.000000	1.056659
2265.000000	1.056689
2264.000000	1.056716
2263.000000	1.056740
2262.000000	1.056758
2261.000000	1.056768
2260.000000	1.056776
2259.000000	1.056789
2258.000000	1.056811
2257.000000	1.056844
2256.000000	1.056889
2255.000000	1.056947
2254.000000	1.057012
2253.000000	1.057069
2252.000000	1.057101
2251.000000	1.057106
2250.000000	1.057102
2249.000000	1.057118
2248.000000	1.057168
2247.000000	1.057239
2246.000000	1.057304
2245.000000	1.057343
2244.000000	1.057357
2243.000000	1.057356
2242.000000	1.057348
2241.000000	1.057339
2240.000000	1.057341
2239.000000	1.057368
2238.000000	1.057416
2237.000000	1.057461
2236.000000	1.057482
2235.000000	1.057486
2234.000000	1.057496
2233.000000	1.057529
2232.000000	1.057580
2231.000000	1.057638
2230.000000	1.057688
2229.000000	1.057719
2228.000000	1.057728
2227.000000	1.057730
2226.000000	1.057750
2225.000000	1.057786
2224.000000	1.057809
2223.000000	1.057801
2222.000000	1.057774
2221.000000	1.057763
2220.000000	1.057778
2219.000000	1.057805
2218.000000	1.057827
2217.000000	1.057844
2216.000000	1.057862
2215.000000	1.057883
2214.000000	1.057904
2213.000000	1.057921
2212.000000	1.057931
2211.000000	1.057935
2210.000000	1.057939
2209.000000	1.057940
2208.000000	1.057935
2207.000000	1.057920
2206.000000	1.057904
2205.000000	1.057900
2204.000000	1.057911
2203.000000	1.057925
2202.000000	1.057929
2201.000000	1.057916
2200.000000	1.057893
2199.000000	1.057872
2198.000000	1.057864
2197.000000	1.057866
2196.000000	1.057865
2195.000000	1.057846
2194.000000	1.057812
2193.000000	1.057774
2192.000000	1.057740
2191.000000	1.057712
2190.000000	1.057691
2189.000000	1.057675
2188.000000	1.057657
2187.000000	1.057632
2186.000000	1.057605
2185.000000	1.057592
2184.000000	1.057601
2183.000000	1.057624
2182.000000	1.057647
2181.000000	1.057657
2180.000000	1.057646
2179.000000	1.057610
2178.000000	1.057559
2177.000000	1.057510
2176.000000	1.057477
2175.000000	1.057454
2174.000000	1.057430
2173.000000	1.057404
2172.000000	1.057383
2171.000000	1.057371
2170.000000	1.057362
2169.000000	1.057344
2168.000000	1.057309
2167.000000	1.057262
2166.000000	1.057202
2165.000000	1.057130
2164.000000	1.057054
2163.000000	1.056995
2162.000000	1.056963
2161.000000	1.056945
2160.000000	1.056909
2159.000000	1.056840
2158.000000	1.056752
2157.000000	1.056672
2156.000000	1.056614
2155.000000	1.056571
2154.000000	1.056531
2153.000000	1.056491
2152.000000	1.056449
2151.000000	1.056404
2150.000000	1.056352
2149.000000	1.056297
2148.000000	1.056248
2147.000000	1.056207
2146.000000	1.056164
2145.000000	1.056101
2144.000000	1.056009
2143.000000	1.055900
2142.000000	1.055794
2141.000000	1.055702
2140.000000	1.055623
2139.000000	1.055554
2138.000000	1.055497
2137.000000	1.055450
2136.000000	1.055398
2135.000000	1.055333
2134.000000	1.055258
2133.000000	1.055183
2132.000000	1.055110
2131.000000	1.055029
2130.000000	1.054939
2129.000000	1.054847
2128.000000	1.054763
2127.000000	1.054687
2126.000000	1.054604
2125.000000	1.054500
2124.000000	1.054375
2123.000000	1.054249
2122.000000	1.054134
2121.000000	1.054026
2120.000000	1.053915
2119.000000	1.053807
2118.000000	1.053714
2117.000000	1.053633
2116.000000	1.053545
2115.000000	1.053441
2114.000000	1.053331
2113.000000	1.053226
2112.000000	1.053124
2111.000000	1.053017
2110.000000	1.052905
2109.000000	1.052789
2108.000000	1.052662
2107.000000	1.052519
2106.000000	1.052372
2105.000000	1.052229
2104.000000	1.052086
2103.000000	1.051936
2102.000000	1.051796
2101.000000	1.051683
2100.000000	1.051591
2099.000000	1.051490
2098.000000	1.051361
2097.000000	1.051213
2096.000000	1.051068
2095.000000	1.050937
2094.000000	1.050818
2093.000000	1.050707
2092.000000	1.050595
2091.000000	1.050471
2090.000000	1.050330
2089.000000	1.050179
2088.000000	1.050030
2087.000000	1.049890
2086.000000	1.049760
2085.000000	1.049634
2084.000000	1.049508
2083.000000	1.049374
2082.000000	1.049234
2081.000000	1.049096
2080.000000	1.048966
2079.000000	1.048834
2078.000000	1.048689
2077.000000	1.048521
2076.000000	1.048337
2075.000000	1.048150
2074.000000	1.047973
2073.000000	1.047815
2072.000000	1.047676
2071.000000	1.047548
2070.000000	1.047422
2069.000000	1.047289
2068.000000	1.047145
2067.000000	1.046991
2066.000000	1.046835
2065.000000	1.046690
2064.000000	1.046564
2063.000000	1.046450
2062.000000	1.046325
2061.000000	1.046174
2060.000000	1.046000
2059.000000	1.045824
2058.000000	1.045667
2057.000000	1.045530
2056.000000	1.045399
2055.000000	1.045258
2054.000000	1.045100
2053.000000	1.044930
2052.000000	1.044760
2051.000000	1.044601
2050.000000	1.044452
2049.000000	1.044305
2048.000000	1.044159
2047.000000	1.044022
2046.000000	1.043899
2045.000000	1.043779
2044.000000	1.043643
2043.000000	1.043489
2042.000000	1.043334
2041.000000	1.043188
2040.000000	1.043045
2039.000000	1.042893
2038.000000	1.042739
2037.000000	1.042599
2036.000000	1.042476
2035.000000	1.042353
2034.000000	1.042218
2033.000000	1.042075
2032.000000	1.041932
2031.000000	1.041791
2030.000000	1.041647
2029.000000	1.041501
2028.000000	1.041359
2027.000000	1.041226
2026.000000	1.041099
2025.000000	1.040974
2024.000000	1.040852
2023.000000	1.040739
2022.000000	1.040635
2021.000000	1.040527
2020.000000	1.040406
2019.000000	1.040271
2018.000000	1.040133
2017.000000	1.040004
2016.000000	1.039887
2015.000000	1.039784
2014.000000	1.039692
2013.000000	1.039604
2012.000000	1.039509
2011.000000	1.039402
2010.000000	1.039286
2009.000000	1.039172
2008.000000	1.039063
2007.000000	1.038959
2006.000000	1.038856
2005.000000	1.038751
2004.000000	1.038646
2003.000000	1.038546
2002.000000	1.038454
2001.000000	1.038367
2000.000000	1.038271
1999.000000	1.038166
1998.000000	1.038064
1997.000000	1.037978
1996.000000	1.037899
1995.000000	1.037813
1994.000000	1.037715
1993.000000	1.037616
1992.000000	1.037530
1991.000000	1.037456
1990.000000	1.037387
1989.000000	1.037317
1988.000000	1.037247
1987.000000	1.037181
1986.000000	1.037114
1985.000000	1.037040
1984.000000	1.036958
1983.000000	1.036880
1982.000000	1.036819
1981.000000	1.036768
1980.000000	1.036714
1979.000000	1.036645
1978.000000	1.036560
1977.000000	1.036466
1976.000000	1.036381
1975.000000	1.036323
1974.000000	1.036301
1973.000000	1.036294
1972.000000	1.036267
1971.000000	1.036203
1970.000000	1.036115
1969.000000	1.036025
1968.000000	1.035946
1967.000000	1.035882
1966.000000	1.035834
1965.000000	1.035800
1964.000000	1.035777
1963.000000	1.035762
1962.000000	1.035747
1961.000000	1.035713
1960.000000	1.035654
1959.000000	1.035583
1958.000000	1.035529
1957.000000	1.035498
1956.000000	1.035477
1955.000000	1.035454
1954.000000	1.035434
1953.000000	1.035416
1952.000000	1.035385
1951.000000	1.035339
1950.000000	1.035295
1949.000000	1.035273
1948.000000	1.035273
1947.000000	1.035279
1946.000000	1.035271
1945.000000	1.035230
1944.000000	1.035152
1943.000000	1.035064
1942.000000	1.035013
1941.000000	1.035028
1940.000000	1.035084
1939.000000	1.035136
1938.000000	1.035160
1937.000000	1.035160
1936.000000	1.035147
1935.000000	1.035125
1934.000000	1.035101
1933.000000	1.035081
1932.000000	1.035069
1931.000000	1.035067
1930.000000	1.035076
1929.000000	1.035093
1928.000000	1.035109
1927.000000	1.035119
1926.000000	1.035121
1925.000000	1.035108
1924.000000	1.035073
1923.000000	1.035029
1922.000000	1.035003
1921.000000	1.034997
1920.000000	1.034985
1919.000000	1.034958
1918.000000	1.034952
1917.000000	1.034996
1916.000000	1.035073
1915.000000	1.035132
1914.000000	1.035150
1913.000000	1.035141
1912.000000	1.035126
1911.000000	1.035121
1910.000000	1.035140
1909.000000	1.035185
1908.000000	1.035236
1907.000000	1.035266
1906.000000	1.035277
1905.000000	1.035295
1904.000000	1.035329
1903.000000	1.035361
1902.000000	1.035381
1901.000000	1.035400
1900.000000	1.035435
1899.000000	1.035486
1898.000000	1.035539
1897.000000	1.035576
1896.000000	1.035591
1895.000000	1.035594
1894.000000	1.035603
1893.000000	1.035622
1892.000000	1.035639
1891.000000	1.035646
1890.000000	1.035661
1889.000000	1.035699
1888.000000	1.035747
1887.000000	1.035779
1886.000000	1.035795
1885.000000	1.035824
1884.000000	1.035881
1883.000000	1.035954
1882.000000	1.036028
1881.000000	1.036095
1880.000000	1.036148
1879.000000	1.036183
1878.000000	1.036202
1877.000000	1.036216
1876.000000	1.036228
1875.000000	1.036241
1874.000000	1.036267
1873.000000	1.036310
1872.000000	1.036347
1871.000000	1.036352
1870.000000	1.036339
1869.000000	1.036357
1868.000000	1.036438
1867.000000	1.036562
1866.000000	1.036683
1865.000000	1.036776
1864.000000	1.036842
1863.000000	1.036894
1862.000000	1.036945
1861.000000	1.036999
1860.000000	1.037059
1859.000000	1.037125
1858.000000	1.037203
1857.000000	1.037287
1856.000000	1.037355
1855.000000	1.037392
1854.000000	1.037416
1853.000000	1.037461
1852.000000	1.037529
1851.000000	1.037593
1850.000000	1.037643
1849.000000	1.037696
1848.000000	1.037754
1847.000000	1.037785
1846.000000	1.037767
1845.000000	1.037739
1844.000000	1.037779
1843.000000	1.037929
1842.000000	1.038155
1841.000000	1.038380
1840.000000	1.038557
1839.000000	1.038686
1838.000000	1.038788
1837.000000	1.038875
1836.000000	1.038947
1835.000000	1.039011
1834.000000	1.039077
1833.000000	1.039127
1832.000000	1.039138
1831.000000	1.039134
1830.000000	1.039190
1829.000000	1.039350
1828.000000	1.039563
1827.000000	1.039739
1826.000000	1.039853
1825.000000	1.039951
1824.000000	1.040078
1823.000000	1.040228
1822.000000	1.040378
1821.000000	1.040518
1820.000000	1.040642
1819.000000	1.040746
1818.000000	1.040847
1817.000000	1.040971
1816.000000	1.041121
1815.000000	1.041270
1814.000000	1.041394
1813.000000	1.041494
1812.000000	1.041580
1811.000000	1.041662
1810.000000	1.041761
1809.000000	1.041902
1808.000000	1.042077
1807.000000	1.042252
1806.000000	1.042407
1805.000000	1.042545
1804.000000	1.042662
1803.000000	1.042740
1802.000000	1.042792
1801.000000	1.042865
1800.000000	1.042997
1799.000000	1.043181
1798.000000	1.043389
1797.000000	1.043593
1796.000000	1.043754
1795.000000	1.043822
1794.000000	1.043806
1793.000000	1.043800
1792.000000	1.043904
1791.000000	1.044130
1790.000000	1.044407
1789.000000	1.044654
1788.000000	1.044834
1787.000000	1.044957
1786.000000	1.045063
1785.000000	1.045203
1784.000000	1.045384
1783.000000	1.045571
1782.000000	1.045736
1781.000000	1.045899
1780.000000	1.046093
1779.000000	1.046306
1778.000000	1.046498
1777.000000	1.046646
1776.000000	1.046739
1775.000000	1.046758
1774.000000	1.046718
1773.000000	1.046715
1772.000000	1.046861
1771.000000	1.047157
1770.000000	1.047480
1769.000000	1.047733
1768.000000	1.047943
1767.000000	1.048194
1766.000000	1.048489
1765.000000	1.048736
1764.000000	1.048867
1763.000000	1.048920
1762.000000	1.049007
1761.000000	1.049192
1760.000000	1.049434
1759.000000	1.049645
1758.000000	1.049797
1757.000000	1.049950
1756.000000	1.050164
1755.000000	1.050407
1754.000000	1.050574
1753.000000	1.050612
1752.000000	1.050590
1751.000000	1.050633
1750.000000	1.050807
1749.000000	1.051074
1748.000000	1.051360
1747.000000	1.051615
1746.000000	1.051831
1745.000000	1.052013
1744.000000	1.052167
1743.000000	1.052293
1742.000000	1.052386
1741.000000	1.052462
1740.000000	1.052568
1739.000000	1.052735
1738.000000	1.052898
1737.000000	1.052917
1736.000000	1.052731
1735.000000	1.052492
1734.000000	1.052470
1733.000000	1.052789
1732.000000	1.053301
1731.000000	1.053754
1730.000000	1.054036
1729.000000	1.054201
1728.000000	1.054333
1727.000000	1.054450
1726.000000	1.054538
1725.000000	1.054604
1724.000000	1.054670
1723.000000	1.054739
1722.000000	1.054782
1721.000000	1.054743
1720.000000	1.054569
1719.000000	1.054294
1718.000000	1.054072
1717.000000	1.054069
1716.000000	1.054297
1715.000000	1.054625
1714.000000	1.054929
1713.000000	1.055179
1712.000000	1.055374
1711.000000	1.055483
1710.000000	1.055496
1709.000000	1.055458
1708.000000	1.055407
1707.000000	1.055346
1706.000000	1.055308
1705.000000	1.055349
1704.000000	1.055413
1703.000000	1.055308
1702.000000	1.054954
1701.000000	1.054564
1700.000000	1.054442
1699.000000	1.054600
1698.000000	1.054759
1697.000000	1.054749
1696.000000	1.054733
1695.000000	1.054965
1694.000000	1.055428
1693.000000	1.055858
1692.000000	1.056058
1691.000000	1.056069
1690.000000	1.056047
1689.000000	1.056047
1688.000000	1.055961
1687.000000	1.055663
1686.000000	1.055196
1685.000000	1.054819
1684.000000	1.054809
1683.000000	1.055189
1682.000000	1.055705
1681.000000	1.056085
1680.000000	1.056252
1679.000000	1.056276
1678.000000	1.056209
1677.000000	1.056057
1676.000000	1.055891
1675.000000	1.055841
1674.000000	1.055947
1673.000000	1.056084
1672.000000	1.056101
1671.000000	1.055996
1670.000000	1.055903
1669.000000	1.055939
1668.000000	1.056107
1667.000000	1.056315
1666.000000	1.056456
1665.000000	1.056470
1664.000000	1.056386
1663.000000	1.056315
1662.000000	1.056348
1661.000000	1.056467
1660.000000	1.056575
1659.000000	1.056615
1658.000000	1.056598
1657.000000	1.056486
1656.000000	1.056137
1655.000000	1.055493
1654.000000	1.054800
1653.000000	1.054506
1652.000000	1.054834
1651.000000	1.055523
1650.000000	1.056083
1649.000000	1.056242
1648.000000	1.056105
1647.000000	1.055953
1646.000000	1.055982
1645.000000	1.056199
1644.000000	1.056482
1643.000000	1.056695
1642.000000	1.056778
1641.000000	1.056766
1640.000000	1.056711
1639.000000	1.056585
1638.000000	1.056327
1637.000000	1.055985
1636.000000	1.055752
1635.000000	1.055806
1634.000000	1.056127
1633.000000	1.056520
1632.000000	1.056789
1631.000000	1.056864
1630.000000	1.056795
1629.000000	1.056690
1628.000000	1.056631
1627.000000	1.056627
1626.000000	1.056618
1625.000000	1.056551
1624.000000	1.056453
1623.000000	1.056403
1622.000000	1.056444
1621.000000	1.056511
1620.000000	1.056477
1619.000000	1.056269
1618.000000	1.055976
1617.000000	1.055808
1616.000000	1.055930
1615.000000	1.056291
1614.000000	1.056673
1613.000000	1.056894
1612.000000	1.056942
1611.000000	1.056913
1610.000000	1.056876
1609.000000	1.056845
1608.000000	1.056831
1607.000000	1.056856
1606.000000	1.056912
1605.000000	1.056953
1604.000000	1.056954
1603.000000	1.056925
1602.000000	1.056887
1601.000000	1.056854
1600.000000	1.056842
1599.000000	1.056861
1598.000000	1.056896
1597.000000	1.056916
1596.000000	1.056913
1595.000000	1.056906
1594.000000	1.056908
1593.000000	1.056908
1592.000000	1.056896
1591.000000	1.056884
1590.000000	1.056892
1589.000000	1.056917
1588.000000	1.056947
1587.000000	1.056973
1586.000000	1.056994
1585.000000	1.057005
1584.000000	1.056995
1583.000000	1.056974
1582.000000	1.056966
1581.000000	1.056973
1580.000000	1.056932
1579.000000	1.056749
1578.000000	1.056407
1577.000000	1.056059
1576.000000	1.055934
1575.000000	1.056120
1574.000000	1.056448
1573.000000	1.056655
1572.000000	1.056635
1571.000000	1.056502
1570.000000	1.056439
1569.000000	1.056519
1568.000000	1.056680
1567.000000	1.056810
1566.000000	1.056855
1565.000000	1.056834
1564.000000	1.056775
1563.000000	1.056617
1562.000000	1.056229
1561.000000	1.055598
1560.000000	1.054973
1559.000000	1.054725
1558.000000	1.054988
1557.000000	1.055521
1556.000000	1.055978
1555.000000	1.056234
1554.000000	1.056390
1553.000000	1.056549
1552.000000	1.056687
1551.000000	1.056747
1550.000000	1.056745
1549.000000	1.056726
1548.000000	1.056696
1547.000000	1.056626
1546.000000	1.056507
1545.000000	1.056361
1544.000000	1.056182
1543.000000	1.055927
1542.000000	1.055571
1541.000000	1.055205
1540.000000	1.055036
1539.000000	1.055234
1538.000000	1.055736
1537.000000	1.056253
1536.000000	1.056512
1535.000000	1.056494
1534.000000	1.056402
1533.000000	1.056416
1532.000000	1.056534
1531.000000	1.056645
1530.000000	1.056672
1529.000000	1.056613
1528.000000	1.056500
1527.000000	1.056389
1526.000000	1.056329
1525.000000	1.056298
1524.000000	1.056191
1523.000000	1.055951
1522.000000	1.055696
1521.000000	1.055626
1520.000000	1.055798
1519.000000	1.056056
1518.000000	1.056227
1517.000000	1.056291
1516.000000	1.056345
1515.000000	1.056433
1514.000000	1.056508
1513.000000	1.056528
1512.000000	1.056508
1511.000000	1.056449
1510.000000	1.056272
1509.000000	1.055910
1508.000000	1.055449
1507.000000	1.055142
1506.000000	1.055217
1505.000000	1.055662
1504.000000	1.056231
1503.000000	1.056659
1502.000000	1.056842
1501.000000	1.056841
1500.000000	1.056744
