PE IR       SUBTECH     SPECTRUM    ASCII       PEDS        4.00        
   -1
TE108B1_029.ASC
20/02/21
16:00:42.00
20/02/21
16:00:42.00
Administrator
Sample 029 By Administrator Date Friday, February 21 2020
1500.000000
#HDR
-1
-1
#GR
cm-1
A
1.0
0.0
4000.000000
-1.000000
2501
8
0.932088
0.892657
#DATA
4000.000000	0.901734
3999.000000	0.901708
3998.000000	0.901681
3997.000000	0.901663
3996.000000	0.901659
3995.000000	0.901667
3994.000000	0.901676
3993.000000	0.901677
3992.000000	0.901663
3991.000000	0.901633
3990.000000	0.901588
3989.000000	0.901534
3988.000000	0.901480
3987.000000	0.901438
3986.000000	0.901415
3985.000000	0.901406
3984.000000	0.901402
3983.000000	0.901398
3982.000000	0.901394
3981.000000	0.901390
3980.000000	0.901384
3979.000000	0.901375
3978.000000	0.901361
3977.000000	0.901340
3976.000000	0.901309
3975.000000	0.901269
3974.000000	0.901223
3973.000000	0.901177
3972.000000	0.901137
3971.000000	0.901106
3970.000000	0.901077
3969.000000	0.901044
3968.000000	0.901004
3967.000000	0.900957
3966.000000	0.900910
3965.000000	0.900862
3964.000000	0.900813
3963.000000	0.900766
3962.000000	0.900725
3961.000000	0.900693
3960.000000	0.900670
3959.000000	0.900657
3958.000000	0.900651
3957.000000	0.900644
3956.000000	0.900625
3955.000000	0.900584
3954.000000	0.900526
3953.000000	0.900463
3952.000000	0.900405
3951.000000	0.900352
3950.000000	0.900294
3949.000000	0.900223
3948.000000	0.900145
3947.000000	0.900074
3946.000000	0.900025
3945.000000	0.899993
3944.000000	0.899965
3943.000000	0.899924
3942.000000	0.899868
3941.000000	0.899802
3940.000000	0.899735
3939.000000	0.899675
3938.000000	0.899630
3937.000000	0.899599
3936.000000	0.899575
3935.000000	0.899541
3934.000000	0.899490
3933.000000	0.899425
3932.000000	0.899356
3931.000000	0.899298
3930.000000	0.899255
3929.000000	0.899223
3928.000000	0.899192
3927.000000	0.899155
3926.000000	0.899111
3925.000000	0.899063
3924.000000	0.899011
3923.000000	0.898947
3922.000000	0.898862
3921.000000	0.898752
3920.000000	0.898626
3919.000000	0.898504
3918.000000	0.898409
3917.000000	0.898352
3916.000000	0.898328
3915.000000	0.898322
3914.000000	0.898318
3913.000000	0.898306
3912.000000	0.898280
3911.000000	0.898241
3910.000000	0.898190
3909.000000	0.898122
3908.000000	0.898034
3907.000000	0.897924
3906.000000	0.897796
3905.000000	0.897662
3904.000000	0.897541
3903.000000	0.897446
3902.000000	0.897382
3901.000000	0.897340
3900.000000	0.897315
3899.000000	0.897310
3898.000000	0.897328
3897.000000	0.897362
3896.000000	0.897386
3895.000000	0.897371
3894.000000	0.897298
3893.000000	0.897172
3892.000000	0.897031
3891.000000	0.896924
3890.000000	0.896878
3889.000000	0.896872
3888.000000	0.896854
3887.000000	0.896788
3886.000000	0.896693
3885.000000	0.896621
3884.000000	0.896608
3883.000000	0.896637
3882.000000	0.896653
3881.000000	0.896620
3880.000000	0.896552
3879.000000	0.896493
3878.000000	0.896468
3877.000000	0.896461
3876.000000	0.896438
3875.000000	0.896389
3874.000000	0.896319
3873.000000	0.896233
3872.000000	0.896122
3871.000000	0.895987
3870.000000	0.895864
3869.000000	0.895800
3868.000000	0.895811
3867.000000	0.895853
3866.000000	0.895862
3865.000000	0.895806
3864.000000	0.895716
3863.000000	0.895645
3862.000000	0.895626
3861.000000	0.895650
3860.000000	0.895689
3859.000000	0.895713
3858.000000	0.895684
3857.000000	0.895546
3856.000000	0.895259
3855.000000	0.894857
3854.000000	0.894464
3853.000000	0.894242
3852.000000	0.894279
3851.000000	0.894534
3850.000000	0.894868
3849.000000	0.895141
3848.000000	0.895281
3847.000000	0.895296
3846.000000	0.895233
3845.000000	0.895133
3844.000000	0.895027
3843.000000	0.894938
3842.000000	0.894868
3841.000000	0.894793
3840.000000	0.894676
3839.000000	0.894508
3838.000000	0.894335
3837.000000	0.894230
3836.000000	0.894234
3835.000000	0.894324
3834.000000	0.894432
3833.000000	0.894498
3832.000000	0.894512
3831.000000	0.894503
3830.000000	0.894498
3829.000000	0.894495
3828.000000	0.894482
3827.000000	0.894463
3826.000000	0.894451
3825.000000	0.894440
3824.000000	0.894389
3823.000000	0.894259
3822.000000	0.894074
3821.000000	0.893916
3820.000000	0.893857
3819.000000	0.893880
3818.000000	0.893891
3817.000000	0.893818
3816.000000	0.893692
3815.000000	0.893618
3814.000000	0.893668
3813.000000	0.893815
3812.000000	0.893966
3811.000000	0.894045
3810.000000	0.894030
3809.000000	0.893939
3808.000000	0.893807
3807.000000	0.893690
3806.000000	0.893637
3805.000000	0.893649
3804.000000	0.893654
3803.000000	0.893575
3802.000000	0.893423
3801.000000	0.893303
3800.000000	0.893316
3799.000000	0.893453
3798.000000	0.893613
3797.000000	0.893704
3796.000000	0.893717
3795.000000	0.893714
3794.000000	0.893742
3793.000000	0.893794
3792.000000	0.893834
3791.000000	0.893843
3790.000000	0.893830
3789.000000	0.893810
3788.000000	0.893789
3787.000000	0.893766
3786.000000	0.893747
3785.000000	0.893739
3784.000000	0.893745
3783.000000	0.893748
3782.000000	0.893729
3781.000000	0.893679
3780.000000	0.893613
3779.000000	0.893568
3778.000000	0.893569
3777.000000	0.893613
3776.000000	0.893673
3775.000000	0.893719
3774.000000	0.893737
3773.000000	0.893720
3772.000000	0.893663
3771.000000	0.893575
3770.000000	0.893486
3769.000000	0.893435
3768.000000	0.893436
3767.000000	0.893472
3766.000000	0.893508
3765.000000	0.893525
3764.000000	0.893527
3763.000000	0.893525
3762.000000	0.893523
3761.000000	0.893514
3760.000000	0.893494
3759.000000	0.893473
3758.000000	0.893469
3757.000000	0.893490
3756.000000	0.893512
3755.000000	0.893484
3754.000000	0.893359
3753.000000	0.893142
3752.000000	0.892893
3751.000000	0.892706
3750.000000	0.892657
3749.000000	0.892755
3748.000000	0.892926
3747.000000	0.893039
3746.000000	0.892996
3745.000000	0.892822
3744.000000	0.892673
3743.000000	0.892708
3742.000000	0.892951
3741.000000	0.893270
3740.000000	0.893495
3739.000000	0.893541
3738.000000	0.893438
3737.000000	0.893279
3736.000000	0.893151
3735.000000	0.893097
3734.000000	0.893121
3733.000000	0.893200
3732.000000	0.893312
3731.000000	0.893444
3730.000000	0.893583
3729.000000	0.893698
3728.000000	0.893758
3727.000000	0.893769
3726.000000	0.893772
3725.000000	0.893809
3724.000000	0.893882
3723.000000	0.893960
3722.000000	0.894019
3721.000000	0.894065
3720.000000	0.894116
3719.000000	0.894188
3718.000000	0.894283
3717.000000	0.894391
3716.000000	0.894489
3715.000000	0.894544
3714.000000	0.894537
3713.000000	0.894480
3712.000000	0.894422
3711.000000	0.894416
3710.000000	0.894491
3709.000000	0.894638
3708.000000	0.894831
3707.000000	0.895038
3706.000000	0.895235
3705.000000	0.895406
3704.000000	0.895540
3703.000000	0.895642
3702.000000	0.895735
3701.000000	0.895848
3700.000000	0.895998
3699.000000	0.896181
3698.000000	0.896373
3697.000000	0.896548
3696.000000	0.896695
3695.000000	0.896819
3694.000000	0.896935
3693.000000	0.897044
3692.000000	0.897124
3691.000000	0.897149
3690.000000	0.897122
3689.000000	0.897108
3688.000000	0.897200
3687.000000	0.897450
3686.000000	0.897821
3685.000000	0.898217
3684.000000	0.898554
3683.000000	0.898811
3682.000000	0.899012
3681.000000	0.899191
3680.000000	0.899360
3679.000000	0.899503
3678.000000	0.899597
3677.000000	0.899645
3676.000000	0.899702
3675.000000	0.899848
3674.000000	0.900118
3673.000000	0.900454
3672.000000	0.900751
3671.000000	0.900959
3670.000000	0.901135
3669.000000	0.901381
3668.000000	0.901743
3667.000000	0.902182
3666.000000	0.902614
3665.000000	0.902984
3664.000000	0.903278
3663.000000	0.903517
3662.000000	0.903733
3661.000000	0.903948
3660.000000	0.904167
3659.000000	0.904375
3658.000000	0.904558
3657.000000	0.904724
3656.000000	0.904909
3655.000000	0.905143
3654.000000	0.905414
3653.000000	0.905664
3652.000000	0.905837
3651.000000	0.905931
3650.000000	0.906011
3649.000000	0.906160
3648.000000	0.906424
3647.000000	0.906784
3646.000000	0.907181
3645.000000	0.907556
3644.000000	0.907880
3643.000000	0.908154
3642.000000	0.908396
3641.000000	0.908623
3640.000000	0.908843
3639.000000	0.909052
3638.000000	0.909252
3637.000000	0.909446
3636.000000	0.909638
3635.000000	0.909826
3634.000000	0.909998
3633.000000	0.910134
3632.000000	0.910206
3631.000000	0.910206
3630.000000	0.910166
3629.000000	0.910169
3628.000000	0.910294
3627.000000	0.910559
3626.000000	0.910906
3625.000000	0.911244
3624.000000	0.911508
3623.000000	0.911684
3622.000000	0.911788
3621.000000	0.911847
3620.000000	0.911895
3619.000000	0.911969
3618.000000	0.912091
3617.000000	0.912251
3616.000000	0.912415
3615.000000	0.912555
3614.000000	0.912669
3613.000000	0.912770
3612.000000	0.912866
3611.000000	0.912953
3610.000000	0.913031
3609.000000	0.913117
3608.000000	0.913236
3607.000000	0.913395
3606.000000	0.913569
3605.000000	0.913721
3604.000000	0.913829
3603.000000	0.913900
3602.000000	0.913957
3601.000000	0.914014
3600.000000	0.914075
3599.000000	0.914140
3598.000000	0.914211
3597.000000	0.914288
3596.000000	0.914366
3595.000000	0.914440
3594.000000	0.914511
3593.000000	0.914581
3592.000000	0.914645
3591.000000	0.914693
3590.000000	0.914716
3589.000000	0.914716
3588.000000	0.914713
3587.000000	0.914730
3586.000000	0.914775
3585.000000	0.914838
3584.000000	0.914900
3583.000000	0.914951
3582.000000	0.914997
3581.000000	0.915046
3580.000000	0.915100
3579.000000	0.915156
3578.000000	0.915209
3577.000000	0.915252
3576.000000	0.915280
3575.000000	0.915291
3574.000000	0.915293
3573.000000	0.915295
3572.000000	0.915296
3571.000000	0.915287
3570.000000	0.915260
3569.000000	0.915218
3568.000000	0.915174
3567.000000	0.915149
3566.000000	0.915156
3565.000000	0.915193
3564.000000	0.915246
3563.000000	0.915298
3562.000000	0.915341
3561.000000	0.915376
3560.000000	0.915412
3559.000000	0.915451
3558.000000	0.915488
3557.000000	0.915514
3556.000000	0.915524
3555.000000	0.915526
3554.000000	0.915527
3553.000000	0.915525
3552.000000	0.915510
3551.000000	0.915483
3550.000000	0.915452
3549.000000	0.915432
3548.000000	0.915427
3547.000000	0.915436
3546.000000	0.915458
3545.000000	0.915492
3544.000000	0.915537
3543.000000	0.915586
3542.000000	0.915635
3541.000000	0.915684
3540.000000	0.915734
3539.000000	0.915780
3538.000000	0.915821
3537.000000	0.915856
3536.000000	0.915890
3535.000000	0.915923
3534.000000	0.915950
3533.000000	0.915965
3532.000000	0.915969
3531.000000	0.915972
3530.000000	0.915985
3529.000000	0.916011
3528.000000	0.916045
3527.000000	0.916080
3526.000000	0.916108
3525.000000	0.916121
3524.000000	0.916124
3523.000000	0.916130
3522.000000	0.916155
3521.000000	0.916208
3520.000000	0.916282
3519.000000	0.916356
3518.000000	0.916419
3517.000000	0.916471
3516.000000	0.916522
3515.000000	0.916576
3514.000000	0.916626
3513.000000	0.916665
3512.000000	0.916704
3511.000000	0.916763
3510.000000	0.916856
3509.000000	0.916972
3508.000000	0.917084
3507.000000	0.917170
3506.000000	0.917232
3505.000000	0.917285
3504.000000	0.917344
3503.000000	0.917410
3502.000000	0.917480
3501.000000	0.917553
3500.000000	0.917633
3499.000000	0.917725
3498.000000	0.917825
3497.000000	0.917924
3496.000000	0.918018
3495.000000	0.918108
3494.000000	0.918202
3493.000000	0.918300
3492.000000	0.918395
3491.000000	0.918479
3490.000000	0.918553
3489.000000	0.918623
3488.000000	0.918700
3487.000000	0.918794
3486.000000	0.918904
3485.000000	0.919015
3484.000000	0.919110
3483.000000	0.919186
3482.000000	0.919254
3481.000000	0.919333
3480.000000	0.919433
3479.000000	0.919556
3478.000000	0.919689
3477.000000	0.919818
3476.000000	0.919930
3475.000000	0.920024
3474.000000	0.920112
3473.000000	0.920203
3472.000000	0.920301
3471.000000	0.920405
3470.000000	0.920516
3469.000000	0.920638
3468.000000	0.920774
3467.000000	0.920918
3466.000000	0.921059
3465.000000	0.921189
3464.000000	0.921309
3463.000000	0.921427
3462.000000	0.921553
3461.000000	0.921690
3460.000000	0.921833
3459.000000	0.921975
3458.000000	0.922114
3457.000000	0.922247
3456.000000	0.922368
3455.000000	0.922479
3454.000000	0.922591
3453.000000	0.922709
3452.000000	0.922828
3451.000000	0.922936
3450.000000	0.923031
3449.000000	0.923121
3448.000000	0.923214
3447.000000	0.923316
3446.000000	0.923429
3445.000000	0.923553
3444.000000	0.923679
3443.000000	0.923799
3442.000000	0.923914
3441.000000	0.924038
3440.000000	0.924180
3439.000000	0.924331
3438.000000	0.924468
3437.000000	0.924579
3436.000000	0.924669
3435.000000	0.924753
3434.000000	0.924843
3433.000000	0.924940
3432.000000	0.925041
3431.000000	0.925145
3430.000000	0.925248
3429.000000	0.925351
3428.000000	0.925455
3427.000000	0.925563
3426.000000	0.925675
3425.000000	0.925784
3424.000000	0.925884
3423.000000	0.925973
3422.000000	0.926059
3421.000000	0.926155
3420.000000	0.926265
3419.000000	0.926378
3418.000000	0.926478
3417.000000	0.926562
3416.000000	0.926639
3415.000000	0.926720
3414.000000	0.926802
3413.000000	0.926875
3412.000000	0.926936
3411.000000	0.926997
3410.000000	0.927073
3409.000000	0.927166
3408.000000	0.927263
3407.000000	0.927348
3406.000000	0.927413
3405.000000	0.927461
3404.000000	0.927500
3403.000000	0.927544
3402.000000	0.927603
3401.000000	0.927685
3400.000000	0.927782
3399.000000	0.927878
3398.000000	0.927954
3397.000000	0.928003
3396.000000	0.928032
3395.000000	0.928053
3394.000000	0.928072
3393.000000	0.928091
3392.000000	0.928110
3391.000000	0.928132
3390.000000	0.928162
3389.000000	0.928199
3388.000000	0.928245
3387.000000	0.928303
3386.000000	0.928375
3385.000000	0.928452
3384.000000	0.928509
3383.000000	0.928528
3382.000000	0.928516
3381.000000	0.928497
3380.000000	0.928490
3379.000000	0.928502
3378.000000	0.928531
3377.000000	0.928576
3376.000000	0.928635
3375.000000	0.928696
3374.000000	0.928747
3373.000000	0.928776
3372.000000	0.928782
3371.000000	0.928772
3370.000000	0.928758
3369.000000	0.928756
3368.000000	0.928770
3367.000000	0.928788
3366.000000	0.928797
3365.000000	0.928799
3364.000000	0.928811
3363.000000	0.928844
3362.000000	0.928890
3361.000000	0.928931
3360.000000	0.928957
3359.000000	0.928967
3358.000000	0.928971
3357.000000	0.928983
3356.000000	0.929011
3355.000000	0.929055
3354.000000	0.929101
3353.000000	0.929136
3352.000000	0.929158
3351.000000	0.929171
3350.000000	0.929181
3349.000000	0.929187
3348.000000	0.929186
3347.000000	0.929183
3346.000000	0.929181
3345.000000	0.929184
3344.000000	0.929191
3343.000000	0.929202
3342.000000	0.929215
3341.000000	0.929224
3340.000000	0.929225
3339.000000	0.929215
3338.000000	0.929200
3337.000000	0.929194
3336.000000	0.929207
3335.000000	0.929238
3334.000000	0.929273
3333.000000	0.929301
3332.000000	0.929316
3331.000000	0.929326
3330.000000	0.929336
3329.000000	0.929349
3328.000000	0.929361
3327.000000	0.929368
3326.000000	0.929373
3325.000000	0.929380
3324.000000	0.929394
3323.000000	0.929413
3322.000000	0.929439
3321.000000	0.929479
3320.000000	0.929536
3319.000000	0.929600
3318.000000	0.929651
3317.000000	0.929676
3316.000000	0.929683
3315.000000	0.929692
3314.000000	0.929714
3313.000000	0.929743
3312.000000	0.929765
3311.000000	0.929776
3310.000000	0.929780
3309.000000	0.929781
3308.000000	0.929784
3307.000000	0.929794
3306.000000	0.929818
3305.000000	0.929858
3304.000000	0.929905
3303.000000	0.929942
3302.000000	0.929965
3301.000000	0.929979
3300.000000	0.929996
3299.000000	0.930025
3298.000000	0.930064
3297.000000	0.930106
3296.000000	0.930147
3295.000000	0.930187
3294.000000	0.930221
3293.000000	0.930240
3292.000000	0.930244
3291.000000	0.930242
3290.000000	0.930252
3289.000000	0.930280
3288.000000	0.930316
3287.000000	0.930347
3286.000000	0.930367
3285.000000	0.930375
3284.000000	0.930373
3283.000000	0.930362
3282.000000	0.930348
3281.000000	0.930338
3280.000000	0.930341
3279.000000	0.930359
3278.000000	0.930392
3277.000000	0.930434
3276.000000	0.930479
3275.000000	0.930522
3274.000000	0.930557
3273.000000	0.930581
3272.000000	0.930591
3271.000000	0.930589
3270.000000	0.930585
3269.000000	0.930592
3268.000000	0.930621
3267.000000	0.930669
3266.000000	0.930720
3265.000000	0.930760
3264.000000	0.930785
3263.000000	0.930801
3262.000000	0.930817
3261.000000	0.930840
3260.000000	0.930868
3259.000000	0.930897
3258.000000	0.930931
3257.000000	0.930973
3256.000000	0.931021
3255.000000	0.931059
3254.000000	0.931077
3253.000000	0.931083
3252.000000	0.931097
3251.000000	0.931130
3250.000000	0.931169
3249.000000	0.931194
3248.000000	0.931201
3247.000000	0.931202
3246.000000	0.931209
3245.000000	0.931221
3244.000000	0.931234
3243.000000	0.931244
3242.000000	0.931248
3241.000000	0.931243
3240.000000	0.931236
3239.000000	0.931236
3238.000000	0.931251
3237.000000	0.931276
3236.000000	0.931299
3235.000000	0.931314
3234.000000	0.931318
3233.000000	0.931313
3232.000000	0.931310
3231.000000	0.931322
3230.000000	0.931356
3229.000000	0.931398
3228.000000	0.931430
3227.000000	0.931444
3226.000000	0.931453
3225.000000	0.931468
3224.000000	0.931488
3223.000000	0.931507
3222.000000	0.931528
3221.000000	0.931557
3220.000000	0.931593
3219.000000	0.931625
3218.000000	0.931641
3217.000000	0.931643
3216.000000	0.931640
3215.000000	0.931640
3214.000000	0.931644
3213.000000	0.931647
3212.000000	0.931646
3211.000000	0.931651
3210.000000	0.931670
3209.000000	0.931696
3208.000000	0.931715
3207.000000	0.931715
3206.000000	0.931700
3205.000000	0.931683
3204.000000	0.931671
3203.000000	0.931663
3202.000000	0.931656
3201.000000	0.931652
3200.000000	0.931649
3199.000000	0.931643
3198.000000	0.931635
3197.000000	0.931634
3196.000000	0.931649
3195.000000	0.931672
3194.000000	0.931688
3193.000000	0.931689
3192.000000	0.931682
3191.000000	0.931682
3190.000000	0.931690
3189.000000	0.931695
3188.000000	0.931691
3187.000000	0.931682
3186.000000	0.931679
3185.000000	0.931688
3184.000000	0.931705
3183.000000	0.931722
3182.000000	0.931733
3181.000000	0.931735
3180.000000	0.931730
3179.000000	0.931721
3178.000000	0.931711
3177.000000	0.931704
3176.000000	0.931711
3175.000000	0.931737
3174.000000	0.931773
3173.000000	0.931800
3172.000000	0.931804
3171.000000	0.931789
3170.000000	0.931769
3169.000000	0.931757
3168.000000	0.931760
3167.000000	0.931777
3166.000000	0.931803
3165.000000	0.931830
3164.000000	0.931853
3163.000000	0.931869
3162.000000	0.931883
3161.000000	0.931896
3160.000000	0.931907
3159.000000	0.931917
3158.000000	0.931918
3157.000000	0.931906
3156.000000	0.931888
3155.000000	0.931879
3154.000000	0.931892
3153.000000	0.931921
3152.000000	0.931946
3151.000000	0.931953
3150.000000	0.931941
3149.000000	0.931923
3148.000000	0.931913
3147.000000	0.931920
3146.000000	0.931942
3145.000000	0.931969
3144.000000	0.931989
3143.000000	0.931996
3142.000000	0.931995
3141.000000	0.931987
3140.000000	0.931971
3139.000000	0.931946
3138.000000	0.931922
3137.000000	0.931908
3136.000000	0.931903
3135.000000	0.931904
3134.000000	0.931911
3133.000000	0.931934
3132.000000	0.931974
3131.000000	0.932022
3130.000000	0.932062
3129.000000	0.932086
3128.000000	0.932088
3127.000000	0.932072
3126.000000	0.932047
3125.000000	0.932025
3124.000000	0.932014
3123.000000	0.932012
3122.000000	0.932013
3121.000000	0.932015
3120.000000	0.932017
3119.000000	0.932019
3118.000000	0.932020
3117.000000	0.932021
3116.000000	0.932025
3115.000000	0.932032
3114.000000	0.932039
3113.000000	0.932039
3112.000000	0.932031
3111.000000	0.932012
3110.000000	0.931987
3109.000000	0.931963
3108.000000	0.931950
3107.000000	0.931958
3106.000000	0.931980
3105.000000	0.931994
3104.000000	0.931983
3103.000000	0.931947
3102.000000	0.931905
3101.000000	0.931869
3100.000000	0.931838
3099.000000	0.931804
3098.000000	0.931766
3097.000000	0.931730
3096.000000	0.931701
3095.000000	0.931682
3094.000000	0.931675
3093.000000	0.931677
3092.000000	0.931677
3091.000000	0.931660
3090.000000	0.931615
3089.000000	0.931550
3088.000000	0.931476
3087.000000	0.931404
3086.000000	0.931344
3085.000000	0.931303
3084.000000	0.931281
3083.000000	0.931272
3082.000000	0.931264
3081.000000	0.931250
3080.000000	0.931229
3079.000000	0.931203
3078.000000	0.931172
3077.000000	0.931135
3076.000000	0.931097
3075.000000	0.931062
3074.000000	0.931030
3073.000000	0.930995
3072.000000	0.930956
3071.000000	0.930916
3070.000000	0.930881
3069.000000	0.930851
3068.000000	0.930824
3067.000000	0.930796
3066.000000	0.930764
3065.000000	0.930730
3064.000000	0.930700
3063.000000	0.930679
3062.000000	0.930667
3061.000000	0.930654
3060.000000	0.930631
3059.000000	0.930594
3058.000000	0.930544
3057.000000	0.930481
3056.000000	0.930403
3055.000000	0.930320
3054.000000	0.930244
3053.000000	0.930184
3052.000000	0.930138
3051.000000	0.930100
3050.000000	0.930066
3049.000000	0.930034
3048.000000	0.930001
3047.000000	0.929964
3046.000000	0.929923
3045.000000	0.929883
3044.000000	0.929848
3043.000000	0.929814
3042.000000	0.929778
3041.000000	0.929738
3040.000000	0.929695
3039.000000	0.929653
3038.000000	0.929616
3037.000000	0.929584
3036.000000	0.929558
3035.000000	0.929537
3034.000000	0.929517
3033.000000	0.929493
3032.000000	0.929464
3031.000000	0.929433
3030.000000	0.929407
3029.000000	0.929389
3028.000000	0.929378
3027.000000	0.929367
3026.000000	0.929350
3025.000000	0.929328
3024.000000	0.929300
3023.000000	0.929266
3022.000000	0.929223
3021.000000	0.929169
3020.000000	0.929103
3019.000000	0.929032
3018.000000	0.928964
3017.000000	0.928908
3016.000000	0.928865
3015.000000	0.928831
3014.000000	0.928795
3013.000000	0.928749
3012.000000	0.928691
3011.000000	0.928632
3010.000000	0.928583
3009.000000	0.928544
3008.000000	0.928509
3007.000000	0.928472
3006.000000	0.928438
3005.000000	0.928409
3004.000000	0.928378
3003.000000	0.928334
3002.000000	0.928274
3001.000000	0.928208
3000.000000	0.928148
2999.000000	0.928095
2998.000000	0.928043
2997.000000	0.927983
2996.000000	0.927919
2995.000000	0.927855
2994.000000	0.927800
2993.000000	0.927757
2992.000000	0.927725
2991.000000	0.927699
2990.000000	0.927671
2989.000000	0.927639
2988.000000	0.927604
2987.000000	0.927571
2986.000000	0.927539
2985.000000	0.927510
2984.000000	0.927481
2983.000000	0.927452
2982.000000	0.927419
2981.000000	0.927378
2980.000000	0.927331
2979.000000	0.927290
2978.000000	0.927271
2977.000000	0.927273
2976.000000	0.927279
2975.000000	0.927271
2974.000000	0.927241
2973.000000	0.927199
2972.000000	0.927155
2971.000000	0.927113
2970.000000	0.927073
2969.000000	0.927030
2968.000000	0.926981
2967.000000	0.926922
2966.000000	0.926854
2965.000000	0.926780
2964.000000	0.926702
2963.000000	0.926621
2962.000000	0.926541
2961.000000	0.926466
2960.000000	0.926397
2959.000000	0.926327
2958.000000	0.926252
2957.000000	0.926175
2956.000000	0.926103
2955.000000	0.926037
2954.000000	0.925971
2953.000000	0.925907
2952.000000	0.925846
2951.000000	0.925790
2950.000000	0.925734
2949.000000	0.925672
2948.000000	0.925605
2947.000000	0.925542
2946.000000	0.925491
2945.000000	0.925453
2944.000000	0.925420
2943.000000	0.925384
2942.000000	0.925344
2941.000000	0.925299
2940.000000	0.925253
2939.000000	0.925204
2938.000000	0.925147
2937.000000	0.925076
2936.000000	0.924995
2935.000000	0.924918
2934.000000	0.924864
2933.000000	0.924834
2932.000000	0.924811
2931.000000	0.924772
2930.000000	0.924711
2929.000000	0.924635
2928.000000	0.924557
2927.000000	0.924483
2926.000000	0.924407
2925.000000	0.924318
2924.000000	0.924207
2923.000000	0.924071
2922.000000	0.923926
2921.000000	0.923794
2920.000000	0.923691
2919.000000	0.923614
2918.000000	0.923544
2917.000000	0.923468
2916.000000	0.923390
2915.000000	0.923321
2914.000000	0.923265
2913.000000	0.923217
2912.000000	0.923169
2911.000000	0.923120
2910.000000	0.923071
2909.000000	0.923018
2908.000000	0.922951
2907.000000	0.922867
2906.000000	0.922779
2905.000000	0.922706
2904.000000	0.922654
2903.000000	0.922617
2902.000000	0.922582
2901.000000	0.922540
2900.000000	0.922483
2899.000000	0.922412
2898.000000	0.922332
2897.000000	0.922251
2896.000000	0.922175
2895.000000	0.922109
2894.000000	0.922053
2893.000000	0.921999
2892.000000	0.921936
2891.000000	0.921853
2890.000000	0.921756
2889.000000	0.921662
2888.000000	0.921589
2887.000000	0.921540
2886.000000	0.921504
2885.000000	0.921468
2884.000000	0.921420
2883.000000	0.921352
2882.000000	0.921270
2881.000000	0.921185
2880.000000	0.921108
2879.000000	0.921037
2878.000000	0.920964
2877.000000	0.920882
2876.000000	0.920794
2875.000000	0.920712
2874.000000	0.920641
2873.000000	0.920578
2872.000000	0.920518
2871.000000	0.920453
2870.000000	0.920386
2869.000000	0.920323
2868.000000	0.920269
2867.000000	0.920222
2866.000000	0.920168
2865.000000	0.920095
2864.000000	0.919999
2863.000000	0.919892
2862.000000	0.919786
2861.000000	0.919685
2860.000000	0.919585
2859.000000	0.919486
2858.000000	0.919388
2857.000000	0.919297
2856.000000	0.919214
2855.000000	0.919141
2854.000000	0.919083
2853.000000	0.919036
2852.000000	0.918992
2851.000000	0.918941
2850.000000	0.918880
2849.000000	0.918816
2848.000000	0.918763
2847.000000	0.918729
2846.000000	0.918707
2845.000000	0.918681
2844.000000	0.918642
2843.000000	0.918596
2842.000000	0.918552
2841.000000	0.918513
2840.000000	0.918468
2839.000000	0.918411
2838.000000	0.918347
2837.000000	0.918289
2836.000000	0.918243
2835.000000	0.918203
2834.000000	0.918160
2833.000000	0.918110
2832.000000	0.918058
2831.000000	0.918009
2830.000000	0.917967
2829.000000	0.917933
2828.000000	0.917898
2827.000000	0.917851
2826.000000	0.917787
2825.000000	0.917714
2824.000000	0.917644
2823.000000	0.917584
2822.000000	0.917532
2821.000000	0.917485
2820.000000	0.917446
2819.000000	0.917417
2818.000000	0.917388
2817.000000	0.917342
2816.000000	0.917274
2815.000000	0.917202
2814.000000	0.917149
2813.000000	0.917117
2812.000000	0.917086
2811.000000	0.917042
2810.000000	0.916992
2809.000000	0.916953
2808.000000	0.916927
2807.000000	0.916895
2806.000000	0.916843
2805.000000	0.916779
2804.000000	0.916724
2803.000000	0.916690
2802.000000	0.916674
2801.000000	0.916659
2800.000000	0.916631
2799.000000	0.916588
2798.000000	0.916535
2797.000000	0.916482
2796.000000	0.916438
2795.000000	0.916404
2794.000000	0.916377
2793.000000	0.916348
2792.000000	0.916311
2791.000000	0.916269
2790.000000	0.916230
2789.000000	0.916202
2788.000000	0.916183
2787.000000	0.916162
2786.000000	0.916132
2785.000000	0.916092
2784.000000	0.916046
2783.000000	0.916007
2782.000000	0.915981
2781.000000	0.915966
2780.000000	0.915949
2779.000000	0.915922
2778.000000	0.915890
2777.000000	0.915864
2776.000000	0.915845
2775.000000	0.915826
2774.000000	0.915799
2773.000000	0.915767
2772.000000	0.915735
2771.000000	0.915704
2770.000000	0.915672
2769.000000	0.915641
2768.000000	0.915610
2767.000000	0.915576
2766.000000	0.915537
2765.000000	0.915497
2764.000000	0.915462
2763.000000	0.915438
2762.000000	0.915423
2761.000000	0.915413
2760.000000	0.915402
2759.000000	0.915385
2758.000000	0.915360
2757.000000	0.915331
2756.000000	0.915303
2755.000000	0.915280
2754.000000	0.915265
2753.000000	0.915258
2752.000000	0.915251
2751.000000	0.915236
2750.000000	0.915212
2749.000000	0.915185
2748.000000	0.915158
2747.000000	0.915127
2746.000000	0.915092
2745.000000	0.915064
2744.000000	0.915059
2743.000000	0.915076
2742.000000	0.915097
2741.000000	0.915105
2740.000000	0.915096
2739.000000	0.915075
2738.000000	0.915052
2737.000000	0.915033
2736.000000	0.915023
2735.000000	0.915019
2734.000000	0.915014
2733.000000	0.914996
2732.000000	0.914965
2731.000000	0.914927
2730.000000	0.914893
2729.000000	0.914871
2728.000000	0.914866
2727.000000	0.914871
2726.000000	0.914875
2725.000000	0.914868
2724.000000	0.914850
2723.000000	0.914834
2722.000000	0.914829
2721.000000	0.914832
2720.000000	0.914834
2719.000000	0.914828
2718.000000	0.914818
2717.000000	0.914812
2716.000000	0.914819
2715.000000	0.914837
2714.000000	0.914858
2713.000000	0.914873
2712.000000	0.914877
2711.000000	0.914873
2710.000000	0.914865
2709.000000	0.914859
2708.000000	0.914861
2707.000000	0.914871
2706.000000	0.914888
2705.000000	0.914902
2704.000000	0.914906
2703.000000	0.914898
2702.000000	0.914880
2701.000000	0.914855
2700.000000	0.914832
2699.000000	0.914819
2698.000000	0.914818
2697.000000	0.914822
2696.000000	0.914825
2695.000000	0.914824
2694.000000	0.914823
2693.000000	0.914824
2692.000000	0.914824
2691.000000	0.914824
2690.000000	0.914823
2689.000000	0.914820
2688.000000	0.914813
2687.000000	0.914807
2686.000000	0.914813
2685.000000	0.914840
2684.000000	0.914883
2683.000000	0.914923
2682.000000	0.914945
2681.000000	0.914948
2680.000000	0.914941
2679.000000	0.914938
2678.000000	0.914945
2677.000000	0.914958
2676.000000	0.914973
2675.000000	0.914984
2674.000000	0.914995
2673.000000	0.915012
2672.000000	0.915036
2671.000000	0.915066
2670.000000	0.915097
2669.000000	0.915129
2668.000000	0.915160
2667.000000	0.915184
2666.000000	0.915197
2665.000000	0.915201
2664.000000	0.915203
2663.000000	0.915206
2662.000000	0.915213
2661.000000	0.915223
2660.000000	0.915236
2659.000000	0.915254
2658.000000	0.915280
2657.000000	0.915316
2656.000000	0.915365
2655.000000	0.915417
2654.000000	0.915460
2653.000000	0.915484
2652.000000	0.915492
2651.000000	0.915494
2650.000000	0.915501
2649.000000	0.915518
2648.000000	0.915544
2647.000000	0.915571
2646.000000	0.915595
2645.000000	0.915609
2644.000000	0.915617
2643.000000	0.915626
2642.000000	0.915643
2641.000000	0.915667
2640.000000	0.915693
2639.000000	0.915720
2638.000000	0.915751
2637.000000	0.915793
2636.000000	0.915837
2635.000000	0.915876
2634.000000	0.915904
2633.000000	0.915928
2632.000000	0.915958
2631.000000	0.915994
2630.000000	0.916031
2629.000000	0.916064
2628.000000	0.916087
2627.000000	0.916102
2626.000000	0.916118
2625.000000	0.916145
2624.000000	0.916184
2623.000000	0.916222
2622.000000	0.916246
2621.000000	0.916258
2620.000000	0.916280
2619.000000	0.916323
2618.000000	0.916382
2617.000000	0.916438
2616.000000	0.916480
2615.000000	0.916511
2614.000000	0.916533
2613.000000	0.916551
2612.000000	0.916569
2611.000000	0.916595
2610.000000	0.916631
2609.000000	0.916671
2608.000000	0.916700
2607.000000	0.916712
2606.000000	0.916715
2605.000000	0.916721
2604.000000	0.916745
2603.000000	0.916788
2602.000000	0.916843
2601.000000	0.916895
2600.000000	0.916937
2599.000000	0.916966
2598.000000	0.916984
2597.000000	0.916996
2596.000000	0.917012
2595.000000	0.917042
2594.000000	0.917081
2593.000000	0.917117
2592.000000	0.917141
2591.000000	0.917162
2590.000000	0.917195
2589.000000	0.917246
2588.000000	0.917304
2587.000000	0.917358
2586.000000	0.917399
2585.000000	0.917431
2584.000000	0.917454
2583.000000	0.917473
2582.000000	0.917487
2581.000000	0.917502
2580.000000	0.917526
2579.000000	0.917562
2578.000000	0.917605
2577.000000	0.917646
2576.000000	0.917686
2575.000000	0.917735
2574.000000	0.917795
2573.000000	0.917855
2572.000000	0.917901
2571.000000	0.917932
2570.000000	0.917962
2569.000000	0.918003
2568.000000	0.918048
2567.000000	0.918084
2566.000000	0.918105
2565.000000	0.918120
2564.000000	0.918141
2563.000000	0.918171
2562.000000	0.918205
2561.000000	0.918240
2560.000000	0.918280
2559.000000	0.918324
2558.000000	0.918365
2557.000000	0.918398
2556.000000	0.918426
2555.000000	0.918461
2554.000000	0.918505
2553.000000	0.918554
2552.000000	0.918602
2551.000000	0.918645
2550.000000	0.918684
2549.000000	0.918718
2548.000000	0.918750
2547.000000	0.918785
2546.000000	0.918824
2545.000000	0.918868
2544.000000	0.918916
2543.000000	0.918970
2542.000000	0.919028
2541.000000	0.919078
2540.000000	0.919114
2539.000000	0.919145
2538.000000	0.919183
2537.000000	0.919228
2536.000000	0.919272
2535.000000	0.919311
2534.000000	0.919352
2533.000000	0.919400
2532.000000	0.919452
2531.000000	0.919501
2530.000000	0.919543
2529.000000	0.919586
2528.000000	0.919636
2527.000000	0.919698
2526.000000	0.919771
2525.000000	0.919847
2524.000000	0.919912
2523.000000	0.919958
2522.000000	0.919990
2521.000000	0.920021
2520.000000	0.920059
2519.000000	0.920099
2518.000000	0.920136
2517.000000	0.920170
2516.000000	0.920209
2515.000000	0.920255
2514.000000	0.920304
2513.000000	0.920350
2512.000000	0.920392
2511.000000	0.920431
2510.000000	0.920470
2509.000000	0.920507
2508.000000	0.920545
2507.000000	0.920590
2506.000000	0.920642
2505.000000	0.920691
2504.000000	0.920725
2503.000000	0.920744
2502.000000	0.920763
2501.000000	0.920796
2500.000000	0.920842
2499.000000	0.920889
2498.000000	0.920935
2497.000000	0.920989
2496.000000	0.921060
2495.000000	0.921138
2494.000000	0.921203
2493.000000	0.921248
2492.000000	0.921283
2491.000000	0.921320
2490.000000	0.921364
2489.000000	0.921405
2488.000000	0.921435
2487.000000	0.921460
2486.000000	0.921488
2485.000000	0.921527
2484.000000	0.921576
2483.000000	0.921628
2482.000000	0.921675
2481.000000	0.921714
2480.000000	0.921744
2479.000000	0.921765
2478.000000	0.921777
2477.000000	0.921781
2476.000000	0.921787
2475.000000	0.921810
2474.000000	0.921852
2473.000000	0.921905
2472.000000	0.921953
2471.000000	0.921988
2470.000000	0.922016
2469.000000	0.922043
2468.000000	0.922072
2467.000000	0.922097
2466.000000	0.922113
2465.000000	0.922118
2464.000000	0.922116
2463.000000	0.922119
2462.000000	0.922132
2461.000000	0.922155
2460.000000	0.922182
2459.000000	0.922206
2458.000000	0.922226
2457.000000	0.922246
2456.000000	0.922272
2455.000000	0.922303
2454.000000	0.922332
2453.000000	0.922349
2452.000000	0.922350
2451.000000	0.922342
2450.000000	0.922329
2449.000000	0.922317
2448.000000	0.922308
2447.000000	0.922307
2446.000000	0.922318
2445.000000	0.922344
2444.000000	0.922377
2443.000000	0.922411
2442.000000	0.922436
2441.000000	0.922444
2440.000000	0.922436
2439.000000	0.922421
2438.000000	0.922405
2437.000000	0.922387
2436.000000	0.922364
2435.000000	0.922342
2434.000000	0.922326
2433.000000	0.922315
2432.000000	0.922306
2431.000000	0.922300
2430.000000	0.922300
2429.000000	0.922302
2428.000000	0.922295
2427.000000	0.922277
2426.000000	0.922255
2425.000000	0.922235
2424.000000	0.922212
2423.000000	0.922178
2422.000000	0.922140
2421.000000	0.922108
2420.000000	0.922083
2419.000000	0.922054
2418.000000	0.922013
2417.000000	0.921964
2416.000000	0.921917
2415.000000	0.921879
2414.000000	0.921854
2413.000000	0.921837
2412.000000	0.921823
2411.000000	0.921806
2410.000000	0.921782
2409.000000	0.921753
2408.000000	0.921723
2407.000000	0.921703
2406.000000	0.921691
2405.000000	0.921680
2404.000000	0.921661
2403.000000	0.921633
2402.000000	0.921604
2401.000000	0.921583
2400.000000	0.921573
2399.000000	0.921567
2398.000000	0.921559
2397.000000	0.921549
2396.000000	0.921542
2395.000000	0.921540
2394.000000	0.921544
2393.000000	0.921550
2392.000000	0.921554
2391.000000	0.921554
2390.000000	0.921547
2389.000000	0.921531
2388.000000	0.921507
2387.000000	0.921480
2386.000000	0.921455
2385.000000	0.921428
2384.000000	0.921396
2383.000000	0.921358
2382.000000	0.921321
2381.000000	0.921285
2380.000000	0.921240
2379.000000	0.921173
2378.000000	0.921075
2377.000000	0.920951
2376.000000	0.920808
2375.000000	0.920653
2374.000000	0.920490
2373.000000	0.920323
2372.000000	0.920155
2371.000000	0.919992
2370.000000	0.919835
2369.000000	0.919680
2368.000000	0.919522
2367.000000	0.919362
2366.000000	0.919208
2365.000000	0.919073
2364.000000	0.918973
2363.000000	0.918915
2362.000000	0.918902
2361.000000	0.918927
2360.000000	0.918982
2359.000000	0.919061
2358.000000	0.919158
2357.000000	0.919275
2356.000000	0.919423
2355.000000	0.919618
2354.000000	0.919866
2353.000000	0.920151
2352.000000	0.920448
2351.000000	0.920730
2350.000000	0.920975
2349.000000	0.921171
2348.000000	0.921322
2347.000000	0.921460
2346.000000	0.921640
2345.000000	0.921906
2344.000000	0.922266
2343.000000	0.922678
2342.000000	0.923049
2341.000000	0.923261
2340.000000	0.923214
2339.000000	0.922892
2338.000000	0.922379
2337.000000	0.921816
2336.000000	0.921328
2335.000000	0.920972
2334.000000	0.920743
2333.000000	0.920613
2332.000000	0.920557
2331.000000	0.920556
2330.000000	0.920592
2329.000000	0.920644
2328.000000	0.920697
2327.000000	0.920752
2326.000000	0.920813
2325.000000	0.920881
2324.000000	0.920957
2323.000000	0.921045
2322.000000	0.921146
2321.000000	0.921256
2320.000000	0.921363
2319.000000	0.921460
2318.000000	0.921546
2317.000000	0.921620
2316.000000	0.921682
2315.000000	0.921739
2314.000000	0.921798
2313.000000	0.921860
2312.000000	0.921919
2311.000000	0.921973
2310.000000	0.922025
2309.000000	0.922078
2308.000000	0.922130
2307.000000	0.922182
2306.000000	0.922238
2305.000000	0.922296
2304.000000	0.922347
2303.000000	0.922385
2302.000000	0.922408
2301.000000	0.922422
2300.000000	0.922429
2299.000000	0.922432
2298.000000	0.922440
2297.000000	0.922458
2296.000000	0.922486
2295.000000	0.922521
2294.000000	0.922561
2293.000000	0.922599
2292.000000	0.922625
2291.000000	0.922641
2290.000000	0.922655
2289.000000	0.922675
2288.000000	0.922693
2287.000000	0.922706
2286.000000	0.922718
2285.000000	0.922738
2284.000000	0.922761
2283.000000	0.922777
2282.000000	0.922788
2281.000000	0.922799
2280.000000	0.922814
2279.000000	0.922828
2278.000000	0.922840
2277.000000	0.922855
2276.000000	0.922872
2275.000000	0.922888
2274.000000	0.922903
2273.000000	0.922919
2272.000000	0.922929
2271.000000	0.922928
2270.000000	0.922917
2269.000000	0.922913
2268.000000	0.922926
2267.000000	0.922950
2266.000000	0.922978
2265.000000	0.923005
2264.000000	0.923035
2263.000000	0.923067
2262.000000	0.923092
2261.000000	0.923106
2260.000000	0.923106
2259.000000	0.923104
2258.000000	0.923114
2257.000000	0.923141
2256.000000	0.923177
2255.000000	0.923203
2254.000000	0.923215
2253.000000	0.923216
2252.000000	0.923215
2251.000000	0.923214
2250.000000	0.923216
2249.000000	0.923228
2248.000000	0.923254
2247.000000	0.923288
2246.000000	0.923319
2245.000000	0.923336
2244.000000	0.923336
2243.000000	0.923326
2242.000000	0.923319
2241.000000	0.923324
2240.000000	0.923338
2239.000000	0.923351
2238.000000	0.923355
2237.000000	0.923351
2236.000000	0.923344
2235.000000	0.923331
2234.000000	0.923312
2233.000000	0.923296
2232.000000	0.923296
2231.000000	0.923314
2230.000000	0.923338
2229.000000	0.923354
2228.000000	0.923356
2227.000000	0.923346
2226.000000	0.923334
2225.000000	0.923327
2224.000000	0.923329
2223.000000	0.923336
2222.000000	0.923345
2221.000000	0.923353
2220.000000	0.923357
2219.000000	0.923358
2218.000000	0.923355
2217.000000	0.923352
2216.000000	0.923353
2215.000000	0.923358
2214.000000	0.923368
2213.000000	0.923376
2212.000000	0.923378
2211.000000	0.923370
2210.000000	0.923354
2209.000000	0.923340
2208.000000	0.923336
2207.000000	0.923347
2206.000000	0.923368
2205.000000	0.923388
2204.000000	0.923392
2203.000000	0.923379
2202.000000	0.923355
2201.000000	0.923330
2200.000000	0.923305
2199.000000	0.923274
2198.000000	0.923240
2197.000000	0.923212
2196.000000	0.923202
2195.000000	0.923203
2194.000000	0.923196
2193.000000	0.923167
2192.000000	0.923126
2191.000000	0.923092
2190.000000	0.923076
2189.000000	0.923070
2188.000000	0.923064
2187.000000	0.923055
2186.000000	0.923046
2185.000000	0.923039
2184.000000	0.923032
2183.000000	0.923026
2182.000000	0.923016
2181.000000	0.922999
2180.000000	0.922971
2179.000000	0.922938
2178.000000	0.922908
2177.000000	0.922882
2176.000000	0.922857
2175.000000	0.922832
2174.000000	0.922812
2173.000000	0.922803
2172.000000	0.922804
2171.000000	0.922808
2170.000000	0.922808
2169.000000	0.922799
2168.000000	0.922777
2167.000000	0.922741
2166.000000	0.922695
2165.000000	0.922646
2164.000000	0.922601
2163.000000	0.922565
2162.000000	0.922538
2161.000000	0.922514
2160.000000	0.922487
2159.000000	0.922455
2158.000000	0.922421
2157.000000	0.922390
2156.000000	0.922360
2155.000000	0.922331
2154.000000	0.922307
2153.000000	0.922289
2152.000000	0.922271
2151.000000	0.922245
2150.000000	0.922204
2149.000000	0.922145
2148.000000	0.922074
2147.000000	0.922005
2146.000000	0.921952
2145.000000	0.921916
2144.000000	0.921885
2143.000000	0.921853
2142.000000	0.921823
2141.000000	0.921800
2140.000000	0.921777
2139.000000	0.921741
2138.000000	0.921689
2137.000000	0.921632
2136.000000	0.921584
2135.000000	0.921550
2134.000000	0.921526
2133.000000	0.921502
2132.000000	0.921470
2131.000000	0.921428
2130.000000	0.921383
2129.000000	0.921344
2128.000000	0.921309
2127.000000	0.921273
2126.000000	0.921232
2125.000000	0.921185
2124.000000	0.921132
2123.000000	0.921076
2122.000000	0.921018
2121.000000	0.920962
2120.000000	0.920902
2119.000000	0.920838
2118.000000	0.920776
2117.000000	0.920725
2116.000000	0.920688
2115.000000	0.920659
2114.000000	0.920637
2113.000000	0.920615
2112.000000	0.920586
2111.000000	0.920540
2110.000000	0.920473
2109.000000	0.920396
2108.000000	0.920321
2107.000000	0.920250
2106.000000	0.920181
2105.000000	0.920111
2104.000000	0.920041
2103.000000	0.919977
2102.000000	0.919922
2101.000000	0.919878
2100.000000	0.919842
2099.000000	0.919804
2098.000000	0.919757
2097.000000	0.919699
2096.000000	0.919636
2095.000000	0.919574
2094.000000	0.919516
2093.000000	0.919457
2092.000000	0.919397
2091.000000	0.919336
2090.000000	0.919280
2089.000000	0.919230
2088.000000	0.919184
2087.000000	0.919136
2086.000000	0.919086
2085.000000	0.919034
2084.000000	0.918981
2083.000000	0.918924
2082.000000	0.918867
2081.000000	0.918814
2080.000000	0.918760
2079.000000	0.918701
2078.000000	0.918636
2077.000000	0.918571
2076.000000	0.918509
2075.000000	0.918455
2074.000000	0.918409
2073.000000	0.918363
2072.000000	0.918309
2071.000000	0.918247
2070.000000	0.918186
2069.000000	0.918136
2068.000000	0.918091
2067.000000	0.918036
2066.000000	0.917966
2065.000000	0.917892
2064.000000	0.917824
2063.000000	0.917767
2062.000000	0.917716
2061.000000	0.917664
2060.000000	0.917607
2059.000000	0.917541
2058.000000	0.917467
2057.000000	0.917387
2056.000000	0.917308
2055.000000	0.917236
2054.000000	0.917179
2053.000000	0.917137
2052.000000	0.917102
2051.000000	0.917063
2050.000000	0.917017
2049.000000	0.916964
2048.000000	0.916901
2047.000000	0.916824
2046.000000	0.916743
2045.000000	0.916674
2044.000000	0.916623
2043.000000	0.916582
2042.000000	0.916540
2041.000000	0.916492
2040.000000	0.916438
2039.000000	0.916376
2038.000000	0.916311
2037.000000	0.916252
2036.000000	0.916207
2035.000000	0.916174
2034.000000	0.916146
2033.000000	0.916118
2032.000000	0.916082
2031.000000	0.916031
2030.000000	0.915963
2029.000000	0.915888
2028.000000	0.915813
2027.000000	0.915746
2026.000000	0.915687
2025.000000	0.915635
2024.000000	0.915585
2023.000000	0.915536
2022.000000	0.915493
2021.000000	0.915460
2020.000000	0.915431
2019.000000	0.915397
2018.000000	0.915352
2017.000000	0.915299
2016.000000	0.915244
2015.000000	0.915183
2014.000000	0.915116
2013.000000	0.915046
2012.000000	0.914985
2011.000000	0.914940
2010.000000	0.914914
2009.000000	0.914900
2008.000000	0.914881
2007.000000	0.914840
2006.000000	0.914779
2005.000000	0.914714
2004.000000	0.914659
2003.000000	0.914615
2002.000000	0.914579
2001.000000	0.914548
2000.000000	0.914520
1999.000000	0.914495
1998.000000	0.914470
1997.000000	0.914445
1996.000000	0.914409
1995.000000	0.914353
1994.000000	0.914283
1993.000000	0.914218
1992.000000	0.914172
1991.000000	0.914146
1990.000000	0.914129
1989.000000	0.914115
1988.000000	0.914103
1987.000000	0.914087
1986.000000	0.914065
1985.000000	0.914035
1984.000000	0.913999
1983.000000	0.913954
1982.000000	0.913905
1981.000000	0.913867
1980.000000	0.913856
1979.000000	0.913861
1978.000000	0.913854
1977.000000	0.913818
1976.000000	0.913762
1975.000000	0.913707
1974.000000	0.913662
1973.000000	0.913620
1972.000000	0.913578
1971.000000	0.913540
1970.000000	0.913511
1969.000000	0.913483
1968.000000	0.913452
1967.000000	0.913425
1966.000000	0.913409
1965.000000	0.913402
1964.000000	0.913391
1963.000000	0.913375
1962.000000	0.913363
1961.000000	0.913355
1960.000000	0.913337
1959.000000	0.913302
1958.000000	0.913259
1957.000000	0.913227
1956.000000	0.913214
1955.000000	0.913213
1954.000000	0.913215
1953.000000	0.913212
1952.000000	0.913198
1951.000000	0.913169
1950.000000	0.913137
1949.000000	0.913118
1948.000000	0.913113
1947.000000	0.913107
1946.000000	0.913092
1945.000000	0.913067
1944.000000	0.913041
1943.000000	0.913024
1942.000000	0.913027
1941.000000	0.913052
1940.000000	0.913087
1939.000000	0.913114
1938.000000	0.913124
1937.000000	0.913121
1936.000000	0.913108
1935.000000	0.913088
1934.000000	0.913064
1933.000000	0.913048
1932.000000	0.913042
1931.000000	0.913037
1930.000000	0.913024
1929.000000	0.913005
1928.000000	0.912986
1927.000000	0.912972
1926.000000	0.912959
1925.000000	0.912939
1924.000000	0.912910
1923.000000	0.912882
1922.000000	0.912867
1921.000000	0.912866
1920.000000	0.912862
1919.000000	0.912843
1918.000000	0.912823
1917.000000	0.912833
1916.000000	0.912880
1915.000000	0.912935
1914.000000	0.912966
1913.000000	0.912962
1912.000000	0.912938
1911.000000	0.912914
1910.000000	0.912904
1909.000000	0.912912
1908.000000	0.912933
1907.000000	0.912956
1906.000000	0.912974
1905.000000	0.912987
1904.000000	0.912993
1903.000000	0.912990
1902.000000	0.912984
1901.000000	0.912986
1900.000000	0.913003
1899.000000	0.913025
1898.000000	0.913044
1897.000000	0.913058
1896.000000	0.913067
1895.000000	0.913069
1894.000000	0.913061
1893.000000	0.913049
1892.000000	0.913034
1891.000000	0.913015
1890.000000	0.913000
1889.000000	0.913005
1888.000000	0.913038
1887.000000	0.913085
1886.000000	0.913128
1885.000000	0.913156
1884.000000	0.913165
1883.000000	0.913152
1882.000000	0.913121
1881.000000	0.913090
1880.000000	0.913074
1879.000000	0.913071
1878.000000	0.913075
1877.000000	0.913086
1876.000000	0.913111
1875.000000	0.913144
1874.000000	0.913173
1873.000000	0.913183
1872.000000	0.913163
1871.000000	0.913113
1870.000000	0.913052
1869.000000	0.913014
1868.000000	0.913020
1867.000000	0.913062
1866.000000	0.913115
1865.000000	0.913161
1864.000000	0.913193
1863.000000	0.913207
1862.000000	0.913207
1861.000000	0.913209
1860.000000	0.913231
1859.000000	0.913271
1858.000000	0.913314
1857.000000	0.913350
1856.000000	0.913377
1855.000000	0.913400
1854.000000	0.913422
1853.000000	0.913442
1852.000000	0.913455
1851.000000	0.913457
1850.000000	0.913451
1849.000000	0.913449
1848.000000	0.913455
1847.000000	0.913447
1846.000000	0.913400
1845.000000	0.913329
1844.000000	0.913287
1843.000000	0.913320
1842.000000	0.913418
1841.000000	0.913521
1840.000000	0.913581
1839.000000	0.913592
1838.000000	0.913586
1837.000000	0.913592
1836.000000	0.913615
1835.000000	0.913651
1834.000000	0.913689
1833.000000	0.913714
1832.000000	0.913708
1831.000000	0.913671
1830.000000	0.913639
1829.000000	0.913651
1828.000000	0.913704
1827.000000	0.913755
1826.000000	0.913782
1825.000000	0.913806
1824.000000	0.913859
1823.000000	0.913940
1822.000000	0.914014
1821.000000	0.914061
1820.000000	0.914085
1819.000000	0.914104
1818.000000	0.914135
1817.000000	0.914186
1816.000000	0.914252
1815.000000	0.914313
1814.000000	0.914351
1813.000000	0.914367
1812.000000	0.914378
1811.000000	0.914400
1810.000000	0.914440
1809.000000	0.914499
1808.000000	0.914566
1807.000000	0.914626
1806.000000	0.914671
1805.000000	0.914710
1804.000000	0.914747
1803.000000	0.914772
1802.000000	0.914773
1801.000000	0.914761
1800.000000	0.914758
1799.000000	0.914772
1798.000000	0.914802
1797.000000	0.914840
1796.000000	0.914868
1795.000000	0.914858
1794.000000	0.914803
1793.000000	0.914743
1792.000000	0.914745
1791.000000	0.914837
1790.000000	0.914980
1789.000000	0.915106
1788.000000	0.915172
1787.000000	0.915182
1786.000000	0.915176
1785.000000	0.915196
1784.000000	0.915253
1783.000000	0.915324
1782.000000	0.915381
1781.000000	0.915425
1780.000000	0.915474
1779.000000	0.915533
1778.000000	0.915588
1777.000000	0.915624
1776.000000	0.915627
1775.000000	0.915580
1774.000000	0.915491
1773.000000	0.915417
1772.000000	0.915437
1771.000000	0.915571
1770.000000	0.915756
1769.000000	0.915912
1768.000000	0.916025
1767.000000	0.916132
1766.000000	0.916254
1765.000000	0.916361
1764.000000	0.916417
1763.000000	0.916427
1762.000000	0.916440
1761.000000	0.916496
1760.000000	0.916591
1759.000000	0.916681
1758.000000	0.916738
1757.000000	0.916786
1756.000000	0.916866
1755.000000	0.916978
1754.000000	0.917058
1753.000000	0.917055
1752.000000	0.917000
1751.000000	0.916979
1750.000000	0.917050
1749.000000	0.917187
1748.000000	0.917327
1747.000000	0.917432
1746.000000	0.917503
1745.000000	0.917556
1744.000000	0.917599
1743.000000	0.917630
1742.000000	0.917646
1741.000000	0.917653
1740.000000	0.917680
1739.000000	0.917755
1738.000000	0.917852
1737.000000	0.917875
1736.000000	0.917747
1735.000000	0.917523
1734.000000	0.917386
1733.000000	0.917476
1732.000000	0.917752
1731.000000	0.918052
1730.000000	0.918263
1729.000000	0.918389
1728.000000	0.918489
1727.000000	0.918585
1726.000000	0.918670
1725.000000	0.918736
1724.000000	0.918787
1723.000000	0.918829
1722.000000	0.918852
1721.000000	0.918826
1720.000000	0.918709
1719.000000	0.918503
1718.000000	0.918304
1717.000000	0.918250
1716.000000	0.918389
1715.000000	0.918634
1714.000000	0.918867
1713.000000	0.919041
1712.000000	0.919170
1711.000000	0.919259
1710.000000	0.919305
1709.000000	0.919322
1708.000000	0.919325
1707.000000	0.919298
1706.000000	0.919240
1705.000000	0.919194
1704.000000	0.919170
1703.000000	0.919091
1702.000000	0.918889
1701.000000	0.918646
1700.000000	0.918545
1699.000000	0.918636
1698.000000	0.918765
1697.000000	0.918778
1696.000000	0.918728
1695.000000	0.918781
1694.000000	0.918994
1693.000000	0.919250
1692.000000	0.919414
1691.000000	0.919470
1690.000000	0.919490
1689.000000	0.919510
1688.000000	0.919479
1687.000000	0.919312
1686.000000	0.919007
1685.000000	0.918713
1684.000000	0.918628
1683.000000	0.918818
1682.000000	0.919150
1681.000000	0.919432
1680.000000	0.919584
1679.000000	0.919634
1678.000000	0.919614
1677.000000	0.919528
1676.000000	0.919417
1675.000000	0.919372
1674.000000	0.919443
1673.000000	0.919564
1672.000000	0.919622
1671.000000	0.919579
1670.000000	0.919501
1669.000000	0.919487
1668.000000	0.919573
1667.000000	0.919718
1666.000000	0.919835
1665.000000	0.919863
1664.000000	0.919814
1663.000000	0.919765
1662.000000	0.919785
1661.000000	0.919876
1660.000000	0.919980
1659.000000	0.920052
1658.000000	0.920076
1657.000000	0.920012
1656.000000	0.919777
1655.000000	0.919338
1654.000000	0.918834
1653.000000	0.918550
1652.000000	0.918675
1651.000000	0.919104
1650.000000	0.919524
1649.000000	0.919699
1648.000000	0.919636
1647.000000	0.919513
1646.000000	0.919490
1645.000000	0.919599
1644.000000	0.919778
1643.000000	0.919943
1642.000000	0.920044
1641.000000	0.920083
1640.000000	0.920076
1639.000000	0.920016
1638.000000	0.919870
1637.000000	0.919658
1636.000000	0.919489
1635.000000	0.919488
1634.000000	0.919668
1633.000000	0.919918
1632.000000	0.920112
1631.000000	0.920204
1630.000000	0.920221
1629.000000	0.920208
1628.000000	0.920191
1627.000000	0.920173
1626.000000	0.920139
1625.000000	0.920074
1624.000000	0.919995
1623.000000	0.919954
1622.000000	0.919988
1621.000000	0.920064
1620.000000	0.920091
1619.000000	0.920001
1618.000000	0.919826
1617.000000	0.919699
1616.000000	0.919743
1615.000000	0.919963
1614.000000	0.920233
1613.000000	0.920407
1612.000000	0.920445
1611.000000	0.920409
1610.000000	0.920376
1609.000000	0.920373
1608.000000	0.920384
1607.000000	0.920396
1606.000000	0.920405
1605.000000	0.920408
1604.000000	0.920398
1603.000000	0.920375
1602.000000	0.920345
1601.000000	0.920314
1600.000000	0.920291
1599.000000	0.920281
1598.000000	0.920285
1597.000000	0.920294
1596.000000	0.920309
1595.000000	0.920337
1594.000000	0.920379
1593.000000	0.920422
1592.000000	0.920453
1591.000000	0.920467
1590.000000	0.920475
1589.000000	0.920487
1588.000000	0.920507
1587.000000	0.920530
1586.000000	0.920546
1585.000000	0.920544
1584.000000	0.920525
1583.000000	0.920502
1582.000000	0.920501
1581.000000	0.920526
1580.000000	0.920540
1579.000000	0.920469
1578.000000	0.920279
1577.000000	0.920047
1576.000000	0.919934
1575.000000	0.920035
1574.000000	0.920275
1573.000000	0.920470
1572.000000	0.920503
1571.000000	0.920414
1570.000000	0.920327
1569.000000	0.920327
1568.000000	0.920406
1567.000000	0.920502
1566.000000	0.920569
1565.000000	0.920598
1564.000000	0.920595
1563.000000	0.920519
1562.000000	0.920287
1561.000000	0.919874
1560.000000	0.919416
1559.000000	0.919155
1558.000000	0.919222
1557.000000	0.919506
1556.000000	0.919790
1555.000000	0.919965
1554.000000	0.920078
1553.000000	0.920192
1552.000000	0.920298
1551.000000	0.920359
1550.000000	0.920382
1549.000000	0.920401
1548.000000	0.920415
1547.000000	0.920390
1546.000000	0.920311
1545.000000	0.920196
1544.000000	0.920059
1543.000000	0.919884
1542.000000	0.919658
1541.000000	0.919426
1540.000000	0.919305
1539.000000	0.919407
1538.000000	0.919720
1537.000000	0.920079
1536.000000	0.920295
1535.000000	0.920313
1534.000000	0.920250
1533.000000	0.920251
1532.000000	0.920351
1531.000000	0.920476
1530.000000	0.920553
1529.000000	0.920567
1528.000000	0.920540
1527.000000	0.920496
1526.000000	0.920457
1525.000000	0.920417
1524.000000	0.920331
1523.000000	0.920165
1522.000000	0.919971
1521.000000	0.919872
1520.000000	0.919931
1519.000000	0.920083
1518.000000	0.920219
1517.000000	0.920305
1516.000000	0.920386
1515.000000	0.920482
1514.000000	0.920556
1513.000000	0.920569
1512.000000	0.920537
1511.000000	0.920484
1510.000000	0.920378
1509.000000	0.920158
1508.000000	0.919840
1507.000000	0.919567
1506.000000	0.919516
1505.000000	0.919745
1504.000000	0.920138
1503.000000	0.920509
1502.000000	0.920745
1501.000000	0.920847
1500.000000	0.920868
