PE IR       SUBTECH     SPECTRUM    ASCII       PEDS        4.00        
   -1
TE108B1_040.ASC
20/02/21
16:52:13.00
20/02/21
16:52:13.00
Administrator
Sample 040 By Administrator Date Friday, February 21 2020
1500.000000
#HDR
-1
-1
#GR
cm-1
A
1.0
0.0
4000.000000
-1.000000
2501
8
0.896237
0.872753
#DATA
4000.000000	0.883257
3999.000000	0.883242
3998.000000	0.883231
3997.000000	0.883223
3996.000000	0.883211
3995.000000	0.883198
3994.000000	0.883190
3993.000000	0.883190
3992.000000	0.883186
3991.000000	0.883168
3990.000000	0.883137
3989.000000	0.883108
3988.000000	0.883091
3987.000000	0.883083
3986.000000	0.883065
3985.000000	0.883021
3984.000000	0.882956
3983.000000	0.882888
3982.000000	0.882833
3981.000000	0.882797
3980.000000	0.882776
3979.000000	0.882761
3978.000000	0.882752
3977.000000	0.882749
3976.000000	0.882756
3975.000000	0.882775
3974.000000	0.882793
3973.000000	0.882795
3972.000000	0.882772
3971.000000	0.882731
3970.000000	0.882692
3969.000000	0.882666
3968.000000	0.882649
3967.000000	0.882623
3966.000000	0.882575
3965.000000	0.882504
3964.000000	0.882427
3963.000000	0.882360
3962.000000	0.882308
3961.000000	0.882264
3960.000000	0.882218
3959.000000	0.882173
3958.000000	0.882138
3957.000000	0.882123
3956.000000	0.882121
3955.000000	0.882120
3954.000000	0.882105
3953.000000	0.882075
3952.000000	0.882042
3951.000000	0.882015
3950.000000	0.881992
3949.000000	0.881964
3948.000000	0.881926
3947.000000	0.881882
3946.000000	0.881836
3945.000000	0.881786
3944.000000	0.881728
3943.000000	0.881665
3942.000000	0.881609
3941.000000	0.881572
3940.000000	0.881550
3939.000000	0.881530
3938.000000	0.881499
3937.000000	0.881456
3936.000000	0.881406
3935.000000	0.881358
3934.000000	0.881313
3933.000000	0.881275
3932.000000	0.881249
3931.000000	0.881240
3930.000000	0.881246
3929.000000	0.881256
3928.000000	0.881254
3927.000000	0.881231
3926.000000	0.881185
3925.000000	0.881125
3924.000000	0.881061
3923.000000	0.881001
3922.000000	0.880943
3921.000000	0.880876
3920.000000	0.880790
3919.000000	0.880692
3918.000000	0.880599
3917.000000	0.880534
3916.000000	0.880509
3915.000000	0.880515
3914.000000	0.880533
3913.000000	0.880542
3912.000000	0.880537
3911.000000	0.880524
3910.000000	0.880509
3909.000000	0.880484
3908.000000	0.880433
3907.000000	0.880341
3906.000000	0.880207
3905.000000	0.880049
3904.000000	0.879899
3903.000000	0.879785
3902.000000	0.879717
3901.000000	0.879686
3900.000000	0.879684
3899.000000	0.879708
3898.000000	0.879758
3897.000000	0.879823
3896.000000	0.879873
3895.000000	0.879873
3894.000000	0.879805
3893.000000	0.879683
3892.000000	0.879555
3891.000000	0.879472
3890.000000	0.879452
3889.000000	0.879463
3888.000000	0.879450
3887.000000	0.879381
3886.000000	0.879280
3885.000000	0.879203
3884.000000	0.879193
3883.000000	0.879240
3882.000000	0.879294
3881.000000	0.879316
3880.000000	0.879305
3879.000000	0.879290
3878.000000	0.879281
3877.000000	0.879260
3876.000000	0.879203
3875.000000	0.879100
3874.000000	0.878966
3873.000000	0.878811
3872.000000	0.878642
3871.000000	0.878475
3870.000000	0.878353
3869.000000	0.878322
3868.000000	0.878386
3867.000000	0.878490
3866.000000	0.878555
3865.000000	0.878544
3864.000000	0.878486
3863.000000	0.878451
3862.000000	0.878479
3861.000000	0.878556
3860.000000	0.878625
3859.000000	0.878617
3858.000000	0.878474
3857.000000	0.878161
3856.000000	0.877694
3855.000000	0.877166
3854.000000	0.876735
3853.000000	0.876556
3852.000000	0.876685
3851.000000	0.877039
3850.000000	0.877452
3849.000000	0.877772
3848.000000	0.877932
3847.000000	0.877956
3846.000000	0.877906
3845.000000	0.877835
3844.000000	0.877769
3843.000000	0.877707
3842.000000	0.877628
3841.000000	0.877496
3840.000000	0.877294
3839.000000	0.877053
3838.000000	0.876855
3837.000000	0.876780
3836.000000	0.876847
3835.000000	0.876994
3834.000000	0.877130
3833.000000	0.877199
3832.000000	0.877207
3831.000000	0.877190
3830.000000	0.877174
3829.000000	0.877157
3828.000000	0.877129
3827.000000	0.877098
3826.000000	0.877067
3825.000000	0.877015
3824.000000	0.876901
3823.000000	0.876712
3822.000000	0.876497
3821.000000	0.876341
3820.000000	0.876292
3819.000000	0.876310
3818.000000	0.876302
3817.000000	0.876219
3816.000000	0.876109
3815.000000	0.876071
3814.000000	0.876156
3813.000000	0.876320
3812.000000	0.876458
3811.000000	0.876485
3810.000000	0.876384
3809.000000	0.876194
3808.000000	0.875981
3807.000000	0.875812
3806.000000	0.875717
3805.000000	0.875671
3804.000000	0.875613
3803.000000	0.875502
3802.000000	0.875371
3801.000000	0.875309
3800.000000	0.875378
3799.000000	0.875550
3798.000000	0.875736
3797.000000	0.875860
3796.000000	0.875913
3795.000000	0.875938
3794.000000	0.875965
3793.000000	0.875992
3792.000000	0.875996
3791.000000	0.875971
3790.000000	0.875926
3789.000000	0.875871
3788.000000	0.875802
3787.000000	0.875713
3786.000000	0.875614
3785.000000	0.875523
3784.000000	0.875456
3783.000000	0.875409
3782.000000	0.875365
3781.000000	0.875314
3780.000000	0.875263
3779.000000	0.875232
3778.000000	0.875230
3777.000000	0.875250
3776.000000	0.875274
3775.000000	0.875287
3774.000000	0.875275
3773.000000	0.875224
3772.000000	0.875125
3771.000000	0.874991
3770.000000	0.874856
3769.000000	0.874760
3768.000000	0.874713
3767.000000	0.874699
3766.000000	0.874694
3765.000000	0.874685
3764.000000	0.874667
3763.000000	0.874632
3762.000000	0.874573
3761.000000	0.874496
3760.000000	0.874422
3759.000000	0.874373
3758.000000	0.874352
3757.000000	0.874334
3756.000000	0.874273
3755.000000	0.874124
3754.000000	0.873871
3753.000000	0.873552
3752.000000	0.873251
3751.000000	0.873059
3750.000000	0.873027
3749.000000	0.873120
3748.000000	0.873228
3747.000000	0.873229
3746.000000	0.873076
3745.000000	0.872860
3744.000000	0.872753
3743.000000	0.872874
3742.000000	0.873183
3741.000000	0.873508
3740.000000	0.873679
3739.000000	0.873640
3738.000000	0.873461
3737.000000	0.873262
3736.000000	0.873127
3735.000000	0.873083
3734.000000	0.873109
3733.000000	0.873182
3732.000000	0.873287
3731.000000	0.873419
3730.000000	0.873561
3729.000000	0.873676
3728.000000	0.873728
3727.000000	0.873712
3726.000000	0.873663
3725.000000	0.873622
3724.000000	0.873606
3723.000000	0.873604
3722.000000	0.873601
3721.000000	0.873597
3720.000000	0.873602
3719.000000	0.873623
3718.000000	0.873648
3717.000000	0.873657
3716.000000	0.873619
3715.000000	0.873517
3714.000000	0.873359
3713.000000	0.873187
3712.000000	0.873067
3711.000000	0.873053
3710.000000	0.873157
3709.000000	0.873342
3708.000000	0.873544
3707.000000	0.873706
3706.000000	0.873803
3705.000000	0.873836
3704.000000	0.873824
3703.000000	0.873795
3702.000000	0.873782
3701.000000	0.873813
3700.000000	0.873889
3699.000000	0.873978
3698.000000	0.874038
3697.000000	0.874053
3696.000000	0.874038
3695.000000	0.874019
3694.000000	0.873996
3693.000000	0.873941
3692.000000	0.873823
3691.000000	0.873640
3690.000000	0.873440
3689.000000	0.873306
3688.000000	0.873316
3687.000000	0.873494
3686.000000	0.873790
3685.000000	0.874109
3684.000000	0.874365
3683.000000	0.874524
3682.000000	0.874597
3681.000000	0.874603
3680.000000	0.874548
3679.000000	0.874425
3678.000000	0.874238
3677.000000	0.874030
3676.000000	0.873876
3675.000000	0.873838
3674.000000	0.873912
3673.000000	0.874028
3672.000000	0.874111
3671.000000	0.874157
3670.000000	0.874235
3669.000000	0.874415
3668.000000	0.874693
3667.000000	0.874996
3666.000000	0.875249
3665.000000	0.875426
3664.000000	0.875547
3663.000000	0.875639
3662.000000	0.875712
3661.000000	0.875766
3660.000000	0.875796
3659.000000	0.875800
3658.000000	0.875786
3657.000000	0.875780
3656.000000	0.875811
3655.000000	0.875882
3654.000000	0.875952
3653.000000	0.875958
3652.000000	0.875864
3651.000000	0.875702
3650.000000	0.875565
3649.000000	0.875551
3648.000000	0.875707
3647.000000	0.876001
3646.000000	0.876348
3645.000000	0.876660
3644.000000	0.876894
3643.000000	0.877060
3642.000000	0.877197
3641.000000	0.877331
3640.000000	0.877460
3639.000000	0.877564
3638.000000	0.877637
3637.000000	0.877687
3636.000000	0.877731
3635.000000	0.877775
3634.000000	0.877816
3633.000000	0.877830
3632.000000	0.877790
3631.000000	0.877684
3630.000000	0.877561
3629.000000	0.877517
3628.000000	0.877639
3627.000000	0.877931
3626.000000	0.878297
3625.000000	0.878620
3624.000000	0.878830
3623.000000	0.878928
3622.000000	0.878954
3621.000000	0.878952
3620.000000	0.878965
3619.000000	0.879032
3618.000000	0.879166
3617.000000	0.879345
3616.000000	0.879517
3615.000000	0.879644
3614.000000	0.879723
3613.000000	0.879776
3612.000000	0.879826
3611.000000	0.879876
3610.000000	0.879930
3609.000000	0.879999
3608.000000	0.880106
3607.000000	0.880260
3606.000000	0.880443
3605.000000	0.880625
3604.000000	0.880781
3603.000000	0.880904
3602.000000	0.880997
3601.000000	0.881073
3600.000000	0.881147
3599.000000	0.881232
3598.000000	0.881335
3597.000000	0.881446
3596.000000	0.881552
3595.000000	0.881644
3594.000000	0.881725
3593.000000	0.881795
3592.000000	0.881844
3591.000000	0.881860
3590.000000	0.881846
3589.000000	0.881829
3588.000000	0.881841
3587.000000	0.881901
3586.000000	0.882004
3585.000000	0.882124
3584.000000	0.882236
3583.000000	0.882333
3582.000000	0.882420
3581.000000	0.882505
3580.000000	0.882589
3579.000000	0.882667
3578.000000	0.882737
3577.000000	0.882802
3576.000000	0.882866
3575.000000	0.882929
3574.000000	0.882984
3573.000000	0.883029
3572.000000	0.883058
3571.000000	0.883066
3570.000000	0.883042
3569.000000	0.882990
3568.000000	0.882926
3567.000000	0.882881
3566.000000	0.882874
3565.000000	0.882911
3564.000000	0.882982
3563.000000	0.883074
3562.000000	0.883167
3561.000000	0.883242
3560.000000	0.883287
3559.000000	0.883308
3558.000000	0.883322
3557.000000	0.883346
3556.000000	0.883382
3555.000000	0.883420
3554.000000	0.883452
3553.000000	0.883480
3552.000000	0.883514
3551.000000	0.883557
3550.000000	0.883596
3549.000000	0.883608
3548.000000	0.883586
3547.000000	0.883546
3546.000000	0.883523
3545.000000	0.883538
3544.000000	0.883581
3543.000000	0.883619
3542.000000	0.883633
3541.000000	0.883629
3540.000000	0.883625
3539.000000	0.883633
3538.000000	0.883647
3537.000000	0.883665
3536.000000	0.883687
3535.000000	0.883722
3534.000000	0.883770
3533.000000	0.883822
3532.000000	0.883862
3531.000000	0.883884
3530.000000	0.883888
3529.000000	0.883887
3528.000000	0.883890
3527.000000	0.883900
3526.000000	0.883912
3525.000000	0.883925
3524.000000	0.883946
3523.000000	0.883985
3522.000000	0.884042
3521.000000	0.884097
3520.000000	0.884129
3519.000000	0.884133
3518.000000	0.884128
3517.000000	0.884137
3516.000000	0.884172
3515.000000	0.884225
3514.000000	0.884278
3513.000000	0.884322
3512.000000	0.884362
3511.000000	0.884417
3510.000000	0.884496
3509.000000	0.884587
3508.000000	0.884669
3507.000000	0.884733
3506.000000	0.884790
3505.000000	0.884857
3504.000000	0.884938
3503.000000	0.885021
3502.000000	0.885093
3501.000000	0.885153
3500.000000	0.885208
3499.000000	0.885267
3498.000000	0.885331
3497.000000	0.885392
3496.000000	0.885446
3495.000000	0.885497
3494.000000	0.885557
3493.000000	0.885633
3492.000000	0.885715
3491.000000	0.885788
3490.000000	0.885851
3489.000000	0.885919
3488.000000	0.886010
3487.000000	0.886124
3486.000000	0.886243
3485.000000	0.886343
3484.000000	0.886417
3483.000000	0.886476
3482.000000	0.886540
3481.000000	0.886621
3480.000000	0.886715
3479.000000	0.886813
3478.000000	0.886907
3477.000000	0.886996
3476.000000	0.887079
3475.000000	0.887154
3474.000000	0.887222
3473.000000	0.887293
3472.000000	0.887379
3471.000000	0.887481
3470.000000	0.887586
3469.000000	0.887688
3468.000000	0.887794
3467.000000	0.887918
3466.000000	0.888060
3465.000000	0.888199
3464.000000	0.888319
3463.000000	0.888420
3462.000000	0.888519
3461.000000	0.888630
3460.000000	0.888750
3459.000000	0.888866
3458.000000	0.888966
3457.000000	0.889051
3456.000000	0.889130
3455.000000	0.889217
3454.000000	0.889315
3453.000000	0.889421
3452.000000	0.889524
3451.000000	0.889621
3450.000000	0.889715
3449.000000	0.889809
3448.000000	0.889902
3447.000000	0.889995
3446.000000	0.890092
3445.000000	0.890199
3444.000000	0.890319
3443.000000	0.890453
3442.000000	0.890601
3441.000000	0.890751
3440.000000	0.890881
3439.000000	0.890974
3438.000000	0.891032
3437.000000	0.891072
3436.000000	0.891120
3435.000000	0.891190
3434.000000	0.891281
3433.000000	0.891379
3432.000000	0.891469
3431.000000	0.891543
3430.000000	0.891606
3429.000000	0.891672
3428.000000	0.891752
3427.000000	0.891851
3426.000000	0.891972
3425.000000	0.892109
3424.000000	0.892247
3423.000000	0.892368
3422.000000	0.892466
3421.000000	0.892553
3420.000000	0.892637
3419.000000	0.892718
3418.000000	0.892785
3417.000000	0.892834
3416.000000	0.892870
3415.000000	0.892906
3414.000000	0.892948
3413.000000	0.892998
3412.000000	0.893053
3411.000000	0.893109
3410.000000	0.893159
3409.000000	0.893206
3408.000000	0.893256
3407.000000	0.893311
3406.000000	0.893368
3405.000000	0.893419
3404.000000	0.893470
3403.000000	0.893532
3402.000000	0.893611
3401.000000	0.893696
3400.000000	0.893770
3399.000000	0.893827
3398.000000	0.893875
3397.000000	0.893925
3396.000000	0.893973
3395.000000	0.894006
3394.000000	0.894019
3393.000000	0.894019
3392.000000	0.894021
3391.000000	0.894037
3390.000000	0.894065
3389.000000	0.894093
3388.000000	0.894106
3387.000000	0.894105
3386.000000	0.894103
3385.000000	0.894120
3384.000000	0.894162
3383.000000	0.894217
3382.000000	0.894269
3381.000000	0.894301
3380.000000	0.894308
3379.000000	0.894301
3378.000000	0.894295
3377.000000	0.894303
3376.000000	0.894327
3375.000000	0.894358
3374.000000	0.894385
3373.000000	0.894402
3372.000000	0.894404
3371.000000	0.894394
3370.000000	0.894378
3369.000000	0.894365
3368.000000	0.894362
3367.000000	0.894372
3366.000000	0.894396
3365.000000	0.894427
3364.000000	0.894455
3363.000000	0.894474
3362.000000	0.894485
3361.000000	0.894493
3360.000000	0.894498
3359.000000	0.894492
3358.000000	0.894475
3357.000000	0.894460
3356.000000	0.894462
3355.000000	0.894485
3354.000000	0.894521
3353.000000	0.894555
3352.000000	0.894575
3351.000000	0.894583
3350.000000	0.894583
3349.000000	0.894584
3348.000000	0.894586
3347.000000	0.894579
3346.000000	0.894558
3345.000000	0.894523
3344.000000	0.894487
3343.000000	0.894458
3342.000000	0.894442
3341.000000	0.894440
3340.000000	0.894446
3339.000000	0.894450
3338.000000	0.894444
3337.000000	0.894432
3336.000000	0.894424
3335.000000	0.894427
3334.000000	0.894440
3333.000000	0.894460
3332.000000	0.894486
3331.000000	0.894515
3330.000000	0.894537
3329.000000	0.894545
3328.000000	0.894541
3327.000000	0.894536
3326.000000	0.894538
3325.000000	0.894545
3324.000000	0.894551
3323.000000	0.894557
3322.000000	0.894568
3321.000000	0.894582
3320.000000	0.894595
3319.000000	0.894605
3318.000000	0.894611
3317.000000	0.894610
3316.000000	0.894596
3315.000000	0.894570
3314.000000	0.894546
3313.000000	0.894543
3312.000000	0.894569
3311.000000	0.894609
3310.000000	0.894638
3309.000000	0.894643
3308.000000	0.894630
3307.000000	0.894618
3306.000000	0.894625
3305.000000	0.894656
3304.000000	0.894707
3303.000000	0.894764
3302.000000	0.894814
3301.000000	0.894846
3300.000000	0.894855
3299.000000	0.894843
3298.000000	0.894821
3297.000000	0.894803
3296.000000	0.894800
3295.000000	0.894804
3294.000000	0.894804
3293.000000	0.894796
3292.000000	0.894789
3291.000000	0.894798
3290.000000	0.894823
3289.000000	0.894853
3288.000000	0.894871
3287.000000	0.894876
3286.000000	0.894882
3285.000000	0.894906
3284.000000	0.894948
3283.000000	0.894988
3282.000000	0.895006
3281.000000	0.894992
3280.000000	0.894960
3279.000000	0.894930
3278.000000	0.894919
3277.000000	0.894934
3276.000000	0.894970
3275.000000	0.895012
3274.000000	0.895044
3273.000000	0.895061
3272.000000	0.895067
3271.000000	0.895072
3270.000000	0.895079
3269.000000	0.895087
3268.000000	0.895100
3267.000000	0.895125
3266.000000	0.895166
3265.000000	0.895212
3264.000000	0.895249
3263.000000	0.895273
3262.000000	0.895293
3261.000000	0.895315
3260.000000	0.895338
3259.000000	0.895353
3258.000000	0.895355
3257.000000	0.895349
3256.000000	0.895341
3255.000000	0.895336
3254.000000	0.895336
3253.000000	0.895342
3252.000000	0.895354
3251.000000	0.895370
3250.000000	0.895384
3249.000000	0.895397
3248.000000	0.895412
3247.000000	0.895431
3246.000000	0.895458
3245.000000	0.895496
3244.000000	0.895541
3243.000000	0.895588
3242.000000	0.895622
3241.000000	0.895636
3240.000000	0.895630
3239.000000	0.895619
3238.000000	0.895615
3237.000000	0.895620
3236.000000	0.895625
3235.000000	0.895616
3234.000000	0.895591
3233.000000	0.895557
3232.000000	0.895530
3231.000000	0.895523
3230.000000	0.895542
3229.000000	0.895579
3228.000000	0.895620
3227.000000	0.895656
3226.000000	0.895683
3225.000000	0.895705
3224.000000	0.895728
3223.000000	0.895758
3222.000000	0.895792
3221.000000	0.895821
3220.000000	0.895833
3219.000000	0.895825
3218.000000	0.895811
3217.000000	0.895805
3216.000000	0.895815
3215.000000	0.895837
3214.000000	0.895857
3213.000000	0.895864
3212.000000	0.895851
3211.000000	0.895824
3210.000000	0.895793
3209.000000	0.895763
3208.000000	0.895737
3207.000000	0.895716
3206.000000	0.895702
3205.000000	0.895697
3204.000000	0.895699
3203.000000	0.895702
3202.000000	0.895704
3201.000000	0.895705
3200.000000	0.895709
3199.000000	0.895722
3198.000000	0.895745
3197.000000	0.895768
3196.000000	0.895777
3195.000000	0.895767
3194.000000	0.895750
3193.000000	0.895746
3192.000000	0.895761
3191.000000	0.895783
3190.000000	0.895798
3189.000000	0.895797
3188.000000	0.895787
3187.000000	0.895775
3186.000000	0.895765
3185.000000	0.895756
3184.000000	0.895746
3183.000000	0.895739
3182.000000	0.895743
3181.000000	0.895763
3180.000000	0.895795
3179.000000	0.895826
3178.000000	0.895851
3177.000000	0.895868
3176.000000	0.895881
3175.000000	0.895887
3174.000000	0.895880
3173.000000	0.895858
3172.000000	0.895827
3171.000000	0.895801
3170.000000	0.895790
3169.000000	0.895795
3168.000000	0.895805
3167.000000	0.895807
3166.000000	0.895801
3165.000000	0.895796
3164.000000	0.895798
3163.000000	0.895807
3162.000000	0.895816
3161.000000	0.895818
3160.000000	0.895811
3159.000000	0.895808
3158.000000	0.895822
3157.000000	0.895862
3156.000000	0.895913
3155.000000	0.895950
3154.000000	0.895953
3153.000000	0.895928
3152.000000	0.895897
3151.000000	0.895883
3150.000000	0.895888
3149.000000	0.895905
3148.000000	0.895926
3147.000000	0.895946
3146.000000	0.895961
3145.000000	0.895966
3144.000000	0.895958
3143.000000	0.895942
3142.000000	0.895931
3141.000000	0.895934
3140.000000	0.895948
3139.000000	0.895963
3138.000000	0.895973
3137.000000	0.895983
3136.000000	0.895996
3135.000000	0.896010
3134.000000	0.896024
3133.000000	0.896038
3132.000000	0.896058
3131.000000	0.896083
3130.000000	0.896109
3129.000000	0.896132
3128.000000	0.896152
3127.000000	0.896169
3126.000000	0.896181
3125.000000	0.896185
3124.000000	0.896178
3123.000000	0.896168
3122.000000	0.896161
3121.000000	0.896161
3120.000000	0.896164
3119.000000	0.896166
3118.000000	0.896170
3117.000000	0.896180
3116.000000	0.896195
3115.000000	0.896210
3114.000000	0.896218
3113.000000	0.896218
3112.000000	0.896217
3111.000000	0.896221
3110.000000	0.896228
3109.000000	0.896235
3108.000000	0.896237
3107.000000	0.896232
3106.000000	0.896226
3105.000000	0.896223
3104.000000	0.896227
3103.000000	0.896227
3102.000000	0.896213
3101.000000	0.896184
3100.000000	0.896154
3099.000000	0.896140
3098.000000	0.896144
3097.000000	0.896150
3096.000000	0.896144
3095.000000	0.896132
3094.000000	0.896126
3093.000000	0.896135
3092.000000	0.896151
3091.000000	0.896159
3090.000000	0.896153
3089.000000	0.896136
3088.000000	0.896121
3087.000000	0.896118
3086.000000	0.896127
3085.000000	0.896134
3084.000000	0.896121
3083.000000	0.896081
3082.000000	0.896032
3081.000000	0.895994
3080.000000	0.895977
3079.000000	0.895972
3078.000000	0.895972
3077.000000	0.895974
3076.000000	0.895977
3075.000000	0.895980
3074.000000	0.895975
3073.000000	0.895965
3072.000000	0.895950
3071.000000	0.895930
3070.000000	0.895900
3069.000000	0.895866
3068.000000	0.895842
3067.000000	0.895838
3066.000000	0.895852
3065.000000	0.895870
3064.000000	0.895877
3063.000000	0.895868
3062.000000	0.895845
3061.000000	0.895822
3060.000000	0.895806
3059.000000	0.895795
3058.000000	0.895776
3057.000000	0.895740
3056.000000	0.895693
3055.000000	0.895652
3054.000000	0.895627
3053.000000	0.895613
3052.000000	0.895608
3051.000000	0.895613
3050.000000	0.895626
3049.000000	0.895637
3048.000000	0.895632
3047.000000	0.895611
3046.000000	0.895583
3045.000000	0.895560
3044.000000	0.895536
3043.000000	0.895504
3042.000000	0.895466
3041.000000	0.895435
3040.000000	0.895423
3039.000000	0.895433
3038.000000	0.895452
3037.000000	0.895462
3036.000000	0.895448
3035.000000	0.895416
3034.000000	0.895383
3033.000000	0.895366
3032.000000	0.895365
3031.000000	0.895367
3030.000000	0.895356
3029.000000	0.895335
3028.000000	0.895317
3027.000000	0.895316
3026.000000	0.895329
3025.000000	0.895339
3024.000000	0.895330
3023.000000	0.895306
3022.000000	0.895280
3021.000000	0.895259
3020.000000	0.895238
3019.000000	0.895206
3018.000000	0.895156
3017.000000	0.895097
3016.000000	0.895045
3015.000000	0.895015
3014.000000	0.895005
3013.000000	0.895006
3012.000000	0.895004
3011.000000	0.894997
3010.000000	0.894988
3009.000000	0.894983
3008.000000	0.894976
3007.000000	0.894962
3006.000000	0.894938
3005.000000	0.894908
3004.000000	0.894875
3003.000000	0.894847
3002.000000	0.894829
3001.000000	0.894816
3000.000000	0.894797
2999.000000	0.894763
2998.000000	0.894723
2997.000000	0.894692
2996.000000	0.894678
2995.000000	0.894675
2994.000000	0.894669
2993.000000	0.894653
2992.000000	0.894631
2991.000000	0.894611
2990.000000	0.894596
2989.000000	0.894585
2988.000000	0.894572
2987.000000	0.894560
2986.000000	0.894554
2985.000000	0.894555
2984.000000	0.894553
2983.000000	0.894539
2982.000000	0.894514
2981.000000	0.894492
2980.000000	0.894485
2979.000000	0.894494
2978.000000	0.894508
2977.000000	0.894515
2976.000000	0.894514
2975.000000	0.894514
2974.000000	0.894525
2973.000000	0.894547
2972.000000	0.894569
2971.000000	0.894578
2970.000000	0.894567
2969.000000	0.894539
2968.000000	0.894511
2967.000000	0.894494
2966.000000	0.894486
2965.000000	0.894470
2964.000000	0.894435
2963.000000	0.894383
2962.000000	0.894333
2961.000000	0.894296
2960.000000	0.894270
2959.000000	0.894246
2958.000000	0.894216
2957.000000	0.894177
2956.000000	0.894133
2955.000000	0.894087
2954.000000	0.894041
2953.000000	0.893995
2952.000000	0.893950
2951.000000	0.893914
2950.000000	0.893894
2949.000000	0.893887
2948.000000	0.893876
2947.000000	0.893849
2946.000000	0.893810
2945.000000	0.893775
2944.000000	0.893755
2943.000000	0.893750
2942.000000	0.893752
2941.000000	0.893747
2940.000000	0.893723
2939.000000	0.893686
2938.000000	0.893653
2937.000000	0.893639
2936.000000	0.893640
2935.000000	0.893639
2934.000000	0.893627
2933.000000	0.893610
2932.000000	0.893595
2931.000000	0.893585
2930.000000	0.893574
2929.000000	0.893556
2928.000000	0.893524
2927.000000	0.893475
2926.000000	0.893412
2925.000000	0.893345
2924.000000	0.893283
2923.000000	0.893234
2922.000000	0.893199
2921.000000	0.893172
2920.000000	0.893143
2919.000000	0.893107
2918.000000	0.893066
2917.000000	0.893025
2916.000000	0.892980
2915.000000	0.892932
2914.000000	0.892891
2913.000000	0.892875
2912.000000	0.892885
2911.000000	0.892903
2910.000000	0.892904
2909.000000	0.892886
2908.000000	0.892859
2907.000000	0.892839
2906.000000	0.892828
2905.000000	0.892814
2904.000000	0.892783
2903.000000	0.892731
2902.000000	0.892670
2901.000000	0.892622
2900.000000	0.892599
2899.000000	0.892592
2898.000000	0.892585
2897.000000	0.892568
2896.000000	0.892546
2895.000000	0.892526
2894.000000	0.892508
2893.000000	0.892485
2892.000000	0.892449
2891.000000	0.892403
2890.000000	0.892363
2889.000000	0.892341
2888.000000	0.892338
2887.000000	0.892337
2886.000000	0.892320
2885.000000	0.892281
2884.000000	0.892226
2883.000000	0.892170
2882.000000	0.892118
2881.000000	0.892070
2880.000000	0.892017
2879.000000	0.891961
2878.000000	0.891914
2877.000000	0.891886
2876.000000	0.891875
2875.000000	0.891864
2874.000000	0.891845
2873.000000	0.891823
2872.000000	0.891807
2871.000000	0.891798
2870.000000	0.891783
2869.000000	0.891747
2868.000000	0.891694
2867.000000	0.891641
2866.000000	0.891607
2865.000000	0.891590
2864.000000	0.891568
2863.000000	0.891515
2862.000000	0.891426
2861.000000	0.891321
2860.000000	0.891224
2859.000000	0.891146
2858.000000	0.891087
2857.000000	0.891042
2856.000000	0.891012
2855.000000	0.890998
2854.000000	0.890990
2853.000000	0.890971
2852.000000	0.890929
2851.000000	0.890861
2850.000000	0.890783
2849.000000	0.890713
2848.000000	0.890667
2847.000000	0.890649
2846.000000	0.890649
2845.000000	0.890644
2844.000000	0.890626
2843.000000	0.890602
2842.000000	0.890587
2841.000000	0.890577
2840.000000	0.890553
2839.000000	0.890510
2838.000000	0.890465
2837.000000	0.890444
2836.000000	0.890445
2835.000000	0.890444
2834.000000	0.890421
2833.000000	0.890379
2832.000000	0.890337
2831.000000	0.890307
2830.000000	0.890284
2829.000000	0.890254
2828.000000	0.890210
2827.000000	0.890158
2826.000000	0.890118
2825.000000	0.890099
2824.000000	0.890096
2823.000000	0.890089
2822.000000	0.890063
2821.000000	0.890020
2820.000000	0.889969
2819.000000	0.889923
2818.000000	0.889889
2817.000000	0.889864
2816.000000	0.889835
2815.000000	0.889796
2814.000000	0.889754
2813.000000	0.889713
2812.000000	0.889671
2811.000000	0.889621
2810.000000	0.889568
2809.000000	0.889527
2808.000000	0.889501
2807.000000	0.889478
2806.000000	0.889447
2805.000000	0.889413
2804.000000	0.889383
2803.000000	0.889360
2802.000000	0.889336
2801.000000	0.889308
2800.000000	0.889275
2799.000000	0.889238
2798.000000	0.889197
2797.000000	0.889154
2796.000000	0.889114
2795.000000	0.889085
2794.000000	0.889071
2793.000000	0.889066
2792.000000	0.889055
2791.000000	0.889025
2790.000000	0.888975
2789.000000	0.888924
2788.000000	0.888894
2787.000000	0.888891
2786.000000	0.888907
2785.000000	0.888923
2784.000000	0.888925
2783.000000	0.888907
2782.000000	0.888873
2781.000000	0.888830
2780.000000	0.888784
2779.000000	0.888737
2778.000000	0.888697
2777.000000	0.888667
2776.000000	0.888649
2775.000000	0.888629
2774.000000	0.888597
2773.000000	0.888554
2772.000000	0.888514
2771.000000	0.888492
2770.000000	0.888493
2769.000000	0.888503
2768.000000	0.888500
2767.000000	0.888477
2766.000000	0.888447
2765.000000	0.888425
2764.000000	0.888413
2763.000000	0.888399
2762.000000	0.888374
2761.000000	0.888342
2760.000000	0.888311
2759.000000	0.888284
2758.000000	0.888261
2757.000000	0.888243
2756.000000	0.888227
2755.000000	0.888205
2754.000000	0.888177
2753.000000	0.888153
2752.000000	0.888144
2751.000000	0.888150
2750.000000	0.888157
2749.000000	0.888149
2748.000000	0.888124
2747.000000	0.888091
2746.000000	0.888061
2745.000000	0.888044
2744.000000	0.888037
2743.000000	0.888031
2742.000000	0.888020
2741.000000	0.888004
2740.000000	0.887990
2739.000000	0.887981
2738.000000	0.887975
2737.000000	0.887967
2736.000000	0.887956
2735.000000	0.887943
2734.000000	0.887933
2733.000000	0.887925
2732.000000	0.887914
2731.000000	0.887891
2730.000000	0.887856
2729.000000	0.887819
2728.000000	0.887790
2727.000000	0.887768
2726.000000	0.887745
2725.000000	0.887723
2724.000000	0.887711
2723.000000	0.887719
2722.000000	0.887741
2721.000000	0.887759
2720.000000	0.887761
2719.000000	0.887753
2718.000000	0.887749
2717.000000	0.887752
2716.000000	0.887751
2715.000000	0.887733
2714.000000	0.887703
2713.000000	0.887678
2712.000000	0.887669
2711.000000	0.887673
2710.000000	0.887679
2709.000000	0.887680
2708.000000	0.887676
2707.000000	0.887667
2706.000000	0.887660
2705.000000	0.887665
2704.000000	0.887679
2703.000000	0.887684
2702.000000	0.887667
2701.000000	0.887636
2700.000000	0.887617
2699.000000	0.887624
2698.000000	0.887647
2697.000000	0.887667
2696.000000	0.887669
2695.000000	0.887658
2694.000000	0.887643
2693.000000	0.887633
2692.000000	0.887629
2691.000000	0.887621
2690.000000	0.887606
2689.000000	0.887587
2688.000000	0.887579
2687.000000	0.887588
2686.000000	0.887609
2685.000000	0.887626
2684.000000	0.887629
2683.000000	0.887618
2682.000000	0.887603
2681.000000	0.887593
2680.000000	0.887588
2679.000000	0.887584
2678.000000	0.887578
2677.000000	0.887573
2676.000000	0.887572
2675.000000	0.887577
2674.000000	0.887588
2673.000000	0.887604
2672.000000	0.887626
2671.000000	0.887652
2670.000000	0.887677
2669.000000	0.887695
2668.000000	0.887706
2667.000000	0.887709
2666.000000	0.887706
2665.000000	0.887697
2664.000000	0.887684
2663.000000	0.887674
2662.000000	0.887671
2661.000000	0.887679
2660.000000	0.887697
2659.000000	0.887718
2658.000000	0.887733
2657.000000	0.887737
2656.000000	0.887731
2655.000000	0.887721
2654.000000	0.887716
2653.000000	0.887725
2652.000000	0.887748
2651.000000	0.887777
2650.000000	0.887801
2649.000000	0.887817
2648.000000	0.887822
2647.000000	0.887821
2646.000000	0.887819
2645.000000	0.887827
2644.000000	0.887850
2643.000000	0.887883
2642.000000	0.887907
2641.000000	0.887914
2640.000000	0.887906
2639.000000	0.887892
2638.000000	0.887882
2637.000000	0.887878
2636.000000	0.887884
2635.000000	0.887901
2634.000000	0.887921
2633.000000	0.887935
2632.000000	0.887939
2631.000000	0.887939
2630.000000	0.887942
2629.000000	0.887948
2628.000000	0.887954
2627.000000	0.887959
2626.000000	0.887968
2625.000000	0.887986
2624.000000	0.888013
2623.000000	0.888043
2622.000000	0.888065
2621.000000	0.888072
2620.000000	0.888063
2619.000000	0.888047
2618.000000	0.888031
2617.000000	0.888022
2616.000000	0.888025
2615.000000	0.888039
2614.000000	0.888062
2613.000000	0.888083
2612.000000	0.888096
2611.000000	0.888102
2610.000000	0.888110
2609.000000	0.888125
2608.000000	0.888146
2607.000000	0.888165
2606.000000	0.888175
2605.000000	0.888174
2604.000000	0.888170
2603.000000	0.888172
2602.000000	0.888182
2601.000000	0.888194
2600.000000	0.888200
2599.000000	0.888199
2598.000000	0.888198
2597.000000	0.888204
2596.000000	0.888216
2595.000000	0.888233
2594.000000	0.888253
2593.000000	0.888272
2592.000000	0.888285
2591.000000	0.888291
2590.000000	0.888294
2589.000000	0.888295
2588.000000	0.888295
2587.000000	0.888299
2586.000000	0.888311
2585.000000	0.888332
2584.000000	0.888349
2583.000000	0.888352
2582.000000	0.888346
2581.000000	0.888347
2580.000000	0.888361
2579.000000	0.888382
2578.000000	0.888392
2577.000000	0.888383
2576.000000	0.888361
2575.000000	0.888350
2574.000000	0.888367
2573.000000	0.888401
2572.000000	0.888417
2571.000000	0.888393
2570.000000	0.888348
2569.000000	0.888324
2568.000000	0.888348
2567.000000	0.888402
2566.000000	0.888447
2565.000000	0.888465
2564.000000	0.888463
2563.000000	0.888464
2562.000000	0.888481
2561.000000	0.888510
2560.000000	0.888536
2559.000000	0.888546
2558.000000	0.888543
2557.000000	0.888545
2556.000000	0.888563
2555.000000	0.888590
2554.000000	0.888610
2553.000000	0.888616
2552.000000	0.888618
2551.000000	0.888627
2550.000000	0.888643
2549.000000	0.888651
2548.000000	0.888645
2547.000000	0.888629
2546.000000	0.888624
2545.000000	0.888641
2544.000000	0.888675
2543.000000	0.888702
2542.000000	0.888701
2541.000000	0.888669
2540.000000	0.888630
2539.000000	0.888610
2538.000000	0.888618
2537.000000	0.888640
2536.000000	0.888654
2535.000000	0.888652
2534.000000	0.888646
2533.000000	0.888651
2532.000000	0.888675
2531.000000	0.888710
2530.000000	0.888747
2529.000000	0.888776
2528.000000	0.888787
2527.000000	0.888775
2526.000000	0.888750
2525.000000	0.888725
2524.000000	0.888710
2523.000000	0.888703
2522.000000	0.888702
2521.000000	0.888708
2520.000000	0.888721
2519.000000	0.888738
2518.000000	0.888752
2517.000000	0.888764
2516.000000	0.888777
2515.000000	0.888795
2514.000000	0.888813
2513.000000	0.888825
2512.000000	0.888826
2511.000000	0.888816
2510.000000	0.888799
2509.000000	0.888789
2508.000000	0.888796
2507.000000	0.888815
2506.000000	0.888834
2505.000000	0.888846
2504.000000	0.888850
2503.000000	0.888854
2502.000000	0.888856
2501.000000	0.888856
2500.000000	0.888854
2499.000000	0.888857
2498.000000	0.888868
2497.000000	0.888886
2496.000000	0.888907
2495.000000	0.888926
2494.000000	0.888940
2493.000000	0.888946
2492.000000	0.888948
2491.000000	0.888954
2490.000000	0.888974
2489.000000	0.889004
2488.000000	0.889034
2487.000000	0.889047
2486.000000	0.889043
2485.000000	0.889038
2484.000000	0.889047
2483.000000	0.889073
2482.000000	0.889099
2481.000000	0.889106
2480.000000	0.889094
2479.000000	0.889082
2478.000000	0.889084
2477.000000	0.889095
2476.000000	0.889098
2475.000000	0.889088
2474.000000	0.889079
2473.000000	0.889089
2472.000000	0.889112
2471.000000	0.889132
2470.000000	0.889138
2469.000000	0.889137
2468.000000	0.889148
2467.000000	0.889180
2466.000000	0.889227
2465.000000	0.889267
2464.000000	0.889284
2463.000000	0.889278
2462.000000	0.889269
2461.000000	0.889274
2460.000000	0.889297
2459.000000	0.889328
2458.000000	0.889363
2457.000000	0.889402
2456.000000	0.889444
2455.000000	0.889484
2454.000000	0.889518
2453.000000	0.889545
2452.000000	0.889568
2451.000000	0.889588
2450.000000	0.889607
2449.000000	0.889632
2448.000000	0.889668
2447.000000	0.889708
2446.000000	0.889739
2445.000000	0.889756
2444.000000	0.889768
2443.000000	0.889790
2442.000000	0.889830
2441.000000	0.889884
2440.000000	0.889939
2439.000000	0.889989
2438.000000	0.890037
2437.000000	0.890090
2436.000000	0.890147
2435.000000	0.890202
2434.000000	0.890250
2433.000000	0.890292
2432.000000	0.890329
2431.000000	0.890360
2430.000000	0.890385
2429.000000	0.890402
2428.000000	0.890411
2427.000000	0.890412
2426.000000	0.890407
2425.000000	0.890402
2424.000000	0.890398
2423.000000	0.890384
2422.000000	0.890353
2421.000000	0.890304
2420.000000	0.890248
2419.000000	0.890198
2418.000000	0.890156
2417.000000	0.890111
2416.000000	0.890053
2415.000000	0.889980
2414.000000	0.889907
2413.000000	0.889852
2412.000000	0.889814
2411.000000	0.889773
2410.000000	0.889709
2409.000000	0.889628
2408.000000	0.889560
2407.000000	0.889528
2406.000000	0.889526
2405.000000	0.889526
2404.000000	0.889506
2403.000000	0.889466
2402.000000	0.889425
2401.000000	0.889402
2400.000000	0.889397
2399.000000	0.889393
2398.000000	0.889370
2397.000000	0.889323
2396.000000	0.889268
2395.000000	0.889231
2394.000000	0.889229
2393.000000	0.889252
2392.000000	0.889279
2391.000000	0.889289
2390.000000	0.889285
2389.000000	0.889277
2388.000000	0.889270
2387.000000	0.889252
2386.000000	0.889218
2385.000000	0.889175
2384.000000	0.889140
2383.000000	0.889107
2382.000000	0.889049
2381.000000	0.888946
2380.000000	0.888808
2379.000000	0.888664
2378.000000	0.888530
2377.000000	0.888388
2376.000000	0.888211
2375.000000	0.887985
2374.000000	0.887722
2373.000000	0.887445
2372.000000	0.887173
2371.000000	0.886912
2370.000000	0.886649
2369.000000	0.886373
2368.000000	0.886086
2367.000000	0.885813
2366.000000	0.885579
2365.000000	0.885396
2364.000000	0.885256
2363.000000	0.885152
2362.000000	0.885092
2361.000000	0.885087
2360.000000	0.885143
2359.000000	0.885258
2358.000000	0.885428
2357.000000	0.885655
2356.000000	0.885937
2355.000000	0.886269
2354.000000	0.886641
2353.000000	0.887043
2352.000000	0.887450
2351.000000	0.887818
2350.000000	0.888085
2349.000000	0.888196
2348.000000	0.888130
2347.000000	0.887921
2346.000000	0.887638
2345.000000	0.887357
2344.000000	0.887118
2343.000000	0.886927
2342.000000	0.886768
2341.000000	0.886627
2340.000000	0.886502
2339.000000	0.886402
2338.000000	0.886338
2337.000000	0.886309
2336.000000	0.886304
2335.000000	0.886319
2334.000000	0.886357
2333.000000	0.886420
2332.000000	0.886496
2331.000000	0.886573
2330.000000	0.886650
2329.000000	0.886742
2328.000000	0.886861
2327.000000	0.887002
2326.000000	0.887142
2325.000000	0.887262
2324.000000	0.887362
2323.000000	0.887464
2322.000000	0.887589
2321.000000	0.887743
2320.000000	0.887910
2319.000000	0.888066
2318.000000	0.888191
2317.000000	0.888287
2316.000000	0.888372
2315.000000	0.888464
2314.000000	0.888567
2313.000000	0.888669
2312.000000	0.888754
2311.000000	0.888823
2310.000000	0.888878
2309.000000	0.888919
2308.000000	0.888943
2307.000000	0.888961
2306.000000	0.888993
2305.000000	0.889045
2304.000000	0.889105
2303.000000	0.889151
2302.000000	0.889179
2301.000000	0.889192
2300.000000	0.889203
2299.000000	0.889224
2298.000000	0.889264
2297.000000	0.889315
2296.000000	0.889347
2295.000000	0.889335
2294.000000	0.889292
2293.000000	0.889259
2292.000000	0.889268
2291.000000	0.889312
2290.000000	0.889354
2289.000000	0.889371
2288.000000	0.889368
2287.000000	0.889365
2286.000000	0.889378
2285.000000	0.889404
2284.000000	0.889431
2283.000000	0.889451
2282.000000	0.889464
2281.000000	0.889474
2280.000000	0.889480
2279.000000	0.889484
2278.000000	0.889493
2277.000000	0.889512
2276.000000	0.889536
2275.000000	0.889553
2274.000000	0.889556
2273.000000	0.889542
2272.000000	0.889513
2271.000000	0.889471
2270.000000	0.889431
2269.000000	0.889411
2268.000000	0.889421
2267.000000	0.889449
2266.000000	0.889474
2265.000000	0.889483
2264.000000	0.889483
2263.000000	0.889487
2262.000000	0.889499
2261.000000	0.889511
2260.000000	0.889508
2259.000000	0.889491
2258.000000	0.889476
2257.000000	0.889481
2256.000000	0.889507
2255.000000	0.889537
2254.000000	0.889552
2253.000000	0.889549
2252.000000	0.889536
2251.000000	0.889524
2250.000000	0.889516
2249.000000	0.889511
2248.000000	0.889505
2247.000000	0.889498
2246.000000	0.889495
2245.000000	0.889493
2244.000000	0.889486
2243.000000	0.889468
2242.000000	0.889448
2241.000000	0.889435
2240.000000	0.889437
2239.000000	0.889449
2238.000000	0.889463
2237.000000	0.889470
2236.000000	0.889467
2235.000000	0.889458
2234.000000	0.889448
2233.000000	0.889440
2232.000000	0.889424
2231.000000	0.889396
2230.000000	0.889364
2229.000000	0.889345
2228.000000	0.889344
2227.000000	0.889354
2226.000000	0.889364
2225.000000	0.889370
2224.000000	0.889377
2223.000000	0.889384
2222.000000	0.889391
2221.000000	0.889393
2220.000000	0.889382
2219.000000	0.889356
2218.000000	0.889327
2217.000000	0.889311
2216.000000	0.889315
2215.000000	0.889330
2214.000000	0.889339
2213.000000	0.889332
2212.000000	0.889311
2211.000000	0.889283
2210.000000	0.889256
2209.000000	0.889232
2208.000000	0.889211
2207.000000	0.889187
2206.000000	0.889167
2205.000000	0.889154
2204.000000	0.889148
2203.000000	0.889138
2202.000000	0.889115
2201.000000	0.889084
2200.000000	0.889055
2199.000000	0.889034
2198.000000	0.889020
2197.000000	0.889009
2196.000000	0.888995
2195.000000	0.888976
2194.000000	0.888953
2193.000000	0.888932
2192.000000	0.888922
2191.000000	0.888924
2190.000000	0.888933
2189.000000	0.888934
2188.000000	0.888917
2187.000000	0.888886
2186.000000	0.888855
2185.000000	0.888833
2184.000000	0.888815
2183.000000	0.888791
2182.000000	0.888759
2181.000000	0.888725
2180.000000	0.888697
2179.000000	0.888681
2178.000000	0.888675
2177.000000	0.888671
2176.000000	0.888661
2175.000000	0.888647
2174.000000	0.888634
2173.000000	0.888622
2172.000000	0.888605
2171.000000	0.888570
2170.000000	0.888524
2169.000000	0.888480
2168.000000	0.888450
2167.000000	0.888435
2166.000000	0.888426
2165.000000	0.888409
2164.000000	0.888378
2163.000000	0.888336
2162.000000	0.888295
2161.000000	0.888258
2160.000000	0.888216
2159.000000	0.888167
2158.000000	0.888119
2157.000000	0.888087
2156.000000	0.888073
2155.000000	0.888071
2154.000000	0.888074
2153.000000	0.888073
2152.000000	0.888056
2151.000000	0.888017
2150.000000	0.887968
2149.000000	0.887928
2148.000000	0.887901
2147.000000	0.887880
2146.000000	0.887857
2145.000000	0.887837
2144.000000	0.887824
2143.000000	0.887808
2142.000000	0.887774
2141.000000	0.887718
2140.000000	0.887652
2139.000000	0.887598
2138.000000	0.887576
2137.000000	0.887578
2136.000000	0.887571
2135.000000	0.887529
2134.000000	0.887460
2133.000000	0.887399
2132.000000	0.887365
2131.000000	0.887345
2130.000000	0.887315
2129.000000	0.887273
2128.000000	0.887233
2127.000000	0.887212
2126.000000	0.887215
2125.000000	0.887225
2124.000000	0.887215
2123.000000	0.887168
2122.000000	0.887103
2121.000000	0.887052
2120.000000	0.887024
2119.000000	0.886997
2118.000000	0.886949
2117.000000	0.886884
2116.000000	0.886828
2115.000000	0.886795
2114.000000	0.886778
2113.000000	0.886760
2112.000000	0.886725
2111.000000	0.886669
2110.000000	0.886604
2109.000000	0.886554
2108.000000	0.886532
2107.000000	0.886518
2106.000000	0.886485
2105.000000	0.886427
2104.000000	0.886368
2103.000000	0.886332
2102.000000	0.886317
2101.000000	0.886303
2100.000000	0.886275
2099.000000	0.886235
2098.000000	0.886196
2097.000000	0.886170
2096.000000	0.886156
2095.000000	0.886144
2094.000000	0.886125
2093.000000	0.886094
2092.000000	0.886054
2091.000000	0.886007
2090.000000	0.885961
2089.000000	0.885916
2088.000000	0.885872
2087.000000	0.885833
2086.000000	0.885809
2085.000000	0.885803
2084.000000	0.885801
2083.000000	0.885779
2082.000000	0.885729
2081.000000	0.885670
2080.000000	0.885627
2079.000000	0.885608
2078.000000	0.885595
2077.000000	0.885568
2076.000000	0.885522
2075.000000	0.885467
2074.000000	0.885420
2073.000000	0.885378
2072.000000	0.885331
2071.000000	0.885276
2070.000000	0.885223
2069.000000	0.885183
2068.000000	0.885155
2067.000000	0.885125
2066.000000	0.885087
2065.000000	0.885049
2064.000000	0.885018
2063.000000	0.884993
2062.000000	0.884970
2061.000000	0.884945
2060.000000	0.884917
2059.000000	0.884884
2058.000000	0.884851
2057.000000	0.884822
2056.000000	0.884795
2055.000000	0.884766
2054.000000	0.884731
2053.000000	0.884692
2052.000000	0.884650
2051.000000	0.884604
2050.000000	0.884551
2049.000000	0.884503
2048.000000	0.884468
2047.000000	0.884445
2046.000000	0.884421
2045.000000	0.884387
2044.000000	0.884340
2043.000000	0.884289
2042.000000	0.884248
2041.000000	0.884222
2040.000000	0.884204
2039.000000	0.884179
2038.000000	0.884149
2037.000000	0.884124
2036.000000	0.884104
2035.000000	0.884077
2034.000000	0.884031
2033.000000	0.883977
2032.000000	0.883931
2031.000000	0.883899
2030.000000	0.883872
2029.000000	0.883842
2028.000000	0.883809
2027.000000	0.883773
2026.000000	0.883737
2025.000000	0.883709
2024.000000	0.883695
2023.000000	0.883687
2022.000000	0.883668
2021.000000	0.883624
2020.000000	0.883561
2019.000000	0.883497
2018.000000	0.883454
2017.000000	0.883434
2016.000000	0.883419
2015.000000	0.883390
2014.000000	0.883346
2013.000000	0.883311
2012.000000	0.883300
2011.000000	0.883306
2010.000000	0.883304
2009.000000	0.883277
2008.000000	0.883232
2007.000000	0.883186
2006.000000	0.883147
2005.000000	0.883114
2004.000000	0.883084
2003.000000	0.883055
2002.000000	0.883034
2001.000000	0.883027
2000.000000	0.883032
1999.000000	0.883038
1998.000000	0.883029
1997.000000	0.883000
1996.000000	0.882957
1995.000000	0.882911
1994.000000	0.882872
1993.000000	0.882837
1992.000000	0.882803
1991.000000	0.882770
1990.000000	0.882747
1989.000000	0.882740
1988.000000	0.882741
1987.000000	0.882732
1986.000000	0.882704
1985.000000	0.882665
1984.000000	0.882630
1983.000000	0.882611
1982.000000	0.882601
1981.000000	0.882585
1980.000000	0.882551
1979.000000	0.882504
1978.000000	0.882471
1977.000000	0.882469
1976.000000	0.882488
1975.000000	0.882499
1974.000000	0.882482
1973.000000	0.882449
1972.000000	0.882424
1971.000000	0.882420
1970.000000	0.882422
1969.000000	0.882405
1968.000000	0.882359
1967.000000	0.882297
1966.000000	0.882254
1965.000000	0.882253
1964.000000	0.882280
1963.000000	0.882302
1962.000000	0.882300
1961.000000	0.882286
1960.000000	0.882279
1959.000000	0.882278
1958.000000	0.882264
1957.000000	0.882228
1956.000000	0.882181
1955.000000	0.882144
1954.000000	0.882131
1953.000000	0.882141
1952.000000	0.882155
1951.000000	0.882155
1950.000000	0.882131
1949.000000	0.882096
1948.000000	0.882069
1947.000000	0.882061
1946.000000	0.882058
1945.000000	0.882036
1944.000000	0.881994
1943.000000	0.881957
1942.000000	0.881960
1941.000000	0.882001
1940.000000	0.882043
1939.000000	0.882048
1938.000000	0.882020
1937.000000	0.881993
1936.000000	0.881993
1935.000000	0.882012
1934.000000	0.882025
1933.000000	0.882017
1932.000000	0.881999
1931.000000	0.881993
1930.000000	0.882011
1929.000000	0.882041
1928.000000	0.882056
1927.000000	0.882036
1926.000000	0.881989
1925.000000	0.881938
1924.000000	0.881907
1923.000000	0.881901
1922.000000	0.881908
1921.000000	0.881901
1920.000000	0.881863
1919.000000	0.881811
1918.000000	0.881790
1917.000000	0.881823
1916.000000	0.881887
1915.000000	0.881939
1914.000000	0.881962
1913.000000	0.881969
1912.000000	0.881977
1911.000000	0.881981
1910.000000	0.881981
1909.000000	0.881983
1908.000000	0.881990
1907.000000	0.881995
1906.000000	0.881999
1905.000000	0.882008
1904.000000	0.882020
1903.000000	0.882023
1902.000000	0.882013
1901.000000	0.882005
1900.000000	0.882012
1899.000000	0.882028
1898.000000	0.882039
1897.000000	0.882036
1896.000000	0.882021
1895.000000	0.882005
1894.000000	0.881996
1893.000000	0.881994
1892.000000	0.881985
1891.000000	0.881956
1890.000000	0.881921
1889.000000	0.881916
1888.000000	0.881959
1887.000000	0.882029
1886.000000	0.882087
1885.000000	0.882108
1884.000000	0.882092
1883.000000	0.882058
1882.000000	0.882030
1881.000000	0.882022
1880.000000	0.882028
1879.000000	0.882034
1878.000000	0.882033
1877.000000	0.882034
1876.000000	0.882040
1875.000000	0.882038
1874.000000	0.882020
1873.000000	0.881982
1872.000000	0.881917
1871.000000	0.881828
1870.000000	0.881745
1869.000000	0.881715
1868.000000	0.881755
1867.000000	0.881833
1866.000000	0.881905
1865.000000	0.881954
1864.000000	0.881995
1863.000000	0.882030
1862.000000	0.882050
1861.000000	0.882048
1860.000000	0.882029
1859.000000	0.882008
1858.000000	0.881996
1857.000000	0.881999
1856.000000	0.882002
1855.000000	0.881987
1854.000000	0.881953
1853.000000	0.881922
1852.000000	0.881914
1851.000000	0.881920
1850.000000	0.881914
1849.000000	0.881883
1848.000000	0.881821
1847.000000	0.881726
1846.000000	0.881608
1845.000000	0.881514
1844.000000	0.881502
1843.000000	0.881592
1842.000000	0.881738
1841.000000	0.881872
1840.000000	0.881954
1839.000000	0.881986
1838.000000	0.881985
1837.000000	0.881964
1836.000000	0.881938
1835.000000	0.881927
1834.000000	0.881932
1833.000000	0.881916
1832.000000	0.881835
1831.000000	0.881703
1830.000000	0.881601
1829.000000	0.881599
1828.000000	0.881678
1827.000000	0.881751
1826.000000	0.881768
1825.000000	0.881758
1824.000000	0.881777
1823.000000	0.881843
1822.000000	0.881927
1821.000000	0.881995
1820.000000	0.882025
1819.000000	0.882018
1818.000000	0.881994
1817.000000	0.881990
1816.000000	0.882020
1815.000000	0.882053
1814.000000	0.882048
1813.000000	0.881999
1812.000000	0.881947
1811.000000	0.881932
1810.000000	0.881965
1809.000000	0.882014
1808.000000	0.882039
1807.000000	0.882027
1806.000000	0.881996
1805.000000	0.881970
1804.000000	0.881944
1803.000000	0.881893
1802.000000	0.881819
1801.000000	0.881766
1800.000000	0.881775
1799.000000	0.881839
1798.000000	0.881913
1797.000000	0.881952
1796.000000	0.881922
1795.000000	0.881811
1794.000000	0.881654
1793.000000	0.881533
1792.000000	0.881519
1791.000000	0.881611
1790.000000	0.881746
1789.000000	0.881858
1788.000000	0.881916
1787.000000	0.881915
1786.000000	0.881879
1785.000000	0.881846
1784.000000	0.881838
1783.000000	0.881847
1782.000000	0.881857
1781.000000	0.881872
1780.000000	0.881904
1779.000000	0.881943
1778.000000	0.881965
1777.000000	0.881952
1776.000000	0.881890
1775.000000	0.881754
1774.000000	0.881556
1773.000000	0.881379
1772.000000	0.881333
1771.000000	0.881445
1770.000000	0.881628
1769.000000	0.881780
1768.000000	0.881880
1767.000000	0.881961
1766.000000	0.882031
1765.000000	0.882055
1764.000000	0.882009
1763.000000	0.881930
1762.000000	0.881884
1761.000000	0.881913
1760.000000	0.881992
1759.000000	0.882058
1758.000000	0.882077
1757.000000	0.882071
1756.000000	0.882082
1755.000000	0.882102
1754.000000	0.882073
1753.000000	0.881965
1752.000000	0.881826
1751.000000	0.881746
1750.000000	0.881774
1749.000000	0.881888
1748.000000	0.882034
1747.000000	0.882165
1746.000000	0.882251
1745.000000	0.882281
1744.000000	0.882267
1743.000000	0.882222
1742.000000	0.882152
1741.000000	0.882068
1740.000000	0.882015
1739.000000	0.882038
1738.000000	0.882084
1737.000000	0.882011
1736.000000	0.881732
1735.000000	0.881374
1734.000000	0.881204
1733.000000	0.881380
1732.000000	0.881794
1731.000000	0.882203
1730.000000	0.882457
1729.000000	0.882576
1728.000000	0.882640
1727.000000	0.882691
1726.000000	0.882734
1725.000000	0.882767
1724.000000	0.882785
1723.000000	0.882777
1722.000000	0.882723
1721.000000	0.882576
1720.000000	0.882292
1719.000000	0.881901
1718.000000	0.881562
1717.000000	0.881460
1716.000000	0.881639
1715.000000	0.881972
1714.000000	0.882304
1713.000000	0.882563
1712.000000	0.882734
1711.000000	0.882811
1710.000000	0.882811
1709.000000	0.882785
1708.000000	0.882754
1707.000000	0.882694
1706.000000	0.882609
1705.000000	0.882555
1704.000000	0.882520
1703.000000	0.882372
1702.000000	0.882031
1701.000000	0.881643
1700.000000	0.881457
1699.000000	0.881518
1698.000000	0.881623
1697.000000	0.881627
1696.000000	0.881639
1695.000000	0.881855
1694.000000	0.882271
1693.000000	0.882683
1692.000000	0.882924
1691.000000	0.883000
1690.000000	0.883010
1689.000000	0.882976
1688.000000	0.882812
1687.000000	0.882438
1686.000000	0.881936
1685.000000	0.881566
1684.000000	0.881571
1683.000000	0.881944
1682.000000	0.882442
1681.000000	0.882826
1680.000000	0.883037
1679.000000	0.883121
1678.000000	0.883086
1677.000000	0.882917
1676.000000	0.882698
1675.000000	0.882594
1674.000000	0.882673
1673.000000	0.882812
1672.000000	0.882838
1671.000000	0.882716
1670.000000	0.882585
1669.000000	0.882606
1668.000000	0.882806
1667.000000	0.883065
1666.000000	0.883226
1665.000000	0.883214
1664.000000	0.883098
1663.000000	0.883022
1662.000000	0.883080
1661.000000	0.883235
1660.000000	0.883374
1659.000000	0.883426
1658.000000	0.883383
1657.000000	0.883208
1656.000000	0.882795
1655.000000	0.882111
1654.000000	0.881385
1653.000000	0.881038
1652.000000	0.881321
1651.000000	0.882033
1650.000000	0.882688
1649.000000	0.882941
1648.000000	0.882820
1647.000000	0.882613
1646.000000	0.882588
1645.000000	0.882810
1644.000000	0.883159
1643.000000	0.883460
1642.000000	0.883615
1641.000000	0.883643
1640.000000	0.883598
1639.000000	0.883467
1638.000000	0.883200
1637.000000	0.882845
1636.000000	0.882591
1635.000000	0.882618
1634.000000	0.882916
1633.000000	0.883294
1632.000000	0.883562
1631.000000	0.883657
1630.000000	0.883629
1629.000000	0.883558
1628.000000	0.883499
1627.000000	0.883459
1626.000000	0.883409
1625.000000	0.883327
1624.000000	0.883244
1623.000000	0.883228
1622.000000	0.883305
1621.000000	0.883400
1620.000000	0.883381
1619.000000	0.883178
1618.000000	0.882883
1617.000000	0.882702
1616.000000	0.882797
1615.000000	0.883130
1614.000000	0.883509
1613.000000	0.883764
1612.000000	0.883866
1611.000000	0.883884
1610.000000	0.883874
1609.000000	0.883845
1608.000000	0.883805
1607.000000	0.883780
1606.000000	0.883779
1605.000000	0.883783
1604.000000	0.883784
1603.000000	0.883793
1602.000000	0.883827
1601.000000	0.883881
1600.000000	0.883934
1599.000000	0.883974
1598.000000	0.883990
1597.000000	0.883985
1596.000000	0.883974
1595.000000	0.883977
1594.000000	0.883994
1593.000000	0.884008
1592.000000	0.884008
1591.000000	0.884004
1590.000000	0.884015
1589.000000	0.884041
1588.000000	0.884061
1587.000000	0.884057
1586.000000	0.884032
1585.000000	0.884011
1584.000000	0.884010
1583.000000	0.884028
1582.000000	0.884048
1581.000000	0.884047
1580.000000	0.883981
1579.000000	0.883788
1578.000000	0.883465
1577.000000	0.883141
1576.000000	0.883026
1575.000000	0.883215
1574.000000	0.883572
1573.000000	0.883839
1572.000000	0.883874
1571.000000	0.883746
1570.000000	0.883630
1569.000000	0.883641
1568.000000	0.883770
1567.000000	0.883938
1566.000000	0.884073
1565.000000	0.884140
1564.000000	0.884112
1563.000000	0.883917
1562.000000	0.883465
1561.000000	0.882782
1560.000000	0.882119
1559.000000	0.881823
1558.000000	0.882035
1557.000000	0.882550
1556.000000	0.883046
1555.000000	0.883375
1554.000000	0.883595
1553.000000	0.883793
1552.000000	0.883961
1551.000000	0.884063
1550.000000	0.884112
1549.000000	0.884147
1548.000000	0.884159
1547.000000	0.884097
1546.000000	0.883942
1545.000000	0.883725
1544.000000	0.883473
1543.000000	0.883168
1542.000000	0.882787
1541.000000	0.882405
1540.000000	0.882209
1539.000000	0.882375
1538.000000	0.882874
1537.000000	0.883441
1536.000000	0.883781
1535.000000	0.883815
1534.000000	0.883718
1533.000000	0.883711
1532.000000	0.883854
1531.000000	0.884046
1530.000000	0.884161
1529.000000	0.884147
1528.000000	0.884034
1527.000000	0.883896
1526.000000	0.883799
1525.000000	0.883733
1524.000000	0.883609
1523.000000	0.883383
1522.000000	0.883158
1521.000000	0.883112
1520.000000	0.883290
1519.000000	0.883552
1518.000000	0.883737
1517.000000	0.883828
1516.000000	0.883901
1515.000000	0.883985
1514.000000	0.884039
1513.000000	0.884041
1512.000000	0.884018
1511.000000	0.883965
1510.000000	0.883793
1509.000000	0.883427
1508.000000	0.882952
1507.000000	0.882619
1506.000000	0.882665
1505.000000	0.883104
1504.000000	0.883710
1503.000000	0.884202
1502.000000	0.884452
1501.000000	0.884506
1500.000000	0.884460
